timestamp,red,green,ir
43148,177078,39237,225826
43159,177072,39239,225835
43170,177073,39227,225833
43178,177068,39234,225845
43188,177086,39223,225854
43198,177064,39243,225802
43208,177077,39219,225811
43218,177070,39233,225819
43228,177071,39241,225846
43239,177065,39225,225810
43249,177054,39219,225810
43258,177062,39222,225831
43268,177069,39215,225811
43278,177058,39229,225820
43288,177064,39225,225813
43298,177059,39209,225806
43308,177051,39232,225825
43318,177071,39222,225820
43329,177058,39211,225804
43338,177049,39240,225810
43348,177048,39230,225825
43358,177047,39226,225792
43368,177023,39236,225821
43378,177054,39247,225824
43388,177059,39231,225834
43398,177062,39210,225826
43409,177054,39232,225815
43418,177076,39225,225812
43428,177057,39236,225810
43438,177074,39233,225813
43448,177087,39229,225806
43458,177061,39236,225802
43470,177054,39227,225799
43478,177069,39229,225809
43488,177065,39227,225801
43498,177077,39226,225787
43510,177070,39232,225797
43532,177076,39240,225805
43539,177080,39231,225805
43548,177081,39236,225780
43558,177042,39243,225779
43568,177067,39224,225807
43578,177064,39242,225804
43588,177056,39220,225800
43598,177046,39225,225785
43608,177038,39226,225782
43618,177033,39215,225787
43627,177015,39227,225794
43638,177018,39213,225773
43648,177044,39216,225802
43658,177026,39237,225794
43667,177002,39216,225781
43678,177036,39216,225781
43688,176994,39208,225764
43698,177006,39192,225799
43708,177009,39208,225788
43718,177027,39198,225804
43728,177020,39207,225813
43738,177013,39210,225795
43748,177027,39213,225806
43757,176996,39210,225801
43767,177012,39212,225804
43778,177016,39191,225820
43788,177022,39208,225817
43797,177024,39208,225806
43807,177039,39194,225821
43818,177027,39201,225823
43828,177021,39197,225833
43837,177021,39186,225816
43847,177015,39199,225800
43858,177009,39193,225806
43868,177000,39215,225793
43877,176990,39211,225793
43887,176999,39199,225793
43898,176993,39204,225805
43908,177005,39197,225809
43917,177009,39208,225790
43927,177006,39200,225795
43938,177024,39202,225820
43948,177003,39189,225784
43958,177007,39215,225778
43967,177001,39205,225771
43977,177007,39195,225777
43987,176997,39196,225782
43998,177003,39189,225780
44007,177003,39204,225785
44018,176996,39198,225778
44028,177013,39205,225772
44038,176989,39213,225789
44047,176987,39199,225772
44058,177002,39204,225746
44068,177005,39202,225779
44078,177002,39207,225765
44087,176982,39199,225780
44097,177020,39208,225762
44107,177001,39209,225750
44118,176996,39200,225749
44127,177010,39206,225735
44137,176995,39194,225759
44148,177005,39176,225762
44158,176993,39194,225737
44167,176994,39196,225767
44178,177004,39188,225754
44188,176991,39207,225768
44198,176991,39198,225750
44208,176975,39185,225766
44217,176973,39200,225763
44227,176977,39195,225755
44238,176974,39198,225752
44248,176993,39192,225742
44257,176990,39198,225745
44267,176985,39189,225750
44278,176968,39195,225787
44288,176992,39186,225768
44297,176987,39185,225772
44308,176986,39184,225776
44318,176982,39197,225769
44328,176984,39199,225761
44337,176974,39198,225774
44347,176988,39201,225754
44357,176974,39204,225760
44367,177001,39197,225766
44377,176992,39181,225751
44388,176974,39187,225761
44398,176971,39202,225747
44408,176979,39188,225747
44416,176977,39192,225762
44427,176975,39183,225753
44438,176989,39203,225774
44448,176973,39200,225747
44458,176990,39187,225750
44467,176947,39194,225775
44477,176975,39191,225756
44487,176983,39189,225761
44498,176985,39197,225774
44507,176964,39206,225774
44517,176962,39201,225775
44527,176964,39205,225775
44538,176983,39204,225776
44547,176970,39207,225780
44557,176958,39203,225786
44568,176973,39203,225765
44578,176976,39198,225749
44587,176979,39198,225782
44597,176966,39202,225803
44607,176970,39199,225772
44617,176968,39202,225773
44626,176970,39215,225773
44637,176947,39213,225794
44648,176955,39198,225791
44658,176978,39218,225791
44667,176968,39214,225783
44677,176975,39200,225793
44687,176976,39201,225774
44698,176974,39213,225779
44708,176967,39210,225789
44717,176976,39204,225778
44727,176982,39216,225788
44738,176955,39212,225794
44748,176996,39214,225798
44757,176984,39218,225796
44767,176983,39221,225798
44777,176977,39226,225786
44787,176970,39231,225797
44797,176990,39223,225803
44807,176961,39232,225794
44817,176991,39226,225783
44827,176979,39217,225785
44836,176990,39219,225814
44846,176983,39228,225788
44857,176994,39227,225810
44867,176989,39231,225813
44877,176965,39233,225836
44887,176985,39227,225804
44897,176997,39211,225806
44907,176957,39237,225832
44916,176977,39224,225807
44926,176991,39214,225795
44937,176972,39220,225781
44947,176977,39240,225786
44957,176961,39235,225800
44966,176991,39231,225791
44977,176977,39217,225800
44987,176975,39227,225790
44998,176981,39231,225784
45007,176974,39228,225783
45017,176969,39239,225785
45027,176978,39244,225792
45038,176971,39240,225783
45047,176962,39231,225789
45057,176991,39235,225784
45067,176978,39219,225790
45077,176966,39242,225779
45086,176990,39223,225794
45097,176983,39243,225801
45107,176979,39235,225795
45117,176972,39234,225779
45126,176960,39251,225805
45137,176984,39247,225761
45147,176967,39240,225798
45157,176987,39260,225792
45166,176980,39244,225788
45176,176991,39222,225808
45187,177001,39238,225798
45197,176983,39251,225785
45210,176997,39252,225799
45216,176990,39242,225817
45226,176972,39240,225830
45237,176981,39233,225812
45247,176973,39259,225778
45256,176969,39246,225811
45267,176975,39246,225819
45277,176985,39248,225783
45287,176993,39258,225818
45296,177005,39261,225818
45307,176989,39264,225826
45317,176996,39247,225813
45327,176981,39252,225805
45336,176983,39260,225818
45346,176997,39260,225821
45356,177006,39253,225821
45366,176991,39270,225818
45376,176994,39260,225842
45387,176981,39262,225837
45397,177000,39282,225822
45407,176995,39269,225797
45416,177015,39267,225824
45426,176995,39288,225805
45437,176971,39280,225825
45447,176995,39269,225829
45457,176981,39281,225838
45466,177007,39267,225819
45477,176996,39291,225846
45487,176986,39298,225839
45497,177004,39279,225817
45506,177003,39286,225842
45516,177001,39282,225856
45526,176998,39286,225838
45537,177003,39283,225843
45546,177003,39292,225838
45556,176972,39288,225862
45567,177013,39272,225850
45576,177002,39295,225847
45586,177014,39283,225860
45596,177003,39298,225830
45607,177009,39279,225863
45616,177014,39295,225818
45626,177017,39289,225848
45636,177016,39307,225816
45646,177005,39297,225847
45657,176977,39300,225836
45666,177008,39290,225842
45676,177011,39304,225834
45686,177008,39307,225837
45696,176998,39303,225854
45707,177005,39305,225851
45716,177000,39308,225844
45727,177037,39304,225867
45737,177036,39306,225838
45747,177017,39309,225832
45756,176999,39310,225847
45766,177012,39304,225859
45776,177011,39305,225859
45786,177005,39291,225857
45796,177019,39314,225838
45806,177008,39310,225851
45816,176998,39290,225841
45827,177018,39279,225843
45836,177008,39306,225841
45846,177008,39299,225840
45856,177005,39303,225856
45866,177007,39294,225851
45875,176998,39315,225856
45890,177004,39312,225834
45896,177007,39316,225851
45907,176991,39324,225853
45916,177000,39304,225834
45926,177013,39323,225867
45936,177009,39310,225870
45946,177018,39321,225863
45956,176993,39308,225866
45965,177028,39311,225853
45976,176988,39312,225860
45986,177006,39316,225842
45996,177010,39316,225863
46006,177009,39311,225850
46016,177012,39319,225863
46026,177007,39332,225855
46036,177005,39308,225830
46046,177023,39304,225854
46056,177003,39330,225841
46066,177013,39327,225848
46076,177012,39310,225850
46085,177015,39296,225849
46096,177005,39308,225838
46106,177002,39307,225833
46116,177001,39326,225850
46125,177002,39311,225862
46136,176998,39329,225831
46146,176986,39313,225854
46156,176984,39325,225856
46166,177019,39314,225857
46175,176989,39312,225848
46186,176996,39315,225866
46196,177013,39310,225831
46206,176996,39324,225860
46216,176990,39327,225861
46226,176996,39314,225867
46236,176990,39324,225866
46246,177001,39327,225832
46255,176990,39331,225849
46265,177006,39327,225857
46276,176990,39331,225851
46286,177007,39336,225812
46295,177006,39335,225856
46306,177011,39309,225834
46316,176995,39328,225833
46326,177002,39321,225855
46336,177004,39318,225860
46346,177005,39324,225848
46356,176995,39312,225847
46366,176986,39329,225827
46375,177005,39315,225849
46386,176988,39331,225846
46395,177015,39335,225840
46406,176985,39335,225843
46416,177015,39328,225824
46426,177000,39317,225837
46436,176980,39321,225842
46446,177004,39320,225859
46456,177008,39330,225839
46465,176994,39343,225859
46475,176991,39329,225851
46485,177001,39326,225845
46496,176988,39336,225837
46505,177003,39323,225854
46516,177008,39311,225848
46526,177006,39330,225848
46536,176979,39341,225849
46545,176993,39326,225853
46556,176982,39313,225838
46566,176976,39323,225839
46576,176982,39332,225820
46585,176999,39325,225831
46612,176967,39329,225811
46616,176971,39318,225817
46625,176967,39306,225820
46635,176983,39321,225802
46645,176969,39326,225822
46656,176965,39321,225796
46666,176973,39319,225822
46675,176973,39321,225802
46685,176954,39319,225823
46696,176970,39322,225816
46706,176972,39322,225810
46715,176970,39309,225807
46726,176944,39316,225819
46736,176966,39314,225776
46746,176971,39321,225812
46755,176967,39297,225800
46765,176951,39304,225817
46776,176967,39321,225799
46786,176962,39299,225816
46795,176957,39324,225824
46806,176957,39320,225833
46816,176961,39304,225817
46826,176972,39306,225775
46835,176940,39310,225817
46845,176955,39322,225830
46855,176960,39318,225806
46865,176957,39315,225835
46875,176962,39300,225804
46885,176957,39324,225819
46895,176954,39305,225802
46905,176964,39316,225835
46916,176981,39314,225823
46925,176956,39333,225818
46936,176951,39312,225814
46946,176957,39322,225798
46956,176942,39332,225797
46965,176944,39323,225820
46975,176972,39324,225808
46985,176979,39325,225835
46995,176979,39309,225829
47004,176970,39320,225824
47015,176976,39308,225831
47025,176963,39306,225806
47035,176964,39310,225810
47044,176961,39313,225806
47055,176963,39314,225836
47065,176971,39324,225785
47075,176936,39320,225819
47084,176952,39326,225796
47095,176944,39325,225813
47106,176947,39313,225821
47116,176960,39339,225799
47125,176968,39319,225814
47135,176937,39334,225816
47145,176981,39312,225810
47155,176976,39325,225820
47166,176954,39316,225822
47175,176988,39319,225808
47185,176956,39329,225826
47195,176977,39324,225834
47206,176967,39334,225827
47214,176961,39342,225816
47225,176977,39323,225831
47236,176961,39336,225834
47246,176975,39319,225808
47255,176969,39320,225827
47265,176973,39312,225833
47275,176986,39322,225827
47286,176959,39322,225840
47294,176977,39328,225834
47305,176988,39302,225821
47315,176970,39325,225830
47325,176967,39339,225833
47335,176956,39318,225840
47345,176964,39330,225833
47355,176966,39320,225810
47365,176962,39334,225815
47375,176956,39329,225846
47385,176988,39322,225830
47395,176955,39341,225821
47405,176958,39343,225841
47416,176977,39336,225832
47425,176955,39336,225824
47435,176963,39333,225827
47445,176961,39331,225843
47455,176943,39334,225848
47464,176967,39321,225853
47475,176960,39326,225830
47485,176959,39342,225847
47495,176960,39328,225834
47505,176961,39322,225827
47515,176958,39327,225842
47525,176956,39332,225851
47535,176961,39328,225843
47544,176955,39332,225855
47554,176951,39336,225848
47564,176952,39330,225838
47575,176963,39327,225830
47585,176965,39330,225840
47595,176939,39331,225836
47605,176960,39325,225843
47615,176948,39350,225839
47625,176954,39340,225823
47635,176934,39335,225846
47645,176928,39342,225855
47655,176954,39355,225847
47665,176944,39344,225860
47674,176965,39316,225853
47685,176931,39346,225872
47695,176954,39341,225817
47705,176959,39352,225854
47715,176956,39343,225854
47725,176959,39341,225824
47735,176951,39350,225859
47745,176953,39346,225846
47754,176970,39354,225835
47764,176962,39351,225852
47775,176958,39334,225878
47785,176945,39350,225862
47794,176955,39332,225865
47805,176965,39337,225852
47815,176956,39352,225855
47825,176940,39353,225860
47834,176956,39353,225841
47844,176965,39331,225845
47855,176955,39355,225842
47865,176955,39359,225865
47875,176936,39367,225863
47885,176951,39347,225845
47895,176965,39349,225847
47905,176973,39350,225856
47915,176956,39353,225863
47924,176965,39357,225845
47934,176956,39349,225886
47945,176943,39363,225852
47955,176961,39355,225842
47964,176953,39350,225857
47974,176961,39366,225874
47985,176970,39361,225862
47995,176975,39357,225864
48004,176963,39364,225869
48014,176964,39361,225863
48025,176982,39363,225873
48034,176966,39357,225870
48044,176945,39357,225869
48055,176975,39371,225863
48065,176951,39360,225853
48091,176961,39351,225869
48095,176972,39352,225866
48105,176949,39384,225896
48115,176945,39374,225874
48125,176968,39361,225869
48134,176933,39367,225885
48145,176964,39367,225874
48155,176951,39381,225882
48165,176956,39376,225868
48174,176949,39369,225870
48184,176965,39363,225816
48195,176926,39366,225863
48205,176953,39355,225837
48214,176940,39366,225868
48224,176941,39357,225847
48234,176928,39361,225854
48245,176942,39350,225851
48254,176912,39358,225847
48264,176929,39373,225843
48275,176919,39362,225845
48285,176941,39363,225861
48294,176914,39358,225860
48304,176931,39366,225851
48315,176944,39366,225860
48325,176937,39373,225872
48334,176927,39354,225853
48344,176931,39363,225832
48354,176938,39374,225851
48365,176935,39385,225883
48374,176952,39366,225873
48384,176950,39353,225885
48394,176923,39357,225838
48404,176943,39375,225870
48415,176914,39371,225882
48424,176919,39377,225886
48434,176940,39381,225849
48444,176940,39375,225893
48455,176970,39383,225866
48464,176951,39386,225898
48474,176944,39387,225867
48485,176956,39376,225911
48494,176945,39390,225892
48504,176964,39392,225890
48514,176942,39388,225899
48524,176943,39393,225915
48534,176949,39382,225897
48543,176960,39386,225902
48553,176941,39386,225915
48564,176954,39397,225905
48575,176946,39396,225893
48584,176945,39382,225887
48594,176931,39401,225909
48604,176964,39394,225925
48614,176953,39400,225915
48624,176946,39403,225923
48634,176964,39394,225924
48644,176968,39392,225918
48654,176969,39407,225927
48664,176955,39394,225886
48673,176945,39396,225919
48683,176953,39408,225932
48694,176978,39389,225911
48704,176952,39423,225913
48713,176957,39376,225896
48724,176949,39390,225910
48734,176957,39389,225893
48744,176961,39401,225907
48754,176942,39396,225914
48764,176942,39395,225908
48774,176958,39370,225914
48784,176963,39402,225904
48793,176963,39409,225916
48803,176944,39399,225903
48814,176929,39404,225914
48824,176953,39408,225910
48833,176934,39398,225915
48844,176960,39403,225924
48853,176965,39393,225904
48864,176968,39403,225915
48875,176959,39404,225917
48884,176953,39406,225925
48894,176949,39405,225941
48904,176955,39406,225913
48914,176962,39406,225913
48923,176952,39398,225914
48934,176967,39407,225919
48944,176958,39418,225895
48954,176930,39406,225908
48964,176908,39395,225915
48973,176957,39409,225910
48984,176939,39384,225920
48994,176955,39401,225883
49004,176950,39393,225921
49013,176938,39389,225892
49024,176966,39395,225904
49034,176943,39397,225881
49044,176941,39408,225914
49054,176944,39396,225881
49064,176926,39390,225910
49074,176949,39405,225912
49083,176947,39411,225914
49093,176949,39393,225931
49104,176914,39390,225919
49114,176950,39404,225908
49124,176942,39406,225904
49134,176946,39397,225896
49144,176940,39389,225883
49154,176922,39397,225913
49164,176929,39401,225913
49173,176926,39388,225904
49183,176924,39392,225914
49194,176936,39390,225908
49204,176911,39386,225909
49213,176926,39400,225882
49223,176920,39389,225895
49233,176907,39400,225916
49243,176918,39384,225902
49253,176938,39394,225907
49263,176917,39410,225907
49274,176925,39366,225914
49284,176928,39403,225902
49293,176918,39389,225905
49303,176926,39380,225885
49314,176901,39380,225892
49324,176942,39396,225865
49333,176919,39372,225897
49343,176895,39405,225901
49353,176918,39391,225864
49364,176914,39385,225897
49374,176908,39388,225900
49390,176925,39382,225874
49393,176894,39395,225906
49404,176910,39374,225869
49414,176899,39396,225870
49423,176895,39384,225885
49433,176897,39383,225899
49443,176914,39392,225901
49454,176911,39393,225896
49463,176918,39389,225891
49473,176915,39382,225902
49483,176905,39396,225888
49493,176918,39393,225911
49503,176916,39372,225879
49513,176907,39382,225847
49524,176927,39383,225884
49534,176914,39395,225887
49543,176941,39385,225863
49553,176896,39408,225899
49563,176919,39373,225898
49573,176913,39390,225880
49583,176919,39393,225897
49593,176915,39374,225879
49604,176916,39395,225902
49614,176904,39392,225879
49624,176904,39383,225879
49633,176904,39390,225875
49643,176889,39394,225877
49653,176899,39384,225882
49663,176893,39381,225878
49673,176888,39368,225875
49683,176861,39385,225875
49693,176880,39382,225875
49703,176882,39380,225881
49713,176896,39383,225869
49723,176877,39374,225881
49733,176890,39375,225902
49743,176882,39364,225874
49753,176892,39372,225848
49763,176876,39379,225877
49773,176891,39364,225845
49783,176875,39373,225874
49793,176902,39369,225858
49803,176858,39383,225872
49813,176881,39366,225863
49823,176888,39389,225880
49833,176859,39370,225866
49842,176889,39360,225858
49853,176878,39354,225871
49863,176848,39369,225867
49873,176893,39341,225883
49883,176882,39360,225854
49893,176882,39365,225851
49904,176880,39359,225892
49914,176873,39374,225861
49923,176889,39361,225837
49933,176880,39369,225889
49943,176854,39372,225881
49954,176885,39349,225871
49963,176866,39374,225877
49973,176865,39357,225866
49983,176866,39360,225863
49993,176864,39369,225884
50002,176889,39365,225873
50013,176873,39367,225858
50023,176884,39362,225841
50033,176859,39366,225866
50042,176888,39361,225882
50052,176876,39360,225865
50063,176877,39348,225860
50073,176866,39371,225861
50083,176867,39343,225856
50093,176856,39372,225861
50103,176848,39375,225856
50113,176869,39362,225860
50123,176863,39356,225854
50132,176835,39355,225862
50143,176870,39348,225865
50153,176849,39356,225836
50164,176863,39355,225868
50173,176856,39343,225840
50183,176852,39362,225837
50193,176842,39359,225867
50203,176853,39350,225861
50212,176859,39357,225861
50223,176852,39357,225861
50232,176862,39361,225857
50243,176863,39364,225879
50252,176852,39353,225857
50263,176869,39344,225875
50272,176851,39369,225867
50282,176858,39363,225867
50292,176858,39358,225862
50303,176880,39338,225847
50313,176860,39360,225836
50323,176854,39364,225853
50333,176850,39353,225842
50342,176815,39350,225847
50352,176849,39341,225841
50363,176844,39341,225828
50373,176865,39352,225847
50382,176812,39348,225837
50393,176837,39346,225857
50403,176853,39357,225846
50413,176858,39351,225852
50422,176845,39352,225843
50433,176862,39351,225845
50443,176832,39349,225848
50453,176861,39346,225852
50462,176867,39362,225856
50472,176854,39342,225849
50483,176877,39352,225846
50493,176841,39353,225820
50502,176840,39343,225849
50513,176839,39342,225856
50523,176845,39354,225842
50533,176850,39350,225856
50542,176856,39346,225850
50552,176847,39348,225851
50562,176842,39333,225816
50573,176840,39345,225848
50583,176857,39333,225841
50592,176849,39353,225868
50603,176867,39340,225859
50613,176831,39340,225837
50623,176844,39332,225832
50632,176842,39360,225848
50642,176868,39327,225845
50653,176838,39352,225855
50663,176845,39330,225868
50672,176829,39340,225836
50682,176829,39348,225867
50692,176863,39341,225865
50703,176840,39345,225857
50712,176844,39339,225849
50722,176825,39344,225892
50732,176852,39339,225834
50743,176842,39326,225891
50752,176864,39349,225860
50762,176859,39343,225833
50772,176847,39357,225863
50782,176864,39348,225881
50792,176847,39350,225878
50802,176866,39339,225892
50812,176869,39348,225875
50823,176862,39338,225883
50832,176860,39346,225872
50842,176850,39345,225887
50852,176866,39345,225873
50862,176864,39349,225882
50873,176869,39335,225869
50882,176862,39352,225889
50892,176870,39321,225860
50902,176865,39355,225863
50912,176860,39357,225883
50921,176879,39362,225888
50932,176841,39348,225871
50942,176894,39353,225900
50953,176865,39334,225873
50962,176867,39355,225847
50972,176846,39364,225887
50982,176876,39361,225868
50992,176868,39364,225879
51001,176855,39354,225871
51012,176845,39361,225884
51022,176860,39350,225878
51032,176872,39355,225889
51042,176866,39362,225913
51052,176865,39368,225884
51062,176852,39352,225889
51072,176861,39363,225887
51082,176868,39359,225878
51092,176860,39361,225884
51102,176865,39344,225881
51112,176863,39350,225899
51123,176876,39349,225898
51132,176881,39352,225877
51142,176866,39355,225884
51152,176867,39356,225894
51163,176884,39353,225898
51171,176862,39341,225894
51182,176852,39333,225888
51192,176869,39357,225885
51202,176864,39357,225923
51212,176862,39345,225886
51222,176886,39340,225900
51232,176882,39335,225901
51242,176869,39369,225882
51251,176886,39344,225924
51262,176891,39347,225904
51272,176883,39352,225912
51282,176874,39350,225927
51291,176887,39360,225910
51302,176870,39357,225900
51312,176889,39341,225911
51322,176879,39351,225935
51332,176877,39361,225925
51341,176897,39352,225909
51352,176900,39349,225911
51362,176890,39356,225892
51372,176873,39358,225912
51381,176864,39340,225899
51392,176889,39343,225908
51402,176887,39357,225916
51412,176883,39340,225896
51421,176896,39346,225920
51432,176899,39342,225932
51442,176883,39348,225897
51452,176892,39355,225916
51462,176901,39357,225938
51472,176891,39352,225918
51482,176886,39356,225936
51492,176898,39338,225931
51501,176881,39353,225896
51511,176893,39358,225931
51521,176900,39348,225931
51532,176883,39348,225930
51541,176906,39359,225923
51552,176892,39349,225912
51562,176899,39361,225940
51572,176894,39344,225929
51582,176902,39338,225928
51591,176890,39351,225933
51611,176890,39356,225945
51614,176891,39361,225939
51622,176892,39369,225940
51632,176875,39359,225939
51642,176891,39355,225944
51652,176880,39342,225916
51662,176887,39365,225945
51671,176874,39358,225945
51681,176893,39360,225925
51692,176885,39351,225928
51702,176887,39349,225927
51711,176880,39352,225927
51722,176900,39359,225947
51731,176900,39349,225932
51742,176886,39352,225929
51751,176900,39350,225916
51762,176904,39333,225942
51772,176887,39357,225925
51782,176894,39358,225958
51791,176897,39360,225955
51801,176896,39363,225967
51812,176894,39364,225932
51822,176894,39355,225930
51832,176886,39356,225935
51841,176913,39358,225894
51851,176908,39352,225941
51861,176908,39347,225949
51872,176909,39326,225933
51881,176901,39355,225910
51892,176907,39339,225932
51902,176901,39358,225927
51912,176899,39341,225907
51921,176909,39335,225932
51931,176908,39340,225933
51941,176919,39341,225928
51951,176903,39351,225926
51960,176915,39353,225945
51971,176917,39330,225935
51982,176930,39358,225915
51992,176899,39351,225953
52001,176906,39337,225929
52011,176914,39336,225931
52021,176908,39326,225940
52032,176906,39336,225940
52041,176898,39338,225927
52051,176911,39338,225942
52061,176926,39334,225931
52072,176897,39330,225943
52082,176915,39333,225922
52091,176910,39341,225929
52101,176903,39332,225936
52112,176896,39333,225955
52121,176925,39321,225931
52131,176932,39328,225942
52141,176918,39341,225948
52152,176901,39340,225951
52162,176921,39337,225939
52171,176907,39341,225967
52181,176914,39312,225929
52191,176912,39334,225921
52201,176922,39328,225945
52210,176902,39308,225933
52221,176907,39327,225924
52231,176915,39339,225920
52242,176926,39318,225948
52251,176910,39326,225931
52261,176925,39324,225928
52271,176924,39322,225928
52281,176928,39312,225894
52291,176927,39324,225911
52301,176908,39339,225951
52311,176915,39345,225923
52321,176921,39303,225944
52331,176909,39340,225919
52340,176930,39325,225931
52351,176914,39331,225918
52361,176921,39315,225934
52371,176924,39331,225936
52381,176914,39316,225938
52391,176906,39333,225948
52401,176896,39326,225951
52411,176910,39309,225933
52420,176912,39333,225901
52431,176916,39312,225946
52441,176930,39283,225963
52451,176912,39313,225940
52460,176925,39317,225948
52470,176930,39320,225947
52480,176914,39326,225933
52491,176935,39304,225931
52500,176909,39289,225946
52510,176920,39305,225939
52521,176902,39325,225942
52531,176915,39321,225925
52541,176918,39332,225934
52550,176894,39337,225907
52560,176917,39307,225925
52571,176912,39303,225924
52582,176904,39294,225900
52591,176923,39310,225914
52601,176874,39315,225908
52611,176889,39310,225923
52621,176921,39308,225910
52630,176901,39315,225916
52641,176903,39313,225909
52651,176912,39319,225909
52661,176921,39294,225911
52670,176909,39298,225899
52680,176905,39323,225896
52690,176893,39305,225909
52701,176898,39299,225890
52710,176907,39301,225864
52721,176885,39297,225890
52731,176896,39296,225892
52741,176905,39279,225879
52750,176876,39300,225899
52760,176915,39292,225878
52771,176905,39300,225882
52781,176900,39284,225893
52791,176903,39286,225884
52800,176908,39300,225902
52811,176892,39286,225890
52821,176910,39294,225883
52831,176891,39284,225868
52840,176903,39302,225884
52851,176914,39286,225882
52861,176886,39282,225891
52871,176885,39287,225862
52880,176890,39301,225871
52913,176899,39270,225868
52920,176884,39275,225882
52930,176864,39276,225877
52940,176882,39284,225865
52951,176881,39281,225863
52960,176880,39285,225873
52970,176900,39278,225875
52980,176895,39261,225880
52991,176887,39262,225877
53000,176887,39259,225893
53010,176880,39258,225866
53021,176883,39243,225857
53031,176878,39263,225857
53041,176869,39247,225867
53050,176862,39252,225838
53060,176869,39263,225837
53070,176873,39263,225854
53081,176887,39236,225844
53091,176865,39262,225843
53100,176862,39267,225858
53111,176878,39255,225850
53121,176872,39271,225844
53130,176861,39273,225814
53140,176869,39260,225846
53151,176850,39259,225834
53161,176868,39262,225824
53170,176840,39255,225851
53180,176858,39233,225843
53191,176848,39266,225844
53201,176853,39254,225813
53210,176834,39256,225849
53220,176861,39231,225836
53231,176855,39258,225864
53241,176859,39251,225866
53250,176826,39256,225849
53260,176840,39240,225855
53270,176868,39245,225842
53280,176870,39257,225858
53291,176869,39255,225844
53300,176864,39224,225854
53310,176842,39251,225843
53320,176866,39238,225853
53331,176857,39237,225862
53340,176857,39251,225858
53350,176855,39260,225824
53360,176859,39230,225828
53371,176848,39253,225824
53380,176862,39244,225833
53391,176856,39251,225828
53401,176845,39235,225834
53411,176859,39237,225801
53420,176857,39229,225844
53430,176838,39245,225800
53440,176827,39245,225831
53451,176853,39231,225833
53460,176852,39262,225832
53470,176843,39234,225837
53480,176843,39244,225835
53490,176857,39236,225817
53500,176845,39231,225826
53510,176868,39220,225814
53520,176840,39230,225827
53531,176854,39230,225820
53541,176837,39241,225836
53550,176856,39226,225836
53560,176863,39237,225816
53570,176834,39206,225831
53580,176836,39216,225830
53589,176851,39214,225792
53599,176863,39208,225819
53611,176844,39195,225813
53621,176851,39210,225824
53630,176848,39224,225825
53640,176855,39218,225836
53650,176850,39219,225824
53660,176830,39224,225812
53670,176839,39201,225823
53679,176838,39220,225813
53691,176846,39192,225817
53701,176839,39211,225790
53710,176855,39204,225830
53720,176834,39193,225813
53730,176843,39210,225816
53740,176854,39217,225811
53750,176839,39206,225823
53759,176840,39204,225817
53770,176833,39187,225805
53780,176825,39191,225809
53791,176840,39200,225797
53800,176820,39192,225797
53810,176806,39203,225792
53820,176830,39191,225782
53830,176821,39196,225794
53839,176828,39183,225787
53851,176833,39179,225778
53860,176803,39192,225779
53870,176815,39201,225780
53879,176827,39188,225794
53889,176831,39198,225803
53900,176827,39195,225785
53910,176816,39197,225777
53919,176813,39172,225789
53929,176799,39196,225781
53939,176821,39194,225778
53951,176799,39193,225795
53960,176825,39189,225788
53970,176809,39188,225778
53980,176801,39192,225775
53990,176803,39170,225793
54000,176794,39196,225765
54009,176832,39200,225784
54020,176819,39199,225776
54030,176832,39200,225776
54040,176799,39198,225796
54050,176818,39187,225806
54060,176792,39190,225785
54070,176819,39179,225745
54080,176822,39178,225789
54089,176819,39191,225789
54099,176815,39197,225792
54110,176805,39180,225781
54119,176821,39194,225765
54130,176836,39184,225770
54139,176825,39200,225785
54150,176837,39185,225791
54160,176838,39191,225789
54169,176833,39190,225796
54179,176818,39192,225789
54190,176828,39206,225793
54200,176829,39194,225785
54209,176823,39200,225798
54219,176836,39198,225808
54229,176835,39214,225764
54240,176814,39207,225778
54250,176843,39211,225783
54259,176816,39189,225792
54269,176827,39203,225791
54280,176825,39208,225802
54290,176849,39203,225788
54299,176834,39210,225793
54310,176843,39203,225801
54320,176857,39196,225772
54330,176836,39191,225793
54339,176843,39195,225787
54351,176838,39194,225801
54360,176850,39194,225808
54370,176852,39196,225804
54379,176867,39182,225790
54389,176842,39203,225808
54399,176866,39204,225795
54409,176862,39186,225779
54419,176854,39190,225797
54429,176843,39190,225767
54440,176840,39173,225786
54450,176855,39172,225783
54459,176813,39173,225807
54469,176851,39195,225818
54479,176860,39172,225800
54489,176848,39191,225801
54500,176857,39179,225801
54509,176859,39183,225785
54519,176850,39192,225799
54529,176842,39179,225789
54540,176852,39182,225789
54549,176854,39182,225784
54560,176825,39190,225804
54570,176856,39181,225790
54580,176844,39193,225817
54589,176858,39180,225788
54599,176865,39184,225784
54610,176864,39180,225805
54620,176845,39169,225792
54629,176855,39183,225803
54639,176847,39198,225779
54649,176850,39195,225808
54659,176833,39199,225796
54669,176849,39169,225801
54679,176851,39189,225806
54689,176868,39184,225802
54699,176855,39179,225803
54708,176856,39197,225788
54718,176829,39194,225806
54729,176844,39168,225814
54739,176837,39187,225799
54749,176841,39183,225792
54759,176852,39193,225784
54770,176864,39188,225812
54779,176847,39182,225794
54790,176836,39186,225795
54799,176852,39171,225750
54809,176846,39190,225778
54819,176848,39180,225793
54829,176844,39199,225803
54838,176853,39196,225761
54848,176843,39192,225797
54859,176840,39183,225787
54870,176846,39171,225781
54879,176849,39185,225789
54889,176829,39190,225774
54899,176843,39183,225779
54909,176843,39185,225789
54919,176833,39185,225792
54929,176832,39190,225793
54939,176823,39195,225807
54949,176812,39194,225787
54958,176835,39199,225779
54969,176829,39196,225803
54979,176845,39198,225800
54989,176836,39188,225814
54999,176841,39192,225794
55010,176841,39206,225817
55019,176843,39195,225808
55030,176828,39189,225821
55040,176848,39200,225791
55049,176843,39193,225796
55059,176836,39206,225810
55071,176882,39182,225809
55079,176849,39202,225815
55088,176861,39196,225808
55098,176831,39198,225815
55109,176862,39190,225835
55119,176861,39200,225803
55130,176854,39189,225799
55138,176860,39187,225819
55148,176865,39201,225806
55159,176852,39187,225796
55169,176865,39190,225817
55191,176859,39193,225811
55199,176866,39176,225814
55208,176849,39202,225816
55218,176868,39190,225801
55228,176860,39197,225814
55239,176855,39211,225811
55249,176878,39195,225812
55258,176872,39185,225827
55269,176879,39199,225814
55279,176886,39202,225803
55289,176870,39193,225810
55298,176869,39190,225836
55309,176871,39199,225840
55319,176876,39204,225809
55329,176870,39204,225816
55338,176871,39193,225823
55348,176887,39198,225810
55358,176877,39189,225827
55369,176870,39192,225818
55378,176880,39196,225806
55388,176861,39210,225827
55399,176874,39203,225830
55409,176865,39202,225824
55418,176855,39198,225825
55428,176879,39213,225798
55439,176870,39191,225814
55449,176868,39198,225821
55458,176854,39196,225833
55468,176872,39207,225822
55478,176882,39189,225842
55488,176874,39210,225828
55499,176887,39190,225808
55508,176887,39207,225810
55518,176863,39200,225837
55528,176866,39210,225798
55539,176866,39205,225830
55549,176885,39189,225814
55559,176872,39201,225811
55569,176883,39203,225828
55579,176883,39202,225816
55588,176858,39199,225810
55598,176866,39206,225804
55608,176879,39188,225813
55618,176853,39205,225826
55629,176875,39206,225825
55639,176884,39194,225799
55649,176870,39188,225818
55659,176881,39194,225838
55668,176878,39206,225797
55678,176866,39207,225824
55689,176860,39211,225813
55699,176863,39209,225792
55708,176861,39213,225835
55718,176890,39215,225832
55728,176883,39203,225817
55738,176876,39199,225826
55748,176867,39210,225824
55758,176877,39191,225836
55768,176886,39219,225840
55778,176869,39196,225816
55788,176877,39212,225837
55798,176852,39199,225823
55808,176883,39199,225831
55818,176878,39203,225821
55828,176876,39209,225834
55838,176879,39198,225788
55849,176870,39195,225810
55859,176869,39213,225808
55869,176871,39206,225788
55878,176879,39190,225815
55888,176889,39201,225812
55899,176880,39198,225807
55909,176880,39202,225830
55918,176891,39204,225829
55928,176874,39207,225809
55938,176876,39183,225814
55949,176887,39205,225819
55958,176897,39194,225811
55968,176870,39192,225794
55978,176889,39214,225816
55988,176873,39206,225813
55999,176874,39186,225815
56008,176866,39203,225788
56018,176866,39206,225807
56029,176871,39201,225815
56039,176878,39200,225791
56048,176874,39190,225809
56058,176862,39201,225780
56068,176886,39192,225787
56078,176881,39186,225805
56087,176878,39209,225811
56098,176889,39192,225812
56108,176858,39204,225796
56118,176858,39192,225804
56128,176852,39192,225803
56138,176869,39198,225782
56148,176876,39191,225791
56158,176868,39178,225790
56167,176859,39182,225771
56178,176864,39183,225779
56188,176862,39178,225784
56198,176856,39192,225800
56208,176873,39175,225798
56218,176866,39187,225796
56228,176854,39179,225798
56238,176865,39183,225794
56248,176848,39181,225808
56258,176877,39198,225779
56268,176859,39180,225795
56278,176864,39183,225778
56288,176850,39190,225791
56298,176850,39192,225761
56308,176858,39176,225755
56318,176852,39187,225779
56328,176850,39167,225782
56338,176858,39188,225772
56348,176861,39181,225806
56358,176865,39184,225791
56368,176832,39183,225789
56377,176853,39190,225780
56387,176870,39198,225779
56398,176864,39185,225791
56409,176860,39184,225790
56417,176859,39191,225793
56427,176852,39189,225786
56438,176850,39185,225788
56448,176850,39189,225762
56458,176863,39187,225771
56468,176858,39171,225777
56478,176832,39186,225773
56488,176844,39189,225777
56499,176858,39167,225783
56507,176843,39175,225799
56518,176853,39184,225789
56528,176853,39185,225779
56539,176852,39185,225768
56548,176852,39174,225761
56558,176852,39176,225772
56568,176856,39180,225765
56578,176835,39189,225786
56587,176862,39178,225785
56598,176858,39183,225766
56608,176849,39185,225773
56618,176851,39181,225767
56627,176867,39196,225782
56638,176859,39189,225787
56648,176832,39186,225782
56658,176859,39196,225749
56667,176852,39185,225751
56678,176856,39186,225779
56688,176868,39182,225785
56698,176866,39203,225789
56708,176868,39190,225789
56718,176877,39177,225780
56728,176860,39189,225774
56738,176860,39186,225765
56748,176875,39183,225756
56758,176880,39178,225780
56768,176860,39200,225792
56778,176869,39187,225790
56788,176878,39189,225775
56798,176859,39186,225791
56807,176878,39186,225792
56818,176881,39186,225796
56828,176879,39172,225793
56837,176886,39174,225789
56848,176866,39178,225790
56858,176877,39182,225775
56868,176872,39171,225788
56877,176868,39173,225798
56888,176879,39168,225797
56898,176863,39174,225786
56908,176883,39184,225802
56917,176880,39163,225798
56928,176854,39170,225800
56938,176880,39160,225782
56948,176879,39176,225785
56958,176835,39167,225802
56968,176878,39161,225787
56978,176872,39180,225802
56988,176875,39169,225804
56998,176893,39166,225819
57007,176858,39176,225802
57032,176888,39167,225817
57037,176886,39167,225809
57047,176879,39158,225800
57058,176892,39169,225806
57068,176882,39177,225787
57078,176869,39174,225809
57087,176853,39178,225826
57097,176872,39181,225795
57108,176891,39154,225805
57118,176873,39167,225782
57127,176855,39167,225798
57137,176873,39176,225797
57148,176877,39142,225796
57158,176868,39172,225791
57167,176859,39176,225792
57177,176880,39173,225788
57188,176873,39147,225790
57198,176866,39173,225806
57208,176871,39177,225794
57217,176871,39167,225800
57227,176860,39161,225792
57238,176866,39178,225784
57248,176868,39154,225804
57257,176873,39171,225789
57268,176859,39164,225805
57277,176864,39173,225785
57288,176862,39158,225807
57297,176868,39180,225797
57307,176860,39163,225764
57317,176856,39179,225780
57327,176859,39164,225806
57337,176875,39157,225792
57347,176851,39172,225778
57357,176863,39174,225797
57367,176856,39164,225788
57377,176853,39163,225781
57387,176852,39155,225766
57397,176877,39177,225794
57407,176868,39167,225782
57416,176853,39181,225787
57426,176875,39166,225793
57438,176850,39156,225784
57448,176843,39172,225781
57458,176847,39166,225774
57467,176843,39184,225764
57492,176857,39157,225778
57497,176868,39169,225769
57506,176863,39177,225771
57517,176869,39164,225777
57527,176851,39150,225769
57537,176861,39145,225758
57547,176845,39167,225778
57556,176844,39166,225754
57567,176846,39159,225773
57577,176841,39151,225767
57586,176848,39170,225732
57597,176834,39158,225752
57608,176857,39154,225769
57617,176847,39163,225760
57627,176843,39150,225749
57637,176849,39151,225750
57647,176835,39157,225744
57658,176823,39158,225758
57667,176840,39153,225738
57677,176842,39138,225744
57687,176844,39140,225748
57697,176851,39157,225752
57707,176845,39156,225747
57716,176832,39132,225760
57727,176826,39149,225763
57738,176828,39152,225734
57748,176841,39156,225720
57757,176825,39137,225748
57767,176858,39156,225698
57777,176835,39148,225719
57787,176829,39150,225726
57797,176837,39148,225730
57807,176837,39149,225709
57817,176835,39151,225726
57827,176824,39162,225741
57837,176810,39145,225743
57847,176838,39141,225735
57857,176804,39150,225730
57867,176834,39137,225733
57877,176811,39148,225742
57887,176831,39141,225730
57897,176823,39151,225747
57907,176817,39135,225713
57916,176809,39139,225730
57927,176833,39139,225729
57936,176827,39140,225745
57947,176820,39138,225735
57958,176826,39141,225745
57967,176834,39133,225705
57977,176830,39141,225716
57987,176819,39146,225738
57997,176822,39148,225723
58006,176829,39148,225722
58017,176825,39133,225729
58027,176836,39143,225719
58037,176819,39149,225721
58047,176837,39146,225730
58057,176819,39143,225703
58067,176821,39151,225732
58077,176832,39144,225735
58086,176809,39165,225734
58096,176829,39152,225722
58106,176832,39146,225746
58117,176838,39151,225757
58127,176823,39145,225731
58136,176829,39145,225718
58151,176840,39168,225752
58157,176834,39155,225736
58166,176848,39156,225753
58177,176831,39153,225760
58187,176849,39160,225720
58197,176829,39172,225745
58207,176827,39154,225730
58216,176842,39157,225739
58226,176824,39186,225739
58236,176851,39156,225721
58247,176853,39167,225736
58256,176846,39164,225742
58266,176832,39174,225755
58277,176844,39165,225742
58287,176850,39173,225733
58297,176838,39164,225753
58307,176857,39157,225723
58317,176830,39167,225754
58327,176837,39149,225749
58336,176843,39169,225747
58346,176852,39168,225736
58356,176857,39158,225747
58366,176845,39173,225716
58376,176855,39168,225754
58386,176864,39174,225725
58396,176846,39165,225750
58407,176855,39159,225742
58416,176867,39153,225760
58426,176867,39161,225733
58437,176854,39176,225736
58447,176858,39171,225752
58457,176863,39156,225747
58466,176856,39175,225754
58476,176865,39161,225763
58486,176868,39169,225742
58497,176855,39162,225749
58506,176872,39172,225755
58516,176847,39175,225756
58526,176863,39166,225765
58537,176856,39165,225750
58546,176866,39168,225742
58556,176874,39175,225780
58566,176870,39159,225748
58577,176858,39190,225766
58586,176875,39157,225758
58596,176850,39166,225772
58607,176868,39176,225768
58616,176871,39178,225749
58626,176883,39167,225758
58636,176884,39168,225762
58646,176869,39184,225721
58657,176866,39181,225764
58666,176876,39167,225765
58676,176874,39195,225753
58686,176881,39175,225765
58697,176885,39187,225783
58707,176849,39192,225771
58716,176878,39185,225737
58727,176868,39188,225767
58736,176888,39182,225763
58747,176885,39164,225766
58756,176883,39186,225791
58766,176879,39187,225756
58776,176888,39176,225785
58786,176896,39172,225784
58812,176894,39181,225786
58816,176889,39193,225784
58826,176932,39196,225788
58836,176903,39198,225816
58846,176887,39196,225788
58856,176884,39190,225802
58867,176893,39180,225793
58876,176916,39203,225794
58886,176899,39202,225798
58896,176904,39199,225781
58906,176911,39211,225798
58916,176910,39185,225791
58926,176901,39215,225805
58936,176914,39196,225789
58946,176910,39201,225771
58957,176910,39211,225803
58966,176914,39192,225813
58976,176899,39207,225778
58986,176914,39207,225796
58996,176894,39219,225807
59005,176921,39219,225799
59016,176907,39204,225802
59027,176905,39210,225800
59036,176920,39211,225789
59046,176917,39222,225813
59056,176927,39214,225789
59066,176915,39225,225815
59077,176932,39216,225804
59086,176938,39219,225801
59096,176919,39222,225830
59106,176926,39211,225792
59116,176927,39216,225805
59125,176924,39215,225819
59135,176903,39230,225822
59145,176929,39227,225833
59156,176941,39223,225814
59166,176940,39213,225815
59176,176928,39233,225822
59186,176910,39227,225799
59196,176937,39225,225806
59206,176937,39222,225789
59216,176932,39213,225814
59226,176929,39225,225822
59236,176914,39230,225842
59247,176923,39209,225822
59256,176927,39228,225811
59266,176935,39216,225802
59276,176934,39213,225819
59286,176937,39235,225834
59295,176936,39235,225828
59305,176952,39235,225807
59315,176938,39221,225816
59326,176955,39221,225826
59335,176942,39219,225809
59345,176949,39222,225841
59373,176954,39220,225833
59375,176956,39238,225834
59385,176916,39237,225887
59396,176937,39229,225814
59406,176921,39238,225822
59416,176936,39225,225809
59425,176930,39232,225832
59435,176947,39228,225812
59445,176947,39233,225808
59456,176958,39224,225817
59466,176939,39219,225804
59475,176931,39240,225811
59486,176945,39226,225809
59496,176935,39242,225802
59505,176945,39226,225804
59516,176914,39230,225826
59526,176910,39235,225810
59536,176935,39231,225821
59545,176928,39227,225810
59555,176919,39245,225799
59565,176929,39222,225818
59576,176945,39249,225827
59585,176935,39240,225794
59596,176932,39240,225797
59606,176947,39246,225811
59616,176920,39238,225814
59630,176934,39239,225803
59636,176929,39222,225802
59646,176935,39232,225799
59655,176917,39242,225813
59666,176915,39238,225807
59675,176944,39233,225775
59686,176936,39206,225822
59696,176929,39232,225780
59706,176937,39237,225810
59716,176914,39232,225806
59726,176918,39250,225777
59736,176928,39244,225799
59746,176915,39243,225774
59772,176914,39237,225789
59775,176929,39229,225784
59785,176926,39234,225818
59795,176934,39220,225781
59806,176922,39245,225786
59815,176934,39237,225808
59826,176927,39228,225792
59835,176921,39248,225773
59845,176940,39226,225793
59856,176919,39249,225795
59866,176921,39249,225779
59875,176908,39251,225805
59885,176918,39234,225771
59895,176932,39231,225763
59905,176910,39236,225776
59916,176928,39244,225757
59925,176907,39237,225774
59935,176930,39239,225759
59945,176914,39234,225782
59956,176916,39245,225787
59965,176901,39245,225777
59975,176918,39232,225788
59985,176912,39241,225779
59996,176907,39222,225774
60005,176913,39219,225787
60015,176901,39219,225775
60025,176923,39221,225781
60035,176911,39217,225761
60044,176924,39231,225781
60055,176930,39231,225762
60066,176916,39240,225781
60075,176919,39225,225773
60085,176926,39208,225769
60095,176911,39223,225761
60106,176928,39215,225766
60116,176904,39211,225745
60125,176896,39217,225745
60135,176906,39215,225759
60151,176903,39221,225728
60155,176913,39219,225760
60165,176943,39229,225733
60175,176899,39234,225754
60185,176904,39220,225765
60195,176906,39200,225742
60206,176897,39209,225749
60215,176906,39227,225731
60225,176918,39225,225738
60235,176874,39223,225762
60245,176901,39217,225751
60254,176901,39212,225756
60265,176887,39218,225766
60276,176900,39222,225772
60286,176899,39202,225751
60295,176894,39218,225764
60305,176885,39230,225731
60316,176856,39228,225737
60326,176896,39222,225759
60335,176889,39220,225748
60345,176892,39216,225745
60355,176891,39214,225753
60366,176884,39214,225738
60375,176897,39222,225749
60385,176890,39213,225749
60395,176882,39212,225740
60405,176875,39217,225718
60415,176890,39204,225743
60425,176889,39214,225749
60435,176887,39218,225744
60445,176898,39213,225746
60455,176899,39216,225732
60464,176893,39205,225728
60475,176879,39226,225746
60485,176889,39209,225736
60495,176870,39220,225763
60505,176871,39212,225743
60514,176865,39218,225713
60525,176871,39229,225726
60535,176887,39218,225714
60545,176860,39210,225755
60555,176875,39220,225726
60565,176841,39230,225742
60575,176861,39220,225735
60584,176861,39224,225745
60594,176876,39212,225730
60605,176862,39214,225732
60616,176867,39206,225746
60625,176889,39229,225724
60635,176846,39222,225745
60645,176876,39233,225730
60655,176859,39206,225738
60665,176867,39224,225699
60675,176877,39222,225735
60685,176876,39215,225739
60695,176880,39219,225732
60705,176865,39223,225733
60715,176877,39211,225741
60725,176869,39204,225743
60735,176871,39219,225739
60745,176891,39225,225713
60754,176882,39201,225734
60765,176865,39219,225725
60775,176883,39212,225725
60785,176862,39217,225743
60794,176867,39219,225726
60804,176877,39223,225705
60815,176886,39210,225732
60825,176884,39211,225714
60834,176864,39230,225719
60844,176844,39224,225722
60855,176876,39207,225719
60865,176861,39197,225707
60875,176856,39204,225718
60885,176875,39203,225721
60895,176871,39211,225715
60905,176874,39204,225712
60915,176875,39197,225711
60924,176859,39221,225706
60934,176869,39203,225706
60945,176863,39211,225725
60955,176855,39209,225701
60964,176859,39207,225691
60975,176839,39206,225706
60985,176866,39220,225681
60995,176857,39216,225684
61004,176854,39200,225673
61014,176861,39212,225691
61024,176852,39189,225684
61035,176849,39203,225691
61044,176852,39206,225689
61054,176864,39183,225693
61065,176856,39207,225695
61074,176859,39209,225669
61084,176851,39188,225691
61094,176834,39205,225689
61105,176840,39212,225702
61115,176857,39203,225677
61125,176833,39209,225673
61134,176823,39212,225713
61144,176816,39213,225691
61155,176852,39213,225697
61165,176828,39212,225693
61174,176846,39226,225667
61184,176833,39203,225679
61194,176851,39201,225693
61205,176818,39215,225696
61214,176816,39191,225682
61225,176855,39208,225674
61235,176844,39211,225696
61245,176836,39219,225682
61254,176855,39205,225683
61264,176845,39219,225661
61274,176835,39221,225682
61284,176840,39209,225691
61293,176845,39195,225680
61304,176864,39194,225691
61315,176838,39214,225673
61325,176839,39205,225673
61334,176839,39199,225692
61344,176847,39205,225671
61354,176833,39206,225679
61364,176830,39202,225676
61374,176846,39214,225679
61384,176845,39184,225694
61394,176838,39195,225680
61404,176836,39196,225696
61415,176840,39207,225687
61424,176838,39206,225656
61434,176827,39213,225701
61444,176827,39210,225695
61455,176830,39214,225700
61464,176847,39218,225680
61474,176810,39224,225682
61484,176855,39213,225702
61495,176846,39206,225720
61504,176839,39213,225689
61514,176827,39228,225701
61524,176864,39219,225656
61535,176844,39209,225715
61544,176850,39210,225694
61553,176846,39228,225694
61564,176844,39217,225709
61575,176851,39205,225697
61584,176846,39214,225708
61594,176867,39220,225682
61604,176837,39234,225686
61614,176850,39225,225668
61624,176844,39217,225672
61634,176856,39226,225710
61644,176867,39215,225692
61654,176839,39234,225698
61664,176844,39216,225668
61674,176852,39208,225683
61684,176847,39217,225672
61694,176847,39222,225684
61704,176827,39211,225673
61714,176849,39225,225689
61724,176843,39214,225685
61734,176845,39225,225685
61745,176833,39223,225709
61754,176850,39225,225666
61764,176861,39222,225684
61774,176844,39228,225683
61784,176827,39228,225666
61794,176842,39237,225668
61804,176837,39230,225689
61814,176843,39230,225653
61824,176852,39220,225664
61834,176868,39206,225672
61844,176839,39230,225678
61854,176840,39226,225685
61864,176842,39227,225681
61875,176857,39225,225680
61884,176821,39235,225680
61894,176840,39224,225671
61904,176849,39221,225660
61914,176856,39245,225657
61923,176858,39224,225669
61934,176857,39218,225661
61944,176857,39245,225665
61955,176862,39235,225675
61964,176867,39227,225672
61974,176831,39243,225674
61984,176832,39233,225680
61994,176847,39244,225690
62003,176839,39226,225661
62014,176842,39234,225665
62024,176841,39231,225662
62034,176857,39243,225673
62044,176857,39231,225679
62054,176850,39228,225675
62064,176849,39220,225673
62074,176850,39249,225691
62083,176813,39239,225641
62094,176831,39242,225676
62104,176870,39237,225659
62114,176854,39221,225685
62124,176839,39249,225661
62134,176834,39240,225692
62144,176849,39240,225642
62154,176839,39247,225667
62164,176828,39246,225658
62173,176853,39243,225679
62184,176824,39251,225697
62193,176841,39244,225661
62204,176883,39239,225666
62213,176852,39249,225680
62223,176855,39257,225697
62252,176867,39248,225681
62254,176860,39246,225692
62264,176854,39237,225692
62273,176853,39245,225697
62283,176861,39255,225682
62293,176856,39246,225684
62304,176837,39259,225689
62313,176858,39253,225668
62324,176860,39271,225692
62333,176873,39256,225680
62344,176892,39239,225700
62354,176867,39259,225702
62364,176877,39245,225707
62374,176858,39262,225709
62383,176842,39260,225701
62393,176874,39261,225692
62403,176875,39270,225710
62414,176867,39244,225701
62424,176891,39264,225701
62433,176861,39262,225670
62444,176853,39259,225705
62454,176864,39262,225668
62463,176848,39267,225703
62474,176873,39257,225699
62484,176859,39265,225702
62494,176874,39261,225684
62503,176873,39267,225686
62513,176880,39257,225713
62523,176879,39264,225702
62534,176882,39251,225701
62543,176834,39262,225670
62553,176887,39246,225708
62564,176886,39276,225701
62574,176881,39270,225693
62583,176877,39267,225673
62593,176869,39259,225672
62603,176859,39260,225668
62614,176874,39276,225683
62624,176854,39267,225689
62633,176883,39257,225698
62643,176863,39262,225700
62653,176886,39239,225676
62664,176861,39254,225700
62673,176874,39263,225690
62683,176874,39264,225696
62694,176880,39252,225692
62704,176848,39266,225688
62713,176865,39244,225668
62723,176850,39275,225705
62733,176838,39254,225681
62744,176896,39249,225684
62753,176851,39259,225672
62763,176863,39257,225681
62773,176865,39254,225686
62783,176895,39240,225679
62793,176859,39261,225671
62803,176858,39269,225680
62813,176862,39251,225681
62824,176861,39249,225667
62833,176849,39262,225662
62843,176865,39247,225663
62853,176870,39244,225676
62863,176871,39263,225669
62874,176842,39254,225660
62883,176853,39259,225668
62893,176854,39246,225666
62904,176863,39253,225675
62913,176855,39240,225676
62923,176847,39261,225686
62933,176852,39237,225665
62944,176852,39258,225683
62953,176848,39252,225676
62963,176873,39251,225668
62973,176835,39230,225667
62983,176818,39236,225648
62994,176824,39237,225664
63003,176831,39246,225664
63013,176836,39237,225665
63023,176847,39242,225676
63033,176832,39247,225621
63042,176838,39245,225674
63052,176835,39228,225659
63063,176837,39234,225664
63073,176834,39248,225627
63083,176839,39242,225664
63093,176830,39240,225686
63103,176851,39252,225665
63113,176828,39235,225656
63124,176833,39249,225693
63133,176819,39244,225655
63143,176821,39237,225670
63153,176804,39246,225666
63163,176827,39239,225622
63173,176823,39241,225651
63183,176813,39250,225664
63193,176818,39252,225661
63203,176820,39246,225661
63212,176824,39251,225653
63222,176812,39254,225655
63233,176807,39249,225671
63243,176827,39247,225671
63253,176822,39240,225660
63263,176815,39237,225659
63273,176813,39265,225646
63283,176822,39238,225646
63292,176814,39248,225653
63303,176814,39257,225663
63312,176818,39241,225651
63323,176838,39228,225650
63333,176823,39249,225660
63343,176816,39237,225671
63353,176807,39238,225646
63363,176832,39228,225655
63373,176825,39244,225637
63382,176809,39239,225620
63392,176823,39221,225649
63403,176822,39236,225628
63413,176810,39235,225622
63422,176805,39225,225630
63433,176805,39224,225654
63443,176818,39226,225655
63453,176826,39239,225627
63462,176817,39240,225655
63472,176816,39227,225647
63483,176814,39208,225646
63493,176807,39219,225640
63502,176803,39224,225645
63513,176815,39227,225642
63523,176808,39224,225638
63533,176805,39234,225631
63542,176798,39226,225632
63552,176798,39217,225637
63563,176801,39223,225630
63573,176794,39233,225626
63583,176780,39221,225636
63592,176798,39218,225633
63603,176792,39216,225637
63613,176798,39223,225633
63623,176780,39214,225612
63632,176806,39208,225637
63642,176785,39215,225619
63653,176812,39231,225659
63663,176795,39222,225596
63672,176806,39215,225651
63682,176793,39218,225610
63692,176794,39205,225634
63703,176792,39210,225643
63712,176795,39222,225618
63722,176801,39204,225626
63733,176796,39219,225616
63743,176792,39224,225591
63752,176785,39216,225617
63762,176773,39228,225574
63772,176771,39207,225634
63783,176784,39212,225631
63792,176782,39222,225621
63802,176775,39205,225600
63812,176759,39200,225628
63822,176775,39203,225620
63833,176781,39207,225620
63842,176756,39206,225631
63852,176774,39187,225617
63863,176767,39187,225604
63873,176765,39202,225616
63882,176765,39207,225639
63892,176773,39197,225618
63902,176785,39237,225608
63912,176778,39212,225618
63922,176782,39209,225609
63932,176773,39208,225598
63943,176743,39183,225594
63953,176750,39200,225593
63962,176743,39205,225603
63972,176769,39203,225604
63982,176766,39209,225577
63992,176745,39202,225595
64002,176771,39209,225596
64012,176750,39187,225577
64022,176728,39183,225561
64033,176753,39193,225596
64042,176739,39212,225573
64052,176735,39199,225558
64062,176726,39223,225587
64072,176707,39208,225569
64082,176750,39201,225595
64092,176742,39191,225576
64102,176720,39206,225572
64112,176725,39195,225540
64123,176720,39198,225521
64132,176699,39199,225530
64142,176695,39192,225524
64153,176665,39188,225501
64163,176670,39207,225486
64172,176667,39186,225442
64182,176641,39190,225429
64192,176643,39192,225439
64202,176638,39182,225415
64212,176652,39189,225423
64222,176618,39192,225378
64232,176627,39188,225400
64242,176618,39195,225389
64251,176628,39173,225386
64262,176647,39183,225368
64272,176613,39174,225342
64282,176621,39181,225330
64292,176625,39190,225318
64302,176610,39191,225303
64312,176629,39182,225323
64322,176646,39189,225257
64332,176651,39191,225288
64342,176561,39183,225156
64351,176446,39160,225013
64362,176331,39133,224913
64373,176211,39117,224899
64382,176161,39112,224887
64392,176059,39110,224859
64402,175978,39142,224804
64412,175841,39174,224753
64421,175739,39253,224747
64432,175671,39336,224771
64442,175678,39359,224819
64452,175636,39437,224809
64461,175567,39449,224754
64472,175533,39466,224720
64482,175481,39474,224709
64492,175410,39480,224617
64501,175315,39514,224588
64511,175236,39467,224570
64522,175187,39495,224604
64532,175194,39493,224686
64542,175169,39487,224668
64552,175120,39517,224608
64562,175070,39510,224532
64572,174947,39511,224392
64582,174817,39484,224280
64635,174962,39541,224377
64642,174825,39531,224255
64652,174533,39487,223914
64662,174223,39477,223610
64671,174065,39469,223622
64682,173977,39454,223671
64692,174052,39475,223840
64711,174260,39492,224036
64756,174918,39598,224238
64762,175026,39622,224316
64772,175147,39620,224420
64791,175244,39645,224509
64792,175352,39648,224601
64801,175406,39650,224601
64812,175490,39686,224664
64822,175551,39688,224678
64832,175625,39702,224753
64841,175665,39713,224790
64851,175701,39726,224811
64861,175833,39742,224875
64872,175883,39761,224889
64882,175920,39754,224893
64892,176000,39775,224973
64902,176084,39812,225060
64913,176159,39829,225118
64921,176248,39836,225172
64932,176321,39840,225223
64942,176360,39875,225228
64952,176360,39885,225182
64971,176293,39897,225139
64973,176208,39905,225014
64981,176069,39914,224875
64992,175968,39913,224791
65011,175959,39926,224762
65013,176049,39943,224840
65033,176131,39969,224831
65163,175723,39937,223386
65241,177173,39970,222905
65273,176554,39976,221769
65281,176309,39951,221353
65291,176042,39954,220955
65301,175805,39936,220605
65311,175609,39935,220253
65322,175338,39914,219881
65332,174951,39869,219360
65341,174644,39898,218944
65351,174422,39890,218648
65361,174276,39902,218303
65372,174029,39856,217949
65381,173764,39798,217503
65391,173479,39804,217071
65401,173164,39800,216627
65411,172939,39745,216339
65420,172869,39734,216187
65431,172829,39712,216023
65441,172782,39716,215927
65452,172865,39740,215924
65461,172971,39768,215913
65471,173013,39768,215864
65481,173064,39791,215739
65491,173017,39785,215592
65500,172955,39771,215358
65510,172837,39756,215110
65521,172682,39725,214808
65532,172527,39725,214580
65541,172412,39687,214364
65551,172295,39690,214190
65561,172235,39699,214020
65571,172145,39699,213858
65581,172065,39678,213714
65591,171991,39668,213555
65601,171916,39664,213409
65611,171827,39664,213303
65621,171765,39667,213173
65631,171694,39634,213077
65641,171633,39626,212921
65651,171564,39617,212559
65662,171477,39605,212439
65671,171389,39584,212328
65681,171326,39587,212236
65691,171271,39603,212177
65701,171238,39577,212115
65710,171183,39571,212043
65721,171162,39560,211983
65732,171151,39584,211943
65742,171099,39567,211918
65751,171073,39588,211837
65761,171066,39575,211829
65771,171036,39586,211771
65781,170993,39586,211745
65791,170956,39599,211699
65801,170939,39584,211635
65811,170901,39583,211599
65821,170867,39564,211550
65831,170790,39525,211499
65840,170727,39507,211463
65851,170691,39482,211473
65861,170641,39470,211503
65871,170528,39467,211493
65880,170437,39447,211546
65890,170355,39429,211553
65900,170266,39399,211557
65911,170174,39415,211630
65921,170135,39466,211772
65931,170228,39486,212048
65941,170382,39541,212467
65951,170571,39568,212871
65960,170796,39626,213290
65970,171045,39671,213708
65980,171272,39680,214051
65991,171508,39714,214438
66000,171795,39750,214892
66011,172174,39807,215398
66021,172479,39878,215852
66031,172782,39892,216321
66041,173101,39925,216788
66050,173338,39975,217115
66060,173540,39991,217368
66071,173628,39980,217566
66081,173699,39967,217743
66091,173683,39953,217861
66101,173787,39926,218141
66111,173917,39951,218500
66121,174085,39943,218741
66131,174146,39970,218895
66141,174106,39935,218873
66151,174070,39925,218924
66161,173984,39864,218919
66170,173956,39876,219096
66180,174053,39893,219413
66191,174288,39932,219928
66201,174702,39994,220482
66210,174981,40043,220812
66220,175224,40044,221136
66231,175364,40089,221352
66241,175324,40087,221282
66251,175318,40068,221329
66261,175363,40091,221407
66271,175313,40077,221347
66281,175184,40088,221211
66291,175123,40054,221146
66301,175112,40041,221205
66311,175155,40058,221244
66321,175132,40066,221217
66331,175145,40070,221236
66340,175170,40069,221252
66350,175148,40065,221262
66360,175111,40053,221263
66371,175120,40043,221276
66380,175100,40054,221244
66391,175086,40040,221230
66401,175033,40050,221222
66411,175001,40030,221174
66420,174934,39988,221107
66430,174903,39985,221092
66440,174880,40019,221054
66451,174841,39997,221044
66460,174833,39997,221035
66470,174820,39988,221027
66480,174819,39974,221017
66491,174834,39978,221051
66500,174826,39970,221039
66511,174795,39978,221001
66520,174778,39973,221012
66531,174793,39967,221015
66541,174809,39975,221029
66551,174805,39959,221036
66560,174831,39969,221086
66571,174885,39958,221141
66580,174949,39980,221179
66590,175023,39970,221305
66600,175109,40010,221386
66610,175207,40008,221510
66632,175399,40022,221653
66640,175459,40039,221717
66651,175472,40038,221754
66660,175493,40037,221714
66669,175463,40028,221649
66680,175463,40038,221552
66690,175403,40035,221438
66700,175353,40015,221270
66709,175183,40014,220997
66720,175008,40009,220635
66731,174772,39975,220190
66741,174509,39971,219728
66750,174249,39951,219220
66760,173978,39937,218769
66770,173748,39930,218292
66780,173491,39925,217841
66834,172751,39929,215964
66839,172653,39906,215709
66851,172597,39880,215506
66861,172577,39876,215304
66871,172388,39841,214895
66880,172223,39841,214646
66890,172176,39810,214407
66900,171990,39792,214118
66911,171922,39750,213910
66920,171913,39782,213797
66930,171853,39773,213718
66940,171885,39775,213623
66950,171895,39775,213530
66960,171840,39755,213450
66970,171792,39740,213329
66980,171745,39750,213246
66991,171706,39739,213149
67000,171660,39731,213092
67010,171658,39714,213045
67020,171640,39728,212994
67030,171645,39735,212959
67041,171628,39718,212935
67050,171639,39735,212925
67060,171626,39727,212912
67070,171642,39726,212890
67080,171638,39737,212878
67089,171622,39727,212864
67100,171606,39713,212810
67110,171565,39695,212719
67120,171508,39681,212708
67129,171495,39682,212650
67139,171486,39669,212635
67151,171483,39676,212626
67161,171484,39670,212612
67170,171495,39689,212607
67180,171464,39679,212620
67190,171463,39681,212606
67200,171477,39687,212547
67210,171446,39679,212567
67220,171436,39672,212494
67230,171422,39645,212474
67240,171402,39639,212492
67250,171383,39641,212465
67259,171335,39622,212443
67271,171287,39589,212433
67280,171259,39561,212403
67291,171178,39536,212429
67300,171084,39484,212394
67310,170894,39465,212338
67320,170684,39453,212286
67330,170680,39466,212428
67339,170711,39485,212626
67351,170762,39492,212807
67360,170815,39531,213008
67370,170845,39528,213106
67379,170888,39554,213293
67389,170985,39560,213444
67399,170935,39569,213504
67411,170962,39542,213617
67420,170970,39567,213758
67430,171067,39588,213995
67440,171274,39624,214380
67450,171602,39693,214872
67459,171969,39738,215325
67469,172301,39782,215780
67480,172601,39789,216177
67490,172890,39845,216524
67500,173138,39887,216902
67509,173443,39913,217280
67520,173710,39927,217646
67530,173894,39929,217952
67540,174048,39963,218240
67549,174233,39951,218585
67559,174482,39980,218904
67569,174718,40013,219211
67579,174894,39999,219435
67589,175002,39999,219613
67599,175093,40000,219862
67609,175197,40014,220106
67620,175324,40025,220358
67630,175405,40012,220602
67639,175497,40024,220829
67650,175648,40016,221161
67660,175812,40024,221463
67671,175865,40032,221588
67679,175911,40022,221697
67690,175883,40011,221735
67700,175859,39996,221800
67709,175844,40000,221928
67719,175861,39994,222010
67729,175841,39987,222010
67739,175779,39992,221938
67750,175723,39987,221862
67759,175700,39991,221880
67770,175654,39980,221886
67780,175636,39980,221895
67790,175578,39980,221803
67799,175490,39965,221710
67809,175411,39959,221599
67820,175323,39934,221492
67832,175249,39949,221410
67839,175224,39931,221419
67849,175190,39922,221388
67859,175178,39936,221360
67869,175129,39933,221286
67879,175080,39920,221284
67889,175097,39926,221301
67899,175063,39941,221321
67910,175091,39951,221421
67919,175156,39966,221481
67929,175215,39979,221587
67939,175286,39977,221651
67950,175362,39984,221738
67959,175427,39997,221846
67969,175531,40009,221976
67979,175626,40031,222070
67989,175684,40023,222138
67999,175749,40002,222245
68009,175820,40015,222288
68020,175867,40030,222326
68030,175902,40025,222302