timestamp,red,green,ir
15822,165041,37056,213725
15832,165048,37051,213713
15841,165024,37051,213726
15856,165029,37028,213699
15920,165019,37028,213707
16005,165022,37012,213711
16016,165011,36985,213683
16020,165012,36993,213698
16031,165043,36974,213679
16167,164986,36969,213678
16177,164977,36940,213656
16180,164988,36969,213695
16190,164988,36969,213694
16201,164968,36974,213673
16211,164962,36958,213672
16221,164978,36969,213649
16231,164969,36972,213681
16241,164978,36971,213655
16255,164972,36957,213658
16345,164941,36953,213638
16350,164915,36966,213597
16360,164946,36929,213614
16371,164945,36939,213614
16380,164935,36930,213617
16391,164915,36942,213631
16400,164926,36953,213629
16411,164934,36936,213621
16420,164930,36941,213623
16430,164918,36934,213628
16441,164924,36944,213630
16451,164919,36945,213636
16460,164907,36938,213659
16470,164942,36929,213650
16521,164956,36941,213694
16531,164957,36905,213697
16540,164965,36924,213699
16578,164968,36910,213722
16597,164957,36924,213719
16618,164954,36913,213797
16621,164985,36902,213735
16630,164951,36897,213743
16640,164985,36892,213734
16651,164968,36912,213736
16661,164983,36910,213722
16781,164968,36879,213755
16783,164959,36875,213760
16795,164927,36896,213759
16800,164968,36877,213760
16810,164993,36865,213759
16820,164969,36855,213739
16836,164948,36866,213739
16840,164960,36871,213769
16850,164955,36858,213730
16861,164954,36859,213760
16871,164954,36861,213760
16880,164964,36858,213766
16896,164963,36865,213746
16900,164958,36854,213776
16911,164945,36842,213729
16919,164952,36848,213776
16930,164954,36849,213760
16940,164965,36847,213768
16950,164953,36850,213755
17022,164950,36837,213771
17024,164951,36841,213780
17030,164970,36844,213729
17041,164943,36839,213755
17050,164942,36813,213768
17060,164954,36838,213770
17077,164965,36834,213749
17080,164952,36847,213768
17090,164913,36824,213752
17100,164955,36822,213762
17116,164934,36838,213759
17120,164956,36822,213768
17137,164911,36814,213733
17139,164933,36814,213758
17150,164931,36824,213729
17220,164921,36817,213750
17281,164906,36799,213724
17322,164896,36801,213721
17330,164870,36799,213662
17339,164901,36808,213709
17378,164892,36795,213714
17491,164867,36797,213662
17562,164797,36780,213554
17564,164786,36784,213538
17642,164755,36774,213448
17644,164780,36785,213467
17649,164757,36792,213429
17660,164769,36784,213480
17698,164744,36782,213436
17701,164751,36795,213431
17709,164742,36787,213387
17719,164739,36798,213398
17729,164759,36820,213413
17740,164754,36770,213403
17750,164730,36779,213389
17759,164715,36794,213362
17770,164703,36800,213361
17780,164738,36795,213363
17796,164720,36785,213366
17799,164736,36790,213366
17809,164722,36790,213369
17820,164704,36799,213354
17903,164801,36807,213540
17985,164923,36837,213826
18083,165047,36847,214080
18097,165078,36861,214118
18099,165110,36859,214153
18117,165096,36887,214172
18138,165127,36865,214195
18140,165116,36853,214198
18149,165114,36868,214216
18160,165119,36845,214241
18169,165129,36869,214221
18179,165114,36854,214229
18189,165117,36860,214243
18199,165118,36853,214205
18208,165107,36850,214221
18219,165105,36851,214203
18229,165117,36862,214180
18239,165100,36869,214189
18256,165110,36832,214176
18258,165107,36867,214178
18269,165101,36832,214115
18296,165093,36837,214136
18317,165081,36851,214090
18320,165044,36856,214086
18330,165029,36848,214055
18339,165050,36848,214049
18401,165056,36845,214045
18403,165038,36838,214036
18409,165044,36844,214001
18418,165024,36860,214033
18429,165045,36842,214019
18439,165053,36858,213991
18449,165020,36853,214039
18459,165064,36851,214010
18469,165025,36858,214016
18479,165060,36838,214021
18489,165028,36855,214015
18499,165037,36837,213985
18508,165037,36853,213980
18519,165031,36852,213967
18529,165019,36841,213962
18539,165028,36858,213961
18549,165031,36841,213965
18559,165024,36846,213944
18569,165046,36852,213942
18579,165035,36858,213914
18588,165015,36856,213937
18599,165002,36834,213946
18609,165026,36846,213932
18619,165034,36846,213933
18629,165018,36841,213927
18638,165021,36851,213925
18649,165025,36851,213926
18659,165023,36858,213918
18668,165037,36826,213936
18678,165039,36849,213910
18688,165038,36844,213935
18699,165055,36845,213926
18708,165010,36864,213945
18718,165035,36855,213936
18728,165034,36851,213927
18739,165047,36845,213930
18749,165038,36850,213933
18758,165037,36840,213933
18769,165054,36839,213948
18779,165050,36858,213941
18789,165037,36868,213942
18798,165039,36844,213952
18808,165054,36849,213947
18819,165045,36856,213912
18829,165033,36838,213950
18838,165042,36867,213947
18848,165033,36854,213960
18858,165064,36850,213963
18868,165058,36862,213968
18878,165055,36856,213955
18888,165048,36857,213963
18898,165039,36843,213954
18909,165056,36862,213950
18918,165058,36851,213960
18929,165072,36860,213955
18938,165062,36862,213956
18949,165073,36867,213965
18958,165076,36860,213950
18968,165040,36862,213949
18979,165060,36868,213963
18989,165041,36878,213915
18999,165056,36858,213976
19008,165070,36869,213972
19018,165057,36876,213952
19028,165074,36857,213954
19039,165068,36872,213932
19048,165067,36857,213965
19058,165063,36857,213959
19069,165058,36876,213977
19078,165059,36869,213944
19088,165059,36867,213944
19098,165068,36873,213975
19108,165059,36870,213970
19119,165046,36883,213946
19128,165066,36874,213973
19138,165073,36874,213959
19148,165030,36876,213977
19158,165059,36871,213987
19168,165070,36866,214000
19178,165077,36870,213991
19189,165052,36867,213982
19199,165069,36869,214003
19238,165077,36869,213993
19241,165092,36875,214006
19249,165067,36868,214010
19258,165066,36867,213972
19268,165055,36884,213999
19278,165078,36865,213992
19289,165060,36867,213997
19297,165082,36852,214017
19308,165066,36854,213994
19319,165058,36866,213995
19329,165067,36871,213978
19338,165074,36861,213982
19348,165079,36861,213984
19358,165069,36862,213969
19369,165078,36860,213972
19378,165069,36857,213979
19388,165074,36876,213976
19398,165087,36881,213944
19408,165054,36861,213987
19417,165073,36843,213968
19428,165058,36843,213943
19438,165055,36850,213965
19448,165080,36855,213936
19458,165046,36871,213965
19468,165057,36868,213960
19478,165068,36866,213940
19488,165055,36852,213950
19498,165060,36866,213961
19507,165051,36859,213926
19518,165041,36854,213931
19528,165058,36869,213937
19539,165042,36837,213923
19548,165056,36863,213920
19558,165041,36842,213930
19568,165054,36869,213910
19578,165059,36857,213941
19587,165034,36849,213928
19598,165052,36838,213941
19617,165046,36848,213929
19619,165060,36832,213928
19627,165063,36822,213945
19638,165050,36851,213945
19648,165048,36847,213960
19658,165036,36857,213961
19667,165060,36845,213978
19678,165046,36839,213966
19688,165046,36859,213970
19698,165057,36838,213984
19708,165045,36834,213955
19717,165049,36855,214001
19727,165069,36855,214012
19738,165052,36843,214035
19748,165069,36845,214021
19757,165056,36845,214032
19767,165074,36859,214015
19778,165058,36850,214042
19788,165078,36848,214048
19798,165071,36854,214045
19808,165097,36865,214033
19818,165081,36859,214069
19828,165077,36870,214063
19837,165069,36875,214059
19847,165088,36878,214068
19858,165065,36866,214056
19868,165093,36874,214062
19877,165093,36846,214087
19888,165080,36851,214067
19898,165083,36880,214077
19908,165091,36874,214076
19917,165082,36877,214066
19927,165096,36875,214086
19938,165092,36870,214095
19948,165112,36886,214105
19958,165107,36879,214093
19968,165095,36858,214072
19977,165092,36887,214076
19988,165093,36900,214081
19998,165089,36898,214087
20007,165098,36887,214097
20018,165104,36891,214111
20028,165110,36873,214098
20038,165130,36895,214107
20047,165124,36893,214116
20057,165118,36894,214094
20068,165122,36900,214097
20078,165112,36895,214087
20087,165108,36898,214116
20097,165113,36903,214099
20162,165128,36901,214114
20167,165116,36917,214119
20177,165127,36901,214115
20187,165132,36895,214124
20197,165124,36907,214123
20207,165143,36918,214135
20217,165135,36891,214130
20228,165124,36904,214103
20238,165125,36921,214089
20248,165116,36927,214118
20257,165118,36920,214107
20267,165118,36919,214088
20278,165103,36917,214096
20288,165127,36916,214106
20297,165097,36911,214083
20308,165128,36904,214122
20318,165121,36920,214099
20328,165114,36915,214099
20337,165107,36914,214090
20347,165112,36916,214079
20357,165113,36922,214114
20367,165116,36925,214108
20377,165117,36930,214100
20387,165111,36916,214126
20397,165089,36939,214106
20408,165120,36928,214088
20417,165103,36935,214084
20427,165121,36939,214091
20437,165116,36923,214105
20456,165127,36935,214093
20458,165118,36942,214086
20467,165117,36917,214103
20478,165123,36934,214083
20497,165109,36936,214074
20499,165110,36941,214097
20507,165116,36926,214116
20561,165121,36939,214109
20567,165124,36928,214111
20578,165106,36933,214105
20587,165093,36929,214093
20597,165119,36950,214084
20662,165126,36958,214114
20667,165135,36934,214105
20677,165124,36962,214111
20687,165136,36940,214107
20698,165122,36952,214121
20718,165111,36958,214106
20727,165122,36952,214116
20737,165119,36967,214099
20748,165130,36971,214087
20756,165114,36965,214107
20767,165118,36942,214110
20777,165117,36954,214119
20787,165126,36947,214112
20796,165120,36961,214095
20816,165128,36958,214107
20819,165122,36967,214118
20828,165126,36988,214097
20837,165119,36980,214070
20847,165134,36980,214089
20857,165138,36972,214112
20867,165133,36990,214113
20876,165131,36961,214094
20887,165120,36965,214083
20897,165123,36976,214085
20908,165112,36958,214122
20917,165140,36974,214106
20927,165113,36979,214112
20937,165115,36976,214077
20947,165116,36972,214088
21000,165124,36975,214072
21017,165112,36972,214090
21027,165107,36976,214089
21037,165115,36964,214067
21047,165113,36961,214037
21057,165105,36972,214045
21076,165098,36980,214044
21120,165107,36980,214055
21126,165104,36972,214060
21137,165082,36984,214063
21147,165101,36977,214052
21157,165113,36963,214050
21166,165098,36964,214017
21177,165111,36987,214059
21187,165103,36971,214064
21197,165103,36990,214016
21207,165082,36953,214069
21216,165089,36984,214016
21226,165064,36969,214025
21236,165075,36974,214049
21247,165083,36968,214041
21300,165082,36967,214022
21307,165087,36950,214040
21317,165082,36980,214028
21327,165081,36983,214022
21336,165079,36976,214018
21346,165094,36965,214033
21356,165078,36980,214054
21366,165087,36964,214037
21398,165087,36981,214037
21406,165085,36966,214038
21416,165060,36978,214027
21426,165074,36953,214011
21436,165066,36962,214031
21446,165070,36970,214017
21457,165075,36978,214027
21467,165077,36951,214001
21476,165080,36977,214028
21486,165072,36971,214038
21497,165061,36968,214014
21517,165072,36957,214041
21526,165067,36964,214045
21537,165084,36975,214015
21546,165073,36958,214039
21556,165080,36967,214035
21566,165074,36992,214019
21576,165071,36974,214039
21586,165061,36964,214046
21596,165068,36970,214004
21606,165065,36975,214042
21617,165067,36967,214047
21626,165071,36974,214031
21636,165082,36974,214043
21646,165065,36963,214036
21656,165065,36964,214021
21666,165044,36961,214055
21676,165073,36971,214029
21686,165052,36968,214031
21697,165045,36954,214029
21707,165063,36965,214020
21716,165068,36956,214042
21726,165045,36975,214065
21737,165056,36965,214060
21747,165052,36955,214048
21757,165061,36958,214036
21777,165053,36963,214039
21787,165052,36966,214046
21796,165046,36967,214048
21806,165043,36969,214062
21816,165066,36946,214067
21826,165035,36954,214045
21836,165042,36951,214049
21846,165025,36963,214049
21856,165034,36962,214063
21867,165034,36934,214053
21876,165042,36945,214052
21886,165024,36950,214048
21896,165033,36935,214037
21906,165031,36938,214048
21916,165044,36933,214060
21926,165063,36952,214082
21936,165067,36946,214072
21946,165046,36945,214091
21956,165057,36935,214121
21977,165068,36931,214140
21987,165081,36927,214151
21997,165069,36927,214149
22006,165064,36943,214141
22016,165052,36933,214152
22026,165069,36934,214161
22036,165080,36928,214158
22045,165061,36913,214171
22056,165066,36918,214165
22066,165062,36930,214170
22076,165064,36923,214150
22085,165069,36936,214168
22096,165047,36940,214155
22146,165045,36916,214146
22156,165038,36918,214152
22166,165040,36909,214128
22176,165037,36898,214110
22185,165034,36912,214093
22196,165048,36910,214098
22207,165034,36911,214100
22216,165032,36914,214080
22238,165031,36911,214093
22246,165019,36922,214088
22256,165023,36899,214081
22266,165018,36926,214063
22276,165018,36921,214067
22286,165017,36912,214076
22295,165038,36928,214067
22306,165033,36906,214066
22316,165019,36920,214071
22326,165023,36915,214100
22336,165043,36928,214066
22346,165010,36920,214087
22356,165029,36916,214078
22366,165011,36908,214086
22398,165045,36920,214096
22406,165058,36912,214112
22416,165045,36879,214097
22426,165043,36941,214096
22437,165054,36921,214107
22446,165050,36939,214122
22456,165060,36931,214106
22465,165044,36934,214128
22476,165065,36909,214127
22486,165045,36932,214121
22496,165077,36936,214141
22505,165059,36922,214147
22515,165055,36928,214143
22525,165057,36928,214150
22537,165075,36919,214149
22546,165069,36958,214124
22556,165082,36942,214148
22566,165056,36942,214159
22576,165081,36940,214125
22585,165091,36932,214163
22595,165074,36950,214164
22618,165099,36946,214186
22625,165117,36942,214182
22635,165075,36941,214187
22646,165128,36957,214177
22656,165099,36954,214185
22677,165114,36953,214181
22685,165114,36943,214194
22695,165115,36973,214210
22705,165115,36958,214203
22716,165120,36952,214192
22726,165100,36955,214208
22736,165116,36951,214197
22746,165094,36957,214205
22779,165118,36975,214220
22786,165122,36967,214215
22818,165123,36968,214229
22826,165125,36982,214229
22835,165140,36996,214211
22845,165124,36987,214241
22856,165125,36972,214218
22866,165133,36991,214206
22876,165142,36985,214228
22885,165127,36986,214242
22895,165136,36973,214249
22905,165132,36985,214225
22915,165112,36981,214234
22937,165130,36984,214241
22946,165140,36992,214259
22957,165135,37002,214250
22965,165154,37003,214256
22975,165137,36998,214245
22985,165133,37009,214234
22995,165140,36996,214243
23004,165137,36999,214239
23016,165138,36993,214244
23026,165143,37010,214250
23036,165135,37010,214222
23045,165137,37016,214251
23056,165149,37018,214219
23078,165138,37005,214228
23085,165132,37001,214243
23095,165126,37018,214231
23105,165133,37017,214243
23115,165140,37013,214230
23165,165138,37013,214238
23175,165151,37014,214236
23185,165149,37024,214237
23195,165139,37001,214246
23205,165145,37016,214247
23215,165132,37025,214240
23225,165124,37031,214247
23235,165139,37027,214220
23246,165149,37019,214249
23255,165132,37017,214224
23265,165135,37029,214255
23275,165128,37028,214235
23285,165151,37020,214244
23294,165140,37017,214230
23304,165144,37026,214236
23315,165123,37019,214247
23325,165134,37023,214205
23336,165132,37022,214241
23345,165138,37024,214256
23355,165134,37016,214250
23365,165156,37035,214246
23375,165134,37010,214235
23384,165143,37034,214237
23396,165112,37045,214223
23418,165131,37021,214241
23425,165117,37028,214233
23435,165129,37018,214227
23445,165136,37036,214209
23455,165120,37034,214220
23464,165133,37045,214229
23474,165131,37021,214236
23485,165133,37023,214215
23497,165127,37035,214219
23505,165125,37029,214213
23515,165130,37033,214220
23525,165097,37042,214231
23535,165126,37020,214213
23544,165132,37023,214212
23555,165134,37010,214212
23565,165121,37039,214201
23575,165095,37036,214193
23597,165126,37035,214210
23618,165118,37025,214195
23625,165116,37022,214199
23635,165103,37022,214184
23645,165103,37025,214163
23655,165109,37028,214170
23665,165103,37029,214187
23674,165101,37029,214191
23685,165103,37037,214162
23695,165113,37024,214185
23705,165116,37032,214193
23714,165099,37036,214170
23724,165106,37031,214193
23734,165113,37047,214195
23745,165120,37010,214183
23754,165107,37036,214213
23765,165127,37011,214164
23775,165108,37032,214174
23785,165093,37028,214190
23794,165095,37025,214156
23804,165088,37027,214191
23814,165098,37025,214162
23836,165099,37026,214185
23844,165102,37033,214190
23855,165115,37011,214188
23865,165104,37033,214163
23875,165098,37030,214175
23884,165116,37014,214170
23895,165081,37026,214180
23905,165088,37034,214186
23916,165102,37033,214193
23924,165095,37032,214172
23934,165103,37027,214162
23944,165101,37024,214161
23955,165091,37028,214176
23965,165102,37044,214158
23975,165091,37029,214157
23985,165085,37042,214153
23995,165092,37028,214167
24004,165108,37038,214169
24014,165091,37029,214193
24024,165094,37033,214167
24035,165094,37045,214155
24044,165079,37033,214148
24055,165056,37041,214150
24064,165082,37039,214155
24075,165095,37041,214148
24084,165088,37037,214162
24119,165090,37035,214169
24125,165079,37030,214175
24134,165083,37016,214158
24144,165071,37037,214134
24154,165075,37032,214149
24165,165092,37029,214150
24174,165066,37042,214150
24184,165074,37016,214129
24195,165065,37030,214157
24204,165070,37033,214144
24214,165073,37027,214131
24225,165068,37024,214119
24235,165054,37036,214128
24245,165046,37033,214123
24256,165070,37025,214112
24264,165072,37028,214132
24274,165061,37030,214119
24284,165072,37028,214138
24293,165060,37025,214126
24304,165069,37013,214120
24317,165059,37017,214121
24325,165054,37021,214122
24334,165066,37030,214114
24344,165068,37012,214121
24356,165058,37018,214093
24365,165061,37020,214121
24375,165045,37021,214102
24384,165043,37030,214089
24394,165038,37019,214110
24404,165040,37029,214116
24414,165064,37022,214107
24424,165036,37010,214107
24434,165035,37018,214091
24444,165057,37028,214079
24455,165040,37007,214090
24464,165052,37017,214087
24474,165048,37034,214104
24484,165025,37014,214081
24494,165041,37022,214092
24504,165054,37013,214084
24514,165040,37022,214069
24524,165055,37009,214093
24534,165042,37000,214094
24543,165032,37015,214076
24554,165047,37010,214094
24564,165033,37016,214084
24575,165030,37014,214083
24584,165023,37005,214069
24594,165009,37008,214054
24604,165012,37007,214069
24614,165011,37007,214087
24625,165022,36998,214063
24634,165012,37008,214071
24644,165016,37006,214072
24654,165002,37006,214079
24664,165035,37012,214078
24673,165019,37004,214053
24684,165016,36999,214075
24697,165023,36999,214061
24704,165014,37009,214073
24714,165028,37010,214075
24723,165012,37005,214063
24734,165031,36987,214063
24745,165020,37017,214062
24754,165013,37010,214041
24764,165001,36992,214061
24774,165001,37011,214081
24785,164998,36998,214074
24794,165012,36996,214062
24804,165012,36994,214039
24814,165002,36993,214031
24824,165015,37002,214066
24859,165009,37001,214055
24864,164989,36994,214066
24874,164999,37000,214063
24883,165007,36987,214067
24897,165000,36983,214060
24904,164996,37010,214062
24914,164994,36997,214056
24924,164964,37000,214050
24934,164993,36991,214041
24944,164986,36989,214048
24954,164997,36997,214041
24963,164986,36989,214055
24973,164983,36996,214035
24984,164990,36998,214069
24994,164995,36990,214044
25004,164971,36981,214043
25014,164973,37007,214035
25024,164984,36999,214037
25034,164990,36995,214033
25043,164989,36999,214048
25053,164983,37006,214021
25064,164977,36976,214036
25074,164974,36999,214027
25083,164986,36987,214028
25093,164984,36995,214037
25103,164979,36987,214024
25114,165000,36984,214025
25124,164966,36977,214020
25133,164964,36985,214020
25144,164981,36984,214026
25157,164964,36979,214005
25164,164957,36981,214011
25173,164962,36984,213988
25183,164968,36975,213998
25197,164942,36990,213999
25204,164967,36976,214008
25214,164963,36986,214002
25223,164970,36985,213994
25234,164958,36977,213989
25244,164957,36973,213998
25253,164933,36978,213987
25264,164946,36970,213980
25274,164947,36966,213974
25284,164948,36969,213978
25293,164938,36958,213991
25303,164947,36968,213971
25314,164952,36950,213979
25324,164936,36981,213965
25336,164950,36974,213946
25343,164948,36969,213975
25353,164939,36979,213992
25364,164937,36967,213973
25374,164941,36966,213949
25384,164937,36954,213966
25397,164944,36966,213962
25403,164938,36953,213973
25414,164920,36959,213975
25423,164939,36977,213948
25434,164941,36961,213952
25443,164952,36951,213984
25453,164929,36961,213941
25463,164929,36959,213965
25473,164927,36958,213929
25484,164908,36938,213957
25494,164942,36952,213948
25503,164910,36949,213951
25514,164923,36953,213969
25524,164927,36954,213936
25537,164920,36961,213942
25543,164937,36951,213968
25553,164901,36945,213947
25564,164914,36961,213955
25574,164917,36941,213963
25583,164900,36953,213940
25593,164915,36950,213941
25604,164913,36934,213921
25614,164904,36951,213931
25624,164922,36918,213940
25633,164920,36928,213931
25643,164912,36949,213956
25653,164913,36946,213914
25663,164904,36930,213949
25673,164924,36947,213944
25683,164907,36927,213948
25694,164874,36938,213941
25704,164903,36921,213928
25713,164905,36930,213927
25723,164895,36926,213921
25734,164904,36910,213933
25744,164897,36939,213894
25753,164892,36931,213899
25763,164903,36924,213939
25773,164885,36939,213906
25784,164891,36937,213903
25904,164872,36923,213908
25906,164887,36937,213892
25914,164858,36935,213877
25922,164882,36932,213897
25933,164858,36896,213894
25943,164861,36921,213863
25953,164869,36922,213859
25977,164864,36916,213883
25983,164871,36919,213868
25993,164850,36908,213871
26003,164866,36915,213865
26016,164863,36915,213867
26023,164853,36908,213874
26034,164865,36924,213836
26043,164852,36909,213860
26079,164851,36902,213859
26083,164831,36908,213850
26093,164842,36897,213858
26103,164842,36899,213829
26113,164840,36908,213835
26124,164835,36887,213820
26133,164839,36905,213815
26143,164812,36905,213822
26153,164837,36880,213817
26163,164835,36904,213827
26172,164826,36891,213823
26183,164831,36891,213803
26193,164829,36890,213814
26203,164828,36903,213799
26212,164812,36890,213804
26223,164831,36895,213807
26233,164798,36891,213811
26243,164824,36890,213797
26252,164771,36877,213789
26263,164810,36906,213782
26273,164811,36888,213791
26283,164796,36884,213795
26293,164817,36881,213782
26303,164798,36883,213805
26313,164813,36890,213795
26323,164805,36872,213769
26333,164794,36872,213788
26343,164799,36871,213773
26353,164801,36877,213775
26363,164786,36861,213768
26373,164796,36884,213772
26382,164812,36870,213800
26392,164786,36873,213779
26403,164791,36845,213777
26413,164803,36885,213783
26422,164784,36857,213756
26432,164773,36867,213777
26442,164784,36848,213768
26453,164774,36862,213748
26463,164783,36868,213751
26473,164771,36853,213748
26483,164757,36862,213757
26493,164773,36854,213758
26502,164767,36851,213753
26512,164748,36857,213756
26523,164774,36858,213757
26533,164779,36855,213759
26543,164772,36863,213764
26553,164772,36850,213759
26563,164761,36857,213750
26573,164748,36845,213752
26583,164760,36871,213744
26592,164756,36858,213746
26602,164753,36856,213763
26612,164769,36854,213733
26623,164736,36862,213753
26636,164759,36834,213750
26643,164768,36837,213731
26653,164750,36856,213754
26663,164765,36853,213747
26699,164755,36847,213758
26703,164770,36841,213754
26712,164786,36852,213763
26723,164765,36835,213769
26733,164766,36856,213741
26743,164772,36837,213759
26752,164763,36857,213750
26762,164770,36828,213763
26772,164754,36846,213749
26783,164774,36846,213765
26792,164779,36825,213762
26802,164762,36839,213772
26812,164770,36846,213788
26822,164766,36840,213781
26832,164748,36851,213760
26842,164756,36846,213768
26853,164782,36861,213767
26863,164771,36850,213781
26873,164762,36846,213771
26882,164769,36848,213794
26892,164789,36862,213763
26902,164758,36863,213782
26912,164786,36853,213810
26922,164786,36836,213792
26932,164785,36855,213796
26943,164793,36834,213799
26953,164782,36851,213790
26962,164775,36850,213804
26972,164782,36861,213808
26982,164789,36833,213794
26992,164789,36841,213796
27002,164797,36846,213807
27012,164795,36869,213811
27022,164793,36857,213806
27033,164790,36859,213813
27041,164792,36854,213804
27052,164795,36859,213808
27062,164803,36853,213818
27072,164794,36849,213806
27097,164801,36857,213832
27102,164793,36851,213831
27113,164794,36848,213814
27123,164806,36861,213826
27132,164803,36855,213793
27142,164806,36854,213811
27152,164805,36869,213830
27163,164810,36859,213841
27172,164805,36857,213836
27182,164798,36860,213815
27192,164813,36858,213819
27202,164817,36870,213837
27211,164802,36845,213815
27222,164807,36857,213832
27232,164821,36850,213831
27242,164814,36856,213848
27252,164798,36862,213838
27262,164814,36863,213838
27272,164813,36850,213830
27282,164821,36856,213848
27291,164819,36865,213818
27302,164793,36865,213865
27312,164822,36878,213840
27322,164824,36852,213837
27333,164817,36869,213853
27341,164815,36861,213846
27352,164805,36867,213856
27363,164815,36866,213825
27373,164822,36863,213849
27382,164807,36870,213863
27392,164811,36881,213853
27402,164831,36868,213865
27412,164817,36888,213855
27438,164811,36868,213871
27458,164815,36871,213868
27479,164858,36866,213845
27482,164828,36870,213864
27492,164816,36869,213862
27501,164836,36874,213864
27511,164824,36872,213856
27522,164851,36886,213878
27532,164847,36882,213880
27541,164836,36880,213888
27552,164845,36878,213869
27562,164844,36871,213876
27572,164844,36868,213890
27583,164851,36860,213875
27592,164838,36881,213894
27602,164825,36875,213880
27612,164838,36889,213856
27623,164817,36893,213897
27632,164831,36883,213908
27642,164830,36886,213905
27652,164841,36902,213892
27662,164838,36888,213904
27671,164841,36886,213894
27682,164831,36887,213913
27692,164825,36898,213901
27702,164844,36903,213889
27711,164836,36894,213880
27721,164843,36889,213904
27732,164864,36886,213915
27741,164854,36914,213912
27751,164850,36889,213897
27761,164860,36891,213912
27772,164861,36892,213895
27782,164857,36885,213911
27791,164857,36880,213885
27801,164859,36886,213897
27812,164835,36913,213919
27821,164859,36900,213909
27832,164876,36885,213899
27841,164850,36897,213908
27856,164862,36903,213899
27861,164868,36883,213891
27872,164836,36906,213895
27881,164852,36907,213894
27897,164858,36895,213904
27902,164860,36899,213906
27912,164828,36907,213904
27921,164827,36897,213894
27931,164841,36888,213872
27942,164816,36910,213877
27952,164822,36898,213868
27961,164835,36895,213885
27971,164836,36895,213878
27981,164835,36901,213896
27991,164832,36887,213899
28001,164854,36903,213882
28011,164839,36903,213887
28022,164834,36883,213865
28032,164834,36907,213858
28041,164819,36907,213877
28051,164827,36900,213891
28062,164838,36901,213870
28072,164823,36899,213872
28082,164814,36894,213869
28096,164835,36896,213855
28118,164823,36892,213873
28122,164824,36893,213870
28136,164820,36910,213858
28142,164826,36890,213869
28152,164823,36899,213853
28162,164808,36902,213877
28171,164810,36901,213850
28181,164820,36876,213854
28191,164810,36884,213872
28201,164821,36891,213848
28210,164812,36895,213830
28221,164797,36895,213856
28231,164822,36890,213852
28242,164797,36893,213862
28251,164802,36873,213863
28261,164818,36880,213857
28271,164843,36901,213853
28281,164839,36872,213846
28291,164821,36880,213837
28301,164810,36878,213845
28311,164821,36897,213849
28322,164801,36883,213862
28332,164811,36881,213821
28341,164795,36896,213852
28351,164782,36888,213843
28361,164815,36898,213852
28371,164807,36883,213858
28381,164807,36884,213826
28391,164810,36884,213861
28401,164808,36890,213827
28411,164808,36898,213840
28420,164789,36897,213843
28431,164794,36874,213850
28441,164800,36903,213813
28458,164802,36901,213836
28460,164803,36890,213838
28471,164786,36895,213845
28481,164803,36890,213838
28492,164784,36894,213840
28501,164813,36907,213844
28511,164802,36905,213851
28521,164793,36898,213864
28531,164783,36887,213847
28541,164798,36877,213854
28551,164802,36879,213850
28561,164809,36881,213833
28571,164791,36894,213833
28581,164799,36893,213847
28591,164796,36876,213837
28601,164809,36889,213823
28612,164795,36889,213850
28622,164792,36880,213836
28631,164796,36896,213833
28641,164779,36892,213844
28651,164796,36899,213808
28662,164793,36873,213848
28671,164802,36885,213822
28681,164786,36883,213846
28691,164800,36895,213823
28701,164802,36880,213823
28710,164811,36886,213841
28720,164801,36880,213823
28731,164765,36879,213836
28741,164807,36875,213817
28751,164801,36886,213832
28761,164786,36883,213804
28771,164787,36865,213810
28781,164780,36885,213813
28791,164788,36879,213804
28801,164795,36863,213820
28811,164756,36875,213825
28821,164777,36866,213807
28831,164776,36870,213787
28841,164774,36853,213779
28851,164751,36876,213784
28861,164777,36872,213792
28871,164789,36873,213801
28880,164754,36882,213801
28891,164760,36872,213784
28901,164767,36877,213775
28911,164758,36861,213798
28920,164773,36869,213785
28930,164752,36873,213794
28941,164763,36874,213786
28951,164763,36859,213781
28960,164764,36864,213770
28970,164759,36854,213776
28980,164749,36868,213774
28991,164758,36868,213794
29000,164767,36855,213765
29011,164756,36860,213785
29021,164772,36865,213765
29037,164742,36860,213775
29041,164759,36854,213794
29050,164745,36857,213776
29061,164767,36840,213789
29071,164750,36854,213788
29081,164760,36852,213749
29090,164756,36861,213773
29100,164742,36852,213791
29110,164766,36859,213777
29121,164763,36858,213759
29130,164760,36857,213773
29140,164743,36849,213759
29151,164741,36838,213764
29161,164755,36846,213769
29170,164754,36847,213751
29181,164757,36861,213782
29191,164753,36847,213764
29201,164744,36843,213747
29210,164730,36848,213768
29220,164745,36851,213746
29230,164738,36846,213754
29241,164734,36853,213766
29250,164737,36848,213743
29260,164749,36845,213759
29271,164741,36846,213753
29281,164735,36843,213733
29291,164738,36839,213748
29300,164734,36850,213756
29316,164755,36840,213755
29320,164735,36854,213760
29330,164789,36842,213742
29340,164732,36852,213754
29351,164715,36839,213757
29361,164744,36843,213777
29371,164738,36853,213756
29380,164738,36850,213765
29390,164708,36840,213768
29400,164731,36839,213760
29410,164742,36845,213759
29420,164732,36869,213752
29430,164743,36844,213754
29440,164729,36857,213756
29450,164771,36853,213748
29460,164717,36840,213765
29470,164720,36843,213736
29480,164742,36829,213750
29491,164725,36825,213741
29500,164727,36836,213759
29510,164728,36851,213724
29520,164723,36822,213747
29530,164725,36835,213725
29541,164715,36819,213722
29550,164689,36845,213734
29560,164713,36839,213732
29577,164699,36832,213745
29580,164714,36831,213737
29589,164656,36832,213750
29600,164726,36826,213714
29611,164713,36826,213722
29621,164723,36824,213716
29630,164706,36815,213714
29640,164708,36801,213714
29650,164715,36824,213701
29660,164707,36812,213718
29669,164714,36828,213721
29679,164705,36822,213723
29690,164703,36810,213710
29701,164688,36833,213720
29716,164691,36820,213691
29720,164688,36811,213699
29730,164682,36811,213751
29740,164697,36817,213681
29750,164689,36827,213705
29759,164698,36814,213704
29770,164679,36819,213715
29780,164685,36817,213673
29790,164706,36821,213704
29799,164701,36802,213690
29810,164675,36810,213707
29820,164696,36803,213671
29830,164680,36797,213661
29839,164688,36802,213688
29850,164683,36779,213663
29860,164670,36811,213684
29870,164684,36803,213693
29880,164668,36800,213693
29890,164654,36806,213685
29900,164685,36788,213663
29910,164680,36798,213675
29919,164683,36798,213687
29930,164662,36797,213679
29940,164677,36783,213672
29950,164682,36802,213674
29959,164665,36783,213679
29969,164686,36802,213679
29980,164683,36784,213670
29990,164668,36794,213684
30000,164664,36784,213671
30010,164656,36798,213655
30020,164663,36789,213657
30030,164656,36786,213665
30040,164665,36785,213658
30049,164660,36786,213660
30059,164673,36790,213653
30077,164669,36773,213659
30097,164664,36795,213645
30118,164627,36780,213645
30121,164658,36787,213666
30130,164611,36821,213615
30140,164655,36797,213662
30150,164683,36786,213648
30160,164637,36780,213666
30176,164656,36792,213658
30179,164653,36786,213661
30189,164645,36788,213691
30200,164656,36793,213662
30209,164654,36781,213655
30219,164641,36786,213624
30229,164640,36770,213635
30240,164637,36785,213644
30250,164622,36774,213633
30259,164655,36779,213655
30269,164625,36786,213628
30280,164654,36765,213638
30290,164632,36789,213630
30299,164628,36776,213640
30309,164640,36780,213643
30320,164628,36764,213632
30330,164652,36773,213630
30339,164650,36789,213650
30349,164634,36786,213624
30360,164626,36775,213644
30370,164621,36773,213631
30379,164613,36773,213618
30389,164638,36781,213639
30399,164633,36763,213619
30409,164605,36771,213616
30419,164637,36755,213600
30430,164641,36769,213619
30440,164631,36779,213593
30450,164645,36767,213599
30459,164604,36777,213599
30469,164623,36765,213599
30480,164626,36762,213597
30490,164601,36768,213557
30500,164620,36750,213587
30509,164611,36767,213598
30519,164618,36755,213601
30529,164605,36774,213590
30539,164611,36748,213576
30548,164609,36750,213607
30559,164611,36753,213576
30570,164632,36753,213610
30580,164617,36738,213559
30589,164601,36756,213561
30599,164595,36756,213579
30609,164584,36747,213600
30620,164597,36742,213579
30629,164592,36746,213606
30639,164616,36738,213596
30649,164592,36738,213619
30660,164625,36744,213603
30669,164607,36740,213598
30679,164619,36747,213586
30689,164595,36733,213599
30699,164600,36734,213600
30716,164607,36726,213591
30719,164615,36731,213600
30729,164597,36729,213525
30739,164604,36713,213587
30750,164590,36744,213592
30759,164588,36735,213567
30769,164575,36724,213553
30780,164590,36720,213588
30790,164608,36712,213562
30799,164579,36730,213569
30809,164586,36735,213571
30819,164575,36736,213565
30829,164567,36733,213586
30839,164582,36722,213569
30849,164586,36714,213576
30860,164555,36729,213569
30870,164580,36731,213576
30879,164560,36721,213566
30889,164577,36721,213574
30900,164560,36723,213558
30910,164566,36712,213541
30919,164563,36708,213551
30929,164552,36728,213564
30939,164571,36718,213565
30949,164584,36704,213549
30958,164558,36721,213532
30968,164565,36735,213545
30979,164562,36718,213546
30989,164555,36705,213537
30999,164556,36717,213548
31008,164540,36700,213551
31019,164555,36715,213523
31029,164558,36700,213546
31039,164551,36711,213549
31048,164526,36720,213507
31059,164530,36724,213539
31069,164555,36706,213549
31079,164548,36690,213518
31089,164559,36714,213528
31099,164532,36716,213529
31109,164537,36709,213530
31119,164546,36702,213542
31128,164526,36703,213537
31139,164555,36705,213521
31149,164546,36722,213538
31159,164527,36705,213504
31168,164536,36706,213534
31179,164526,36703,213513
31189,164532,36704,213529
31199,164554,36712,213510
31208,164540,36706,213516
31219,164533,36696,213490
31229,164530,36704,213525
31239,164506,36710,213505
31249,164501,36718,213455
31258,164519,36707,213503
31268,164538,36709,213503
31279,164515,36682,213498
31289,164529,36689,213489
31298,164508,36677,213509
31308,164532,36693,213495
31318,164522,36701,213500
31329,164524,36691,213498
31338,164511,36702,213479
31349,164481,36689,213480
31359,164494,36698,213478
31369,164493,36703,213488
31378,164497,36709,213472
31397,164493,36706,213490
31417,164508,36688,213485
31420,164515,36679,213475
31429,164506,36682,213450
31439,164487,36675,213469
31449,164482,36688,213473
31458,164513,36663,213459
31468,164503,36689,213465
31478,164492,36672,213464
31488,164480,36675,213472
31499,164504,36680,213456
31508,164498,36667,213448
31518,164486,36679,213458
31528,164492,36685,213461
31539,164496,36672,213446
31549,164494,36660,213444
31559,164486,36681,213465
31569,164481,36676,213423
31578,164480,36678,213446
31588,164481,36677,213461
31598,164489,36674,213420
31609,164469,36669,213420
31619,164479,36684,213443
31628,164477,36676,213430
31638,164476,36671,213424
31648,164484,36690,213423
31658,164493,36662,213429
31668,164469,36672,213425
31678,164466,36675,213450
31688,164487,36686,213415
31698,164471,36655,213443
31708,164465,36672,213440
31738,164471,36668,213443
31740,164470,36674,213441
31748,164474,36663,213436
31758,164454,36655,213431
31768,164476,36681,213462
31778,164465,36672,213428
31788,164478,36667,213418
31798,164467,36656,213414
31816,164476,36676,213397
31837,164475,36709,213454
31840,164478,36665,213426
31848,164478,36638,213413
31858,164480,36682,213422
31868,164461,36676,213432
31878,164469,36660,213425
31888,164478,36688,213429
31899,164458,36684,213437
31909,164474,36672,213423
31918,164480,36684,213445
31928,164486,36689,213445
31938,164481,36694,213452
31948,164465,36694,213422
31958,164486,36693,213461
31967,164487,36676,213459
31978,164482,36679,213475
31988,164517,36691,213479
31998,164493,36694,213473
32007,164494,36704,213496
32018,164493,36680,213488
32029,164512,36691,213478
32038,164501,36695,213473
32048,164512,36699,213473
32057,164517,36692,213502
32068,164505,36702,213491
32078,164505,36711,213485
32096,164488,36713,213515
32099,164524,36704,213521
32108,164516,36683,213500
32118,164531,36722,213522
32136,164518,36717,213533
32139,164532,36719,213559
32148,164535,36714,213529
32158,164536,36725,213551
32167,164545,36766,213534
32178,164530,36732,213544
32188,164542,36749,213557
32198,164541,36728,213547
32208,164554,36734,213567
32218,164556,36733,213558
32228,164544,36722,213554
32238,164554,36741,213575
32248,164564,36736,213589
32258,164567,36733,213580
32268,164538,36738,213571
32278,164553,36753,213581
32288,164567,36753,213557
32297,164552,36735,213586
32307,164560,36747,213606
32318,164563,36744,213589
32358,164574,36757,213601
32360,164563,36748,213607
32368,164571,36760,213599
32378,164580,36738,213598
32388,164559,36756,213600
32398,164577,36750,213595
32408,164581,36768,213615
32417,164561,36760,213580
32427,164565,36767,213628
32438,164558,36760,213600
32448,164572,36769,213615
32458,164562,36773,213608
32468,164571,36785,213598
32477,164572,36770,213602
32488,164556,36764,213569
32499,164586,36768,213613
32508,164587,36771,213635
32518,164565,36765,213617
32528,164592,36775,213620
32538,164578,36770,213634
32547,164578,36787,213645
32558,164587,36780,213613
32568,164594,36785,213616
32578,164579,36768,213623
32587,164594,36772,213625
32597,164586,36787,213599
32608,164572,36782,213621
32618,164575,36790,213620
32628,164568,36775,213582
32637,164588,36772,213633
32648,164577,36779,213581
32658,164561,36796,213603
32667,164589,36791,213620
32678,164560,36792,213620
32688,164590,36786,213644
32698,164563,36808,213616
32708,164579,36806,213624
32717,164585,36791,213623
32727,164570,36799,213635
32737,164586,36792,213648
32748,164594,36810,213613
32758,164587,36799,213646
32768,164588,36804,213620
32778,164584,36813,213638
32788,164588,36807,213633
32797,164594,36790,213652
32807,164597,36811,213621
32818,164605,36794,213650
32828,164599,36813,213646
32837,164613,36786,213658
32847,164601,36825,213627
32857,164598,36822,213665
32867,164602,36806,213654
32877,164597,36791,213655
32887,164592,36813,213651
32897,164609,36811,213653
32908,164611,36810,213671
32917,164610,36822,213657
32927,164587,36817,213657
32938,164607,36827,213662
32948,164616,36818,213663
32958,164610,36820,213654
32967,164599,36818,213671
32977,164626,36819,213672
32987,164597,36812,213680
32998,164616,36818,213682
33007,164623,36843,213683
33017,164592,36827,213678
33027,164610,36832,213702
33037,164620,36824,213673
33046,164629,36828,213643
33058,164621,36828,213652
33068,164599,36834,213668
33077,164605,36825,213668
33087,164600,36815,213673
33097,164598,36825,213647
33107,164599,36831,213653
33118,164606,36837,213658
33127,164596,36839,213667
33137,164616,36828,213656
33147,164608,36829,213656
33157,164603,36821,213662
33167,164598,36827,213656
33177,164600,36829,213650
33187,164569,36836,213640
33197,164594,36821,213638
33207,164606,36842,213647
33217,164571,36834,213634
33227,164583,36826,213663
33237,164577,36827,213642
33247,164580,36815,213639
33256,164592,36816,213654
33267,164596,36822,213622
33277,164596,36817,213633
33288,164580,36795,213639
33296,164594,36829,213638
33306,164566,36825,213648
33317,164592,36815,213632
33327,164594,36817,213649
33337,164592,36823,213632
33347,164587,36816,213637
33357,164578,36816,213637
33367,164579,36800,213614
33376,164580,36834,213622
33386,164567,36835,213626
33397,164593,36825,213640
33407,164579,36827,213638
33417,164588,36819,213642
33427,164586,36851,213631
33437,164556,36832,213624
33457,164587,36828,213622
33458,164575,36827,213619
33466,164580,36830,213634
33477,164568,36825,213624
33487,164583,36819,213616
33497,164551,36828,213613
33506,164566,36831,213616
33517,164568,36813,213614
33527,164569,36831,213619
33537,164566,36826,213627
33546,164563,36833,213621
33557,164588,36824,213614
33567,164581,36826,213632
33577,164569,36826,213616
33586,164564,36812,213612
33597,164584,36830,213615
33607,164575,36838,213594
33617,164563,36828,213606
33626,164564,36829,213599
33636,164567,36820,213621
33647,164565,36830,213605
33658,164554,36828,213574
33707,164566,36820,213619
33717,164558,36818,213607
33727,164563,36829,213596
33737,164540,36829,213623
33747,164556,36841,213616
33756,164569,36846,213584
33766,164533,36830,213611
33776,164533,36815,213567
33787,164569,36821,213582
33796,164547,36833,213581
33807,164540,36838,213595
33817,164560,36821,213589
33827,164554,36844,213597
33836,164552,36818,213587
33846,164551,36833,213603
33856,164547,36827,213592
33867,164546,36799,213585
33876,164538,36815,213592
33886,164548,36805,213575
33897,164537,36826,213571
33907,164538,36823,213578
33916,164537,36828,213569
33926,164520,36825,213546
33937,164544,36836,213566
33947,164524,36824,213575
33957,164514,36822,213567
33966,164522,36831,213518
33977,164532,36806,213545
33987,164515,36823,213554
33997,164523,36810,213557
34006,164512,36818,213538
34016,164528,36818,213563
34026,164528,36818,213563
34037,164535,36817,213558
34046,164520,36813,213568
34057,164512,36800,213560
34067,164513,36805,213558
34077,164508,36811,213565
34086,164512,36822,213546
34096,164522,36803,213558
34106,164514,36797,213535
34116,164504,36800,213550
34126,164512,36789,213545
34137,164512,36793,213554
34147,164503,36804,213541
34157,164504,36805,213544
34166,164505,36787,213549
34176,164498,36799,213549
34186,164513,36803,213538
34196,164508,36798,213531
34217,164504,36799,213537
34226,164506,36805,213539
34237,164502,36794,213540
34247,164495,36786,213508
34256,164506,36793,213535
34266,164505,36786,213531
34277,164506,36801,213554
34286,164514,36796,213537
34296,164522,36796,213524
34306,164493,36785,213521
34316,164513,36803,213504
34326,164464,36816,213518
34336,164491,36806,213518
34346,164468,36813,213531
34356,164488,36803,213511
34366,164496,36809,213539
34375,164493,36796,213536
34385,164487,36807,213506
34397,164495,36808,213517
34407,164500,36794,213530
34416,164504,36808,213531
34426,164475,36804,213532
34437,164501,36812,213523
34447,164485,36811,213525
34457,164472,36802,213508
34466,164500,36795,213525
34476,164484,36787,213509
34486,164474,36795,213500
34496,164494,36789,213540
34517,164476,36786,213522
34526,164479,36786,213517
34536,164478,36784,213512
34545,164488,36799,213526
34555,164477,36799,213531
34566,164490,36804,213485
34577,164454,36799,213506
34586,164487,36788,213510
34596,164479,36789,213506
34606,164474,36773,213531
34616,164480,36794,213515
34625,164468,36797,213508
34635,164478,36804,213520
34646,164478,36803,213504
34656,164471,36777,213510
34666,164445,36796,213496
34675,164458,36788,213491
34685,164460,36793,213501
34697,164462,36792,213466
34707,164462,36802,213481
34716,164463,36797,213489
34726,164443,36794,213488
34736,164451,36783,213463
34746,164441,36787,213501
34755,164439,36774,213500
34777,164463,36769,213471
34786,164461,36782,213481
34795,164446,36773,213473
34805,164440,36769,213462
34816,164454,36774,213478
34826,164466,36768,213483
34836,164444,36777,213470
34846,164459,36783,213451
34856,164450,36769,213469
34866,164437,36770,213466
34875,164442,36774,213462
34885,164451,36787,213458
34895,164437,36780,213449
34906,164442,36769,213467
34916,164444,36764,213458
34926,164449,36774,213422
34937,164444,36777,213421
34946,164423,36770,213464
34956,164429,36775,213473
34965,164439,36755,213454
34975,164429,36775,213458
34985,164439,36786,213462
34996,164443,36776,213448
35017,164436,36769,213437
35026,164413,36757,213454
35036,164422,36767,213438
35045,164418,36763,213429
35056,164409,36769,213442
35066,164421,36770,213430
35076,164423,36757,213436
35085,164428,36760,213444
35096,164399,36763,213440
35106,164407,36760,213441
35117,164406,36753,213440
35125,164417,36758,213438
35137,164399,36752,213427
35146,164408,36761,213422
35156,164414,36767,213431
35166,164405,36737,213434
35177,164415,36759,213429
35186,164407,36756,213435
35196,164396,36754,213442
35206,164418,36748,213419
35215,164406,36746,213429
35225,164406,36759,213403
35236,164390,36758,213430
35246,164414,36766,213402
35256,164389,36765,213401
35266,164406,36764,213396
35276,164395,36750,213402
35286,164385,36758,213406
35295,164390,36748,213421
35305,164391,36754,213386
35316,164392,36768,213413
35325,164396,36758,213422
35335,164389,36747,213417
35345,164382,36750,213410
35356,164398,36724,213413
35366,164389,36731,213386
35375,164375,36753,213397
35385,164370,36749,213387
35395,164391,36750,213433
35405,164395,36735,213411
35416,164373,36765,213416
35425,164389,36751,213423
35435,164384,36762,213421
35445,164401,36754,213416
35457,164383,36761,213383
35465,164372,36742,213415
35476,164383,36746,213415
35486,164384,36743,213396
35496,164368,36746,213384
35505,164373,36751,213403
35515,164379,36743,213398
35538,164373,36745,213404
35545,164389,36751,213394
35555,164377,36756,213405
35565,164365,36747,213407
35575,164389,36761,213416
35584,164384,36736,213409
35596,164386,36739,213401
35605,164362,36758,213382
35616,164386,36736,213405
35625,164363,36764,213416
35637,164350,36751,213414
35646,164377,36751,213411
35656,164374,36768,213413
35666,164386,36751,213430
35675,164371,36756,213402
35685,164365,36741,213397
35695,164383,36747,213394
35706,164374,36751,213411
35715,164391,36759,213414
35725,164382,36765,213410
35735,164380,36757,213402
35746,164378,36747,213418
35755,164380,36753,213405
35765,164374,36749,213398
35775,164383,36753,213411
35785,164368,36757,213396
35795,164365,36738,213400
35805,164361,36761,213389
35815,164367,36745,213403
35825,164377,36762,213375
35834,164363,36760,213400
35844,164340,36764,213383
35855,164353,36737,213384
35877,164376,36738,213418
35885,164362,36754,213403
35895,164354,36762,213381
35905,164351,36763,213391
35915,164363,36753,213380
35925,164339,36761,213385
35935,164364,36755,213387
35945,164375,36764,213395
35956,164352,36754,213390
35965,164363,36761,213411
35975,164357,36745,213404
35985,164383,36735,213416
35998,164366,36761,213365
36004,164363,36751,213409
36015,164350,36755,213403
36025,164355,36755,213390
36035,164338,36767,213405
36044,164359,36765,213408
36054,164349,36755,213388
36065,164341,36766,213397
36075,164360,36753,213417
36084,164372,36744,213391
36095,164362,36754,213415
36105,164361,36756,213396
36115,164358,36759,213389
36125,164343,36763,213406
36135,164353,36776,213415
36145,164361,36757,213415
36155,164373,36760,213397
36165,164356,36779,213428
36174,164374,36764,213438
36184,164395,36758,213412
36195,164382,36767,213410
36205,164368,36772,213415
36217,164353,36768,213436
36224,164387,36762,213428
36235,164369,36775,213451
36245,164390,36771,213423
36280,164400,36784,213452
36285,164393,36774,213476
36297,164386,36786,213439
36304,164393,36768,213454
36314,164406,36784,213460
36325,164399,36769,213461
36334,164402,36787,213478
36345,164409,36765,213477
36357,164406,36793,213454
36365,164396,36782,213475
36375,164423,36790,213481
36384,164419,36780,213484
36394,164412,36778,213488
36405,164414,36793,213476
36439,164420,36807,213499
36445,164430,36789,213507
36455,164418,36802,213528
36464,164429,36786,213510
36474,164432,36807,213488
36485,164419,36798,213490
36495,164442,36811,213517
36504,164437,36808,213513
36517,164434,36808,213511
36525,164425,36807,213523
36538,164447,36816,213525
36544,164434,36806,213505
36554,164417,36828,213502
36565,164424,36824,213500
36575,164430,36806,213509
36584,164435,36815,213514
36594,164417,36808,213495
36604,164426,36805,213513
36614,164427,36812,213511
36625,164424,36808,213505
36638,164421,36827,213488
36644,164421,36828,213505
36654,164422,36819,213484
36665,164405,36818,213486
36674,164416,36824,213484
36684,164413,36813,213494
36694,164399,36826,213487
36705,164416,36812,213501
36714,164410,36827,213497
36724,164414,36820,213492
36735,164400,36827,213474
36744,164405,36817,213465
36754,164409,36814,213485
36764,164406,36824,213455
36775,164394,36811,213480
36785,164397,36832,213466
36794,164391,36825,213472
36804,164401,36807,213479
36814,164412,36808,213475
36824,164401,36842,213466
36834,164399,36825,213466
36844,164394,36821,213472
36854,164401,36820,213477
36865,164394,36821,213476
36875,164388,36830,213427
36884,164374,36834,213461
36894,164399,36823,213451
36905,164378,36829,213469
36983,164391,36820,213485
36985,164404,36826,213481
36994,164391,36840,213460
37004,164392,36825,213479
37014,164390,36834,213446
37024,164363,36828,213463
37034,164384,36818,213473
37043,164386,36814,213446
37100,164388,36836,213446
37104,164389,36829,213464
37115,164365,36831,213435
37125,164397,36820,213427
37134,164373,36819,213460
37144,164376,36824,213455
37154,164376,36826,213457
37165,164383,36830,213447
37174,164378,36837,213449
37184,164381,36808,213455
37194,164378,36824,213437
37204,164357,36831,213451
37213,164380,36825,213455
37223,164379,36826,213458
37237,164380,36815,213465
37244,164367,36820,213442
37253,164388,36815,213447
37264,164373,36835,213447
37274,164365,36811,213457
37284,164355,36826,213430
37296,164375,36843,213452
37304,164369,36834,213448
37314,164373,36834,213442
37325,164387,36833,213443
37334,164378,36827,213409
37344,164336,36846,213428
37354,164372,36830,213430
37364,164357,36835,213431
37374,164373,36823,213441
37384,164377,36828,213417
37394,164356,36832,213432
37404,164362,36833,213438
37414,164366,36822,213440
37424,164354,36826,213436
37434,164357,36818,213419
37444,164358,36841,213422
37454,164365,36835,213424
37464,164351,36805,213415
37474,164343,36830,213421
37484,164366,36827,213399
37494,164364,36827,213414
37503,164363,36823,213406
37513,164352,36823,213393
37524,164356,36820,213421
37537,164367,36826,213422
37544,164363,36817,213427
37554,164366,36816,213424
37564,164358,36800,213405
37574,164328,36819,213407
37583,164356,36822,213403
37594,164356,36794,213395
37618,164344,36814,213419
37624,164348,36809,213406
37633,164326,36809,213416
37644,164356,36803,213413
37654,164339,36808,213390
37664,164340,36812,213409
37674,164332,36811,213422
37684,164331,36808,213391
37694,164346,36803,213387
37704,164331,36814,213394
37760,164329,36810,213403
37779,164318,36812,213423
37784,164340,36805,213386
37793,164301,36807,213404
37803,164329,36807,213387
37838,164331,36798,213383
37844,164315,36801,213400
37857,164309,36806,213375
37863,164324,36804,213407
37874,164318,36778,213381
37883,164315,36792,213347
37894,164303,36801,213368
37903,164300,36787,213375
37914,164331,36785,213367
37923,164313,36789,213347
37934,164326,36800,213368
37944,164312,36783,213380
38068,164305,36789,213362
38078,164239,36804,213344
38083,164288,36789,213357
38093,164297,36783,213344
38103,164283,36807,213312
38138,164309,36783,213348
38183,164297,36772,213369
38193,164278,36788,213355
38204,164296,36798,213355
38213,164278,36788,213342
38223,164276,36791,213341
38233,164299,36779,213341
38243,164281,36788,213335
38252,164285,36786,213333
38263,164272,36785,213339
38274,164279,36788,213335
38283,164265,36794,213332
38293,164291,36779,213332
38303,164270,36782,213323
38313,164285,36794,213344
38323,164281,36766,213309
38333,164276,36782,213323
38343,164274,36778,213317
38354,164266,36791,213324
38363,164267,36774,213315
38374,164286,36767,213327
38383,164264,36785,213308
38393,164266,36780,213325
38403,164260,36781,213316
38413,164269,36780,213271
38422,164255,36765,213314
38433,164254,36772,213312
38444,164271,36770,213305
38454,164268,36764,213289
38463,164254,36766,213324
38473,164266,36761,213316
38483,164263,36732,213303
38493,164263,36754,213273
38503,164266,36780,213293
38513,164269,36770,213307
38523,164240,36755,213300
38534,164268,36742,213287
38543,164252,36756,213293
38553,164251,36751,213267
38563,164229,36763,213280
38573,164245,36747,213295
38583,164255,36763,213283
38593,164249,36770,213278
38603,164235,36756,213257
38613,164242,36758,213273
38623,164233,36749,213287
38632,164255,36764,213283
38643,164258,36754,213294
38653,164247,36752,213285
38663,164238,36746,213280
38672,164257,36757,213275
38683,164249,36752,213287
38693,164244,36741,213291
38703,164235,36739,213263
38713,164238,36737,213268
38722,164228,36750,213241
38733,164234,36734,213261
38743,164222,36747,213240
38753,164240,36729,213264
38763,164225,36745,213234
38773,164220,36746,213262
38783,164213,36735,213258
38792,164219,36741,213271
38803,164242,36728,213264
38813,164227,36732,213249
38823,164225,36730,213252
38833,164216,36750,213248
38843,164223,36731,213247
38853,164229,36735,213240
38863,164213,36737,213232
38873,164206,36734,213242
38882,164225,36725,213246
38893,164211,36730,213240
38903,164221,36733,213229
38913,164210,36742,213231
38922,164237,36719,213227
38933,164200,36731,213226
38943,164219,36720,213228
38954,164210,36721,213226
38962,164202,36732,213223
38973,164180,36733,213245
38983,164207,36722,213226
38993,164216,36723,213226
39002,164218,36738,213217
39013,164212,36717,213230
39038,164207,36718,213232
39042,164211,36729,213230
39053,164204,36708,213247
39063,164195,36729,213216
39073,164186,36742,213216
39083,164213,36737,213217
39092,164207,36728,213240
39102,164212,36723,213234
39113,164195,36721,213231
39123,164210,36737,213229
39132,164205,36727,213216
39143,164201,36722,213248
39153,164211,36737,213257
39163,164221,36723,213255
39172,164207,36748,213240
39182,164210,36744,213254
39192,164211,36756,213235
39203,164192,36744,213247
39212,164209,36739,213233
39222,164219,36741,213248
39233,164224,36747,213236
39243,164217,36745,213268
39252,164230,36745,213254
39262,164221,36737,213269
39273,164218,36748,213269
39283,164238,36732,213237
39292,164227,36745,213250
39302,164228,36743,213249
39312,164219,36758,213271
39323,164223,36741,213279
39333,164221,36731,213267
39342,164232,36749,213276
39353,164220,36744,213273
39362,164225,36752,213246
39373,164225,36714,213271
39382,164211,36746,213242
39392,164219,36744,213225
39403,164195,36769,213265
39416,164214,36745,213266
39462,164207,36751,213253
39472,164211,36748,213226
39482,164211,36746,213250
39493,164221,36728,213258
39502,164208,36746,213241
39512,164231,36748,213251
39523,164207,36736,213255
39533,164214,36743,213257
39542,164207,36737,213259
39552,164213,36739,213264
39562,164200,36743,213253
39573,164221,36735,213260
39583,164208,36758,213240
39592,164213,36744,213250
39602,164216,36737,213258
39612,164206,36738,213255
39623,164226,36751,213268
39632,164216,36744,213266
39642,164214,36746,213263
39652,164221,36737,213263
39663,164222,36740,213262
39672,164219,36751,213260
39682,164217,36759,213248
39692,164213,36746,213283
39703,164215,36749,213253
39712,164230,36750,213284
39722,164227,36752,213273
39732,164210,36752,213283
39743,164216,36716,213289
39752,164225,36749,213276
39762,164206,36753,213281
39772,164240,36759,213282
39782,164236,36739,213274
39792,164214,36757,213282
39802,164240,36761,213297
39813,164225,36765,213278
39823,164234,36764,213292
39833,164234,36753,213307
39842,164220,36770,213310
39852,164244,36753,213323
39862,164227,36759,213279
39872,164243,36763,213323
39882,164252,36767,213314
39892,164257,36747,213318
39902,164246,36751,213338
39912,164245,36771,213331
39921,164264,36760,213342
39931,164248,36770,213336
39942,164256,36765,213349
39953,164271,36763,213344
39962,164259,36785,213326
39972,164252,36763,213348
39982,164264,36771,213358
39992,164268,36767,213379
40001,164268,36782,213334
40012,164283,36793,213369
40022,164267,36785,213370
40032,164270,36785,213371
40041,164279,36796,213385
40051,164283,36799,213365
40062,164262,36796,213394
40072,164288,36803,213401
40083,164307,36767,213402
40096,164287,36796,213375
40101,164290,36804,213400
40112,164290,36780,213390
40123,164293,36804,213395
40132,164303,36785,213391
40142,164299,36799,213406
40152,164274,36804,213413
40162,164286,36823,213400
40171,164303,36809,213423
40181,164295,36808,213403
40191,164293,36800,213405
40202,164305,36787,213405
40212,164313,36800,213412
40221,164296,36816,213414
40232,164309,36811,213432
40242,164314,36816,213448
40251,164319,36815,213472
40262,164322,36810,213536
40272,164360,36813,213598
40282,164395,36802,213723
40291,164433,36797,213797
40302,164468,36809,213889
40312,164490,36802,213931
40322,164506,36787,213957
40332,164495,36792,213982
40341,164518,36788,213993
40351,164540,36796,214057
40362,164537,36796,214130
40372,164601,36785,214240
40381,164624,36786,214381
40392,164722,36773,214556
40402,164771,36793,214711
40412,164864,36785,214953
40421,164934,36784,215079
40431,164970,36781,215157
40442,164994,36761,215223
40452,165050,36758,215296
40461,165092,36769,215444
40472,165133,36773,215559
40481,165192,36751,215624
40491,165224,36748,215732
40501,165287,36747,215802
40512,165333,36742,215855
40522,165397,36757,215935
40532,165431,36726,216011
40541,165477,36734,216063
40551,165485,36718,216057
40562,165485,36723,215989
40572,165457,36720,215928
40582,165455,36732,215863
40592,165457,36703,215831
40601,165467,36705,215763
40612,165435,36690,215687
40622,165420,36690,215627
40631,165369,36676,215472
40642,165302,36663,215306
40652,165232,36653,215115
40662,165156,36646,214880
40671,165085,36644,214709
40681,165003,36630,214510
40691,164907,36588,214249
40702,164737,36537,213981
40738,162685,35961,211315
40742,158859,35498,205784
40778,135990,34278,177964
40782,135762,33916,174348
40791,136431,33422,172143
40801,139302,33451,172740
40811,141028,33567,172517
40822,140084,33459,171188
40859,139279,33389,169942
40862,138955,33441,169415
40872,138973,33543,169345
40881,138812,33566,168971
40891,138675,33617,168677
40901,138570,33649,168399
40911,138498,33664,168214
40920,138427,33658,168073
40931,138405,33664,168103
40941,138604,33670,168337
40951,138861,33713,168685
40961,139105,33736,168951
40977,139428,33819,169401
40981,139750,33862,169786
40991,140080,33902,170158
41018,140667,34003,170866
41021,140976,34029,171279
41031,141308,34057,171761
41041,142131,34189,172975
41058,143093,34353,174178
41102,149456,35531,182877
41111,151370,35869,185414
41121,153118,36148,187988
41131,155182,36510,190926
41141,156856,36768,193116
41157,158161,37004,194998
41245,166021,38441,209058
41251,166684,38615,210450
41261,167452,38764,211956
41363,167154,38470,217180
41378,167242,38391,217238
41465,167278,38026,217440
41765,159002,37544,209402
41779,160694,37682,212098
41782,162424,37812,214443
41791,164208,37925,216726
41912,166449,37302,215713
41939,156908,36503,203022
41941,152424,36113,197370
41950,147482,35453,191227
41977,139940,34982,182876
41980,139779,35005,181711
41991,141131,34842,181902
42000,143580,34661,183683
42010,144689,34634,183961
42020,146643,34607,184624
42030,149134,34728,185738
42040,150408,34822,185600
42050,150800,34856,185006
42060,150953,34940,185035
42071,151037,35040,185035
42080,151260,35132,185171
42090,151216,35137,185066
42100,151353,35236,185217
42110,151429,35255,185338
42121,151589,35306,185551
42130,151889,35352,185923
42140,152181,35440,186313
42150,152527,35516,186801
42160,152846,35589,187185
42169,153134,35655,187569
42180,153407,35713,187910
42191,153628,35784,188217
42200,153766,35825,188398
42210,153846,35850,188511
42220,153945,35872,188640
42237,154102,35914,188832
42241,154233,35941,189002
42250,154291,35953,189026
42260,154318,35940,189081
42270,154401,35982,189231
42281,154966,36108,190128
42291,155570,36197,190888
42300,156248,36323,191881
42310,157245,36450,193282
42320,158380,36616,195023
42330,159897,36931,197540
42340,161534,37223,200338
42350,162959,37497,202891
42360,164169,37741,205147
42370,165307,37862,206886
42380,166056,37939,208374
42390,166694,38026,209917
42400,167460,38138,211566
42410,168094,38177,212967
42419,168671,38338,214324
42430,169143,38446,215595
42440,169587,38596,216592
42450,169718,38724,217390
42460,169406,38707,217874
42470,168023,38612,218128
42480,167362,38347,217769
42490,167187,38154,217510
42500,167148,38118,217381
42510,167227,38118,217280
42520,167355,38070,217244
42530,167394,37974,217167
42540,167476,37896,217332
42549,167631,37855,217640
42559,167770,37807,217796
42570,167839,37796,217875
42580,167924,37772,217898
42590,167998,37719,218038
42600,168069,37709,218194
42610,168155,37701,218429
42620,168238,37670,218573
42659,168334,37606,218708
42703,168211,37495,218887
42709,168149,37472,218875
42720,168063,37441,218894
42730,167864,37384,218859
42740,167745,37336,218779
42757,167606,37329,218680
42759,167263,37276,218308
42769,166828,37278,217820
42780,166564,37231,217702
42790,166468,37242,217702
42799,166396,37239,217732
42810,166379,37279,217794
42820,166455,37286,217937
42830,166575,37313,218171
42839,166768,37327,218477
42849,166986,37363,218794
42860,167217,37408,219138
42876,167385,37418,219382
42898,167721,37423,219797
42942,168315,37457,220456
42950,168288,37480,220352
42959,168356,37476,220228
42999,168310,37453,219803
43000,168309,37468,219629
43009,168255,37467,219422
43019,168210,37464,219326
43029,168217,37464,219205
43040,168190,37486,219062
43079,168348,37444,218958
43123,162361,36338,210409
43129,158623,35996,205318
43139,153442,35542,198842
43178,142266,35127,186724
43180,142152,35091,186239
43190,142733,35055,186255
43218,145159,34880,186788
43220,145851,34782,186177
43229,146092,34693,185097
43239,146866,34671,184781
43249,149153,34690,185576
43259,150191,34745,185950
43269,150821,34837,185939
43279,151129,34865,185956
43289,151183,34879,185991
43318,151185,34849,185968
43321,151325,34893,186165
43330,151681,34971,186713
43339,152503,35137,187862
43349,153510,35333,189194
43359,154606,35555,190676
43369,155785,35809,192302
43378,156878,36034,193827
43389,158048,36296,195499
43399,159469,36611,197581
43409,160716,36923,199714
43419,161904,37203,201889
43429,162992,37450,204105
43439,163907,37658,205922
43449,164983,37778,207657
43458,165938,38016,209601
43468,166783,38205,211297
43479,167715,38371,212968
43489,168446,38523,214445
43500,168258,38644,215468
43509,168116,38703,216115
43519,167432,38600,216583
43529,166578,38490,216792
43540,166169,38247,216586
43549,166303,38138,216703
43559,166420,38107,216901
43569,166620,38125,217022
43579,166899,38135,217015
43588,167019,38177,216997
43599,167195,38121,217071
43618,167338,37970,217116
43621,167478,37879,217100
43629,167608,37842,217186
43658,167852,37827,217408
43660,167935,37817,217383
43668,167970,37829,217368
43678,168030,37810,217406
43689,168066,37784,217485
43809,168531,37713,218446
43883,168537,37705,218429
43885,168515,37711,218366
43889,168508,37691,218340
43899,168523,37698,218299
43909,168510,37707,218352
43918,168534,37716,218329
43937,168501,37709,218362
44045,168443,37705,218205
44047,168340,37707,217994
44161,168164,37647,217123
44246,140292,35150,183514
44248,140224,35050,182542
44257,142189,34958,183406
44268,142810,34673,183254
44278,143602,34618,182616
44288,144250,34481,181964
44297,146559,34469,182424
44308,147597,34514,182288
44515,160500,37066,199602
44548,169869,38736,217340
44558,171086,38957,219574
44568,170766,39063,220717
44578,169169,38712,220201
44587,168561,38515,219217
44597,167919,38335,217898
44607,167414,38016,216691
44619,167213,37887,215969
44628,167218,37842,215784
44638,167341,37798,215791
44648,167406,37793,215852
44658,167369,37797,215905
44667,167342,37788,215982
44677,167325,37786,216055
44697,167367,37787,216195
44718,167516,37729,216518
44721,167658,37780,216802
44728,167753,37779,217094
44738,167845,37779,217318
44748,167910,37767,217462
44757,167898,37758,217527
44768,167914,37782,217586
44778,167958,37781,217712
44788,168009,37765,217876
44818,168131,37770,218157
45040,167812,37771,217514
45058,167640,37769,217063
45078,167557,37766,216779
45098,167529,37768,216673
45107,167495,37753,216634
45117,167475,37767,216595
45127,167459,37736,216556
45138,167487,37774,216578
45148,167565,37737,216698
45158,167679,37726,216828
45179,167910,37580,217073
45285,142163,34743,182915
45288,143196,34608,182745
45297,143954,34562,182243
45307,145979,34510,182705
45317,148347,34640,183631
45336,149170,34769,183962
45359,150874,35072,185278
45367,151121,35145,185538
45376,151560,35268,186023
45387,151889,35329,186346
45397,152427,35461,187200
45416,153488,35630,188647
45418,154683,35827,190414
45466,163658,37642,205462
45477,164959,37930,207798
45487,166342,38170,209933
45498,167296,38312,211867
45506,168104,38408,213520
45517,168774,38577,215242
45528,169448,38800,216559
45538,169230,38982,217201
45547,168596,38993,217679
45557,166965,38807,217647
45567,166233,38471,216637
45577,166091,38412,216603
45586,166351,38357,216725
45596,166741,38363,217017
45607,167110,38369,217079
45618,167343,38183,216856
45627,167527,38130,216711
45637,167682,38080,216661
45658,167975,38015,217085
45667,168117,37999,217311
45677,168229,37990,217527
45687,168365,37978,217846
45697,168530,37984,218177
45718,168749,37966,218692
45727,168857,37957,218926
45738,168917,37962,219100
45787,169007,37923,219304
45796,169018,37929,219361
45807,169033,37895,219344
45817,169029,37905,219355
45827,169008,37899,219378
45837,169025,37910,219372
45847,169040,37917,219435
45857,169042,37910,219496
45867,169087,37873,219553
45876,169097,37887,219596
45886,169139,37865,219647
45897,169142,37851,219719
45907,169115,37841,219801
45916,169101,37809,219940
45926,168975,37767,219968
45937,168738,37704,219887
45947,168313,37603,219581
45957,167618,37470,218709
45967,165997,37312,216709
45977,163366,37158,213643
45987,159549,37026,209415
45998,155865,36935,204979
46007,152986,36903,202232
46017,151969,36746,202572
46027,153796,36719,204374
46037,156334,36797,206583
46046,159093,36919,209120
46056,161868,37186,212189
46066,165633,37608,216310
46076,169237,38005,220209
46086,171706,38310,222957
46097,172933,38491,224823
46107,172463,38450,225517
46117,171656,38323,224030
46126,170437,38206,221792
46160,168427,38000,218428
46166,168078,37961,217937
46176,167876,37933,217617
46186,167748,37890,217443
46219,167428,37790,217045
46238,167250,37598,216806
46246,166603,37350,216094
46257,164418,36814,213133
46266,160801,36544,208312
46277,156018,36377,202472
46286,151428,36210,197008
46295,147870,35991,193350
46306,146070,35808,190697
46317,146153,35659,188681
46327,145177,35365,185467
46336,145317,35241,184266
46346,144667,34995,182019
46357,146144,34969,182083
46367,147520,35028,182027
46376,147170,35087,180962
46386,146900,35067,180216
46396,146619,35113,179658
46446,145849,35280,178225
46457,145877,35280,178302
46466,146278,35344,178847
46476,147015,35457,179903
46486,148011,35606,181344
46496,149064,35738,182691
46505,150128,35985,184318
46515,151878,36270,186726
46526,153727,36629,189363
46538,156129,37051,192765
46546,158108,37370,195660
46556,159740,37633,198165
46566,161095,37833,200716
46576,162518,38082,203504
46598,165702,38431,208777
46619,168240,38754,214481
46625,169260,38945,217165
46635,170455,39133,219425
46646,171597,39323,221296
46656,172276,39428,222696
46666,171481,39419,223376
46675,171209,39346,223915
46686,171132,39226,224168
46696,171108,39144,224493
46706,171087,39054,224729
46715,170938,38965,224760
46726,170797,38932,224743
46736,170642,38892,224640
46746,170397,38870,224502
46756,170092,38843,224172
46765,169757,38823,223743
46776,169467,38804,223377
46786,169174,38790,223014
46795,168773,38775,222499
46805,168388,38725,222014
46815,168154,38723,221754
46827,167908,38668,221440
46836,167740,38649,221232
46846,167618,38640,221114
46856,167502,38640,220947
46866,167559,38645,220974
46875,167422,38612,220841
46885,167553,38635,221112
46896,168023,38663,221675
46906,168579,38704,222358
46916,169224,38713,223243
46926,169863,38718,224056
46936,170492,38718,224799
46946,171023,38703,225328
46956,170946,38615,224595
46965,170582,38496,223267
46976,170201,38347,222014
46986,169812,38177,221002
46998,169481,38092,220194
47006,169260,38023,219573
47016,169053,37957,219042
47066,168473,37698,217869
47078,168411,37661,217768
47296,148918,35299,184775
47319,150845,35579,185197
47326,150851,35620,185194
47335,150996,35690,185351
47345,151073,35719,185267
47355,150909,35717,184957
47366,150937,35718,185039
47375,151252,35795,185418
47385,151576,35828,185880
47395,151708,35870,186107
47405,151819,35898,186267
47416,151869,35931,186257
47425,151881,35935,186162
47435,151985,35991,186320
47445,152327,36023,186618
47455,152761,36105,187183
47521,154311,36054,188731
47539,155275,36197,190377
47545,156039,36324,191505
47555,156966,36457,192871
47565,158028,36640,194529
47575,158556,36732,195459
47585,159400,36909,196845
47595,160403,37145,198503
47605,161717,37443,200762
47615,163470,37847,203634
47625,165011,38140,206127
47634,166217,38295,207774
47645,166836,38391,208986
47656,167355,38496,209967
47666,167817,38622,210924
47675,168620,38831,212631
47685,169466,38969,214310
47695,170822,39264,217299
47705,172310,39595,220791
47714,173656,39742,222997
47725,174730,39866,224800
47736,175545,39869,225864
47746,175841,39705,225392
47755,175974,39604,225030
47765,176157,39542,224898
47775,176513,39544,225107
47785,177280,39694,226271
47794,178066,39856,227659
47804,178584,39937,228648
47814,178757,39975,229235
47825,178796,39971,229700
47834,178808,39989,229993
47844,178706,39957,229626
47854,178526,39940,228996
47865,178259,39872,228036
47875,177823,39862,227092
47885,177513,39875,226439
47895,177326,39890,226205
47905,177239,39919,226224
47915,177094,39961,226391
47925,176975,39984,226578
47935,176765,40005,226738
47945,176520,40018,226840
47958,176328,40046,227138
47964,176084,40085,227792
47975,175760,40081,228336
47985,175354,39996,228767
47998,175034,39852,229054
48004,174459,39607,228562
48015,172592,39397,226628
48025,170997,38949,224144
48035,169517,38680,221965
48057,167497,38373,219039
48079,166545,38098,217353
48084,166089,38006,216794
48120,165448,37799,215853
48165,165126,37443,215777
48174,164866,37327,215622
48184,164382,37178,215011
48197,162989,36905,213220
48205,161027,36670,210731
48214,158460,36601,207318
48224,155391,36509,203641
48237,152489,36376,200128
48245,149589,36215,197063
48301,149774,36088,190372
48318,152296,36210,190748
48338,152777,36337,189150
48344,152604,36329,188573
48354,152090,36300,187784
48365,151832,36310,187184
48375,151493,36275,186498
48384,151233,36253,185980
48394,151102,36284,185701
48418,151167,36320,185588
48424,151133,36331,185447
48434,151155,36346,185314
48444,151074,36340,185048
48455,151006,36337,184807
48464,151666,36480,185615
48474,152843,36659,187085
48484,153981,36769,188576
48495,155687,36958,190902
48504,157252,37117,193156
48514,158866,37299,195762
48525,160800,37567,198795
48559,166447,38420,207876
48564,167804,38616,210240
48574,168757,38791,211997
48584,169505,38913,213347
48594,170156,39079,214840
48604,170713,39239,216061
48614,171259,39408,217279
48625,171840,39572,218818
48634,172485,39711,220514
48644,173578,39891,222902
48654,174658,40031,225308
48665,175788,40137,227569
48674,176648,40133,229212
48684,177193,40077,230167
48694,177462,40034,231149
48705,177588,39980,231440
48714,177606,39949,231521
48724,177487,39874,231446
48734,177347,39856,231053
48745,177353,39833,230786
48754,177300,39793,230678
48764,177209,39769,230430
48774,177211,39762,230330
48785,177055,39719,229997
48794,177072,39727,229669
48804,177105,39711,229427
48814,177143,39709,229174
48825,177138,39683,228908
48834,177043,39672,228615
48844,176899,39678,228300
48854,176766,39664,227968
48864,176683,39638,227787
48875,176655,39600,227534
48884,176659,39599,227413
48894,176715,39595,227442
48904,176778,39568,227498
48914,176812,39584,227630
48924,176717,39608,227869
48934,176499,39629,228122
48944,176125,39651,228309
48954,175722,39650,228601
48964,175525,39576,228955
48974,174199,39410,227807
48984,172185,39099,224817
48994,170382,38829,222263
49003,169118,38600,220591
49013,168280,38449,219380
49024,167800,38318,218558
49034,167392,38248,217964
49043,167086,38150,217645
49053,166906,38083,217438
49063,166747,38040,217273
49184,165124,37407,215301
49223,156905,36579,204903
49233,153921,36596,201403
49244,152266,36553,199605
49253,150592,36434,197834
49263,149038,36381,196167
49274,148549,36571,195316
49283,149608,36670,195309
49293,149712,36654,194084
49303,150083,36615,193858
49318,151260,36596,194273
49324,152089,36550,194326
49333,152394,36525,194067
49343,152819,36586,194065
49379,154507,36616,194406
49383,155208,36680,194458
49393,155833,36763,194625
49417,156333,36900,194705
49423,156483,36932,194607
49433,156597,36975,194571
49444,156792,37016,194621
49454,156853,37033,194539
49463,156953,37053,194508
49473,157099,37046,194459
49483,157469,37117,194967
49497,158242,37235,195961
49517,160222,37541,198999
49524,161176,37689,200684
49534,162007,37822,202128
49543,162929,37971,203716
49553,163811,38094,205239
49563,164617,38229,206736
49573,165451,38385,208382
49583,166315,38521,210151
49593,167151,38661,211999
49603,167995,38785,213893
49614,168678,38887,215791
49623,169367,39024,217518
49633,169944,39109,218918
49643,170327,39169,219816
49654,170740,39228,220850
49664,171426,39327,221993
49673,172304,39422,223367
49683,172853,39504,224665
49693,173092,39458,225617
49704,172985,39350,225963
49713,172303,39260,225490
49723,171628,39089,224734
49733,171057,38946,224100
49743,170666,38761,223749
49752,170467,38637,223586
49763,170288,38609,223467
49773,170203,38564,223368
49783,170146,38534,223283
49793,170078,38505,223228
49803,170031,38498,223155
49813,169991,38483,223117
49823,169954,38451,223105
49833,169912,38427,223096
49843,169906,38390,223106
49853,169853,38366,223136
49863,169864,38347,223131
49873,169802,38331,223099
49883,169784,38334,223083
49893,169743,38317,223059
49903,169700,38291,222981
49913,169655,38291,222934
49922,169600,38250,222918
49932,169570,38239,222883
49943,169452,38233,222775
49953,169306,38201,222730
49962,169243,38178,222687
49972,169215,38180,222677
49983,169207,38159,222704
49993,169225,38149,222717
50002,169239,38146,222756
50012,169239,38143,222703
50023,169236,38157,222655
50033,169203,38141,222549
50042,169145,38135,222258
50053,169010,38134,221802
50062,168811,38129,221210
50073,168616,38087,220574
50083,168429,38065,219957
50092,168271,38048,219476
50103,168143,38003,219052
50113,168021,38001,218708
50138,167871,37958,218279
50142,167774,37947,218109
50179,167599,37905,217753
50182,167603,37875,217768
50197,167646,37851,217786
50203,167701,37812,217871
50212,167699,37779,217873
50222,167585,37672,217723
50232,167288,37575,217383
50243,166816,37503,216949
50252,166502,37445,216653
50322,164175,37341,213891
50363,161307,37334,210524
50373,161077,37377,210328
50382,160904,37396,210322
50397,160865,37437,210335
50403,160881,37464,210480
50413,160951,37511,210654
50422,161272,37590,211093
50432,161648,37660,211633
50443,161849,37679,211943
50453,162314,37759,212681
50462,162967,37848,213646
50472,163783,37966,214812
50482,164773,38074,216058
50493,165491,38152,216899
50501,165877,38192,217413
50512,166034,38192,217659
50523,166116,38232,217847
50533,166281,38254,218154
50542,166498,38290,218532
50552,166740,38313,218801
50562,166861,38328,218798
50572,166915,38339,218637
50583,166973,38288,218380
50592,166972,38269,218196
50602,167049,38255,218060
50612,167130,38219,217988
50623,167174,38211,217885
50632,167233,38183,217835
50642,167291,38147,217800
50653,167318,38125,217810
50663,167346,38073,217776
50672,167363,38061,217763
50682,167392,38029,217760
50692,167381,38010,217759
50702,167380,38003,217775
50712,167385,37992,217817
50722,167397,37994,217840
50732,167373,37992,217881
50743,167363,37994,217867
50752,167321,37974,217850
50762,167343,37972,217887
50772,167416,37966,217925
50782,167423,37955,217952
50819,167461,37941,217860
50823,167443,37940,217832
50833,167440,37950,217807
50842,167480,37941,217797
50852,167466,37951,217811
50862,167518,37940,217841
50872,167531,37935,217844
50881,167558,37928,217850
50897,167586,37924,217863
50918,167672,37910,217946
50962,167810,37914,218092
50971,167786,37895,218105
51092,167979,37870,218208
51184,167731,37835,217834
51186,167721,37833,217788
51192,167727,37825,217733
51202,167702,37828,217706
51323,167559,37692,217762
51325,167506,37664,217747
51332,167456,37630,217676
51341,167322,37578,217591
51352,167175,37527,217502
51361,167032,37443,217384
51372,166790,37380,217183
51382,166381,37343,216826
51392,165981,37314,216464
51418,165152,37210,215601
51421,164527,37144,214850
51437,163866,37120,214120
51442,163193,37128,213353
51452,162585,37123,212753
51461,162206,37164,212470
51500,161328,37399,211664
51518,161100,37464,211644
51582,161537,37585,212536
51695,164215,38004,216077
51720,165538,38151,217742
51722,165884,38174,218186
51737,166263,38219,218549
51742,166519,38248,218763
51751,166662,38302,218780
51778,166756,38328,218350
51885,166769,38240,217508
51887,166806,38255,217537
51891,166819,38295,217471
51902,166809,38273,217522
51912,166836,38245,217438
51921,166765,38203,217395
51931,166788,38171,217433
51941,166837,38164,217570
51952,166884,38148,217709
51961,166947,38179,217899
51971,166988,38196,218009
51981,166956,38203,217979
51991,166895,38160,217912
52001,166886,38160,217860
52011,166871,38118,217789
52021,166872,38118,217833
52060,167004,38182,217953
52079,166893,38160,217648
52081,166890,38126,217582
52090,166831,38082,217471
52101,166866,38096,217499
52111,166910,38135,217576
52121,166962,38147,217659
52131,166956,38177,217648
52159,166889,38168,217528
52161,166874,38166,217479
52170,166884,38168,217543
52180,166929,38187,217649
52219,167098,38242,217905
52221,167169,38246,218031
52230,167240,38258,218116
52241,167301,38269,218226
52251,167404,38253,218332
52260,167445,38257,218415
52271,167511,38257,218495
52280,167595,38286,218524
52291,167673,38281,218603
52300,167721,38307,218707
52317,167784,38316,218773
52321,167821,38323,218806
52331,167814,38324,218847
52340,167863,38322,218905
52350,167902,38319,218936
52361,167897,38316,218996
52371,167881,38319,218992
52380,167872,38291,218928
52391,167860,38295,218921
52400,167894,38279,218923
52411,167915,38286,218949
52420,167950,38309,219025
52430,167997,38317,219104
52440,168079,38353,219173
52457,168109,38379,219294
52460,168107,38389,219346
52471,168088,38392,219353
52591,168432,38341,219376
52598,168467,38352,219427
52600,168529,38310,219474
52610,168555,38329,219547
52638,168702,38322,219817
52641,168760,38323,219906
52651,168829,38370,219953
52901,164513,37249,215700
52943,163518,37585,215034
52950,163320,37636,214829
52960,163301,37675,214906
53175,167583,38288,220350
53200,168102,38391,220720
53202,168328,38354,220757
53283,168350,38260,219897
53286,168317,38276,219758
53290,168272,38310,219607
53300,168307,38298,219529
53310,168213,38259,219412
53320,168191,38243,219276
53330,168131,38230,219125
53339,168071,38231,219021
53349,168050,38236,218970
53360,168030,38234,219000
53370,168064,38279,219048
53379,168120,38299,219130
53397,168166,38286,219151
53400,168187,38277,219198
53410,168188,38293,219196
53419,168212,38258,219216
53429,168260,38244,219291
53440,168272,38243,219396
53450,168290,38219,219473
53459,168300,38225,219602
53470,168330,38206,219644
53480,168276,38197,219546
53519,168020,38000,219267
53522,167856,37955,219093
53530,167716,37965,218989
53582,167385,38007,219029
53620,167416,38050,219069
53622,167469,38094,219131
53660,167630,38174,219359
53678,167677,38195,219367
53681,167679,38202,219348
53690,167657,38164,219267
53699,167654,38137,219236
53709,167665,38103,219213
53719,167689,38110,219240
53730,167745,38121,219311
53740,167772,38146,219367
53756,167784,38162,219431
53759,167835,38182,219519
53769,167838,38186,219556
53779,167899,38195,219640
53819,168021,38256,219847
53839,168066,38246,219845
53841,168063,38245,219833
53849,168096,38268,219784
53860,168088,38236,219791
53870,168130,38229,219790
53879,168163,38239,219866
53897,168246,38250,219973
53900,168324,38275,220072
53910,168342,38276,220133
53918,168390,38283,220167
53929,168434,38254,220223
53939,168524,38282,220300
53950,168619,38291,220414
53958,168686,38315,220517
53969,168746,38309,220598
53979,168783,38320,220609
53998,168795,38303,220613
54000,168808,38273,220632
54008,168768,38255,220611
54019,168762,38254,220640
54030,168762,38267,220648
54082,168749,38195,220756
54120,168453,38089,220396
54139,168304,38043,220116
54474,164812,38227,216775
54675,168280,38231,220041
54722,168277,38278,219783
54783,168272,38298,219456
54789,168306,38285,219559
54798,168362,38329,219695
54808,168397,38361,219730
54818,168377,38370,219588
54828,168355,38381,219448
54838,168330,38387,219345
54848,168347,38327,219321
54858,168361,38297,219308
54868,168400,38280,219388
54878,168414,38267,219441
54919,168378,38291,219421
54921,168379,38296,219451
54928,168393,38273,219499
54938,168417,38289,219585
54948,168426,38283,219615
54958,168439,38276,219713
54968,168461,38277,219772
54978,168468,38282,219893
54988,168505,38279,219947
54998,168519,38314,220013
55060,168604,38351,220259
55145,168735,38372,220143
55158,168759,38370,220184
55160,168828,38349,220224
55167,168839,38375,220297
55177,168874,38372,220316
55188,168883,38382,220352
55198,168895,38365,220387
55208,168934,38376,220408
55218,168992,38372,220463
55228,169001,38364,220469
55259,169134,38352,220547
55268,169184,38339,220602
55278,169207,38352,220638
55289,169224,38357,220686
55297,169229,38344,220688
55308,169231,38358,220680
55318,169246,38349,220664
55328,169264,38342,220663
55337,169334,38333,220686
55357,169371,38338,220717
55359,169449,38305,220780
55368,169471,38307,220816
55377,169512,38308,220875
55387,169550,38294,220908
55397,169594,38303,220921
55482,169734,38303,221164
55521,169746,38280,221204
55528,169765,38282,221234
55538,169734,38274,221247
55547,169705,38263,221282
55823,167303,37954,218475
55883,167570,38089,218729
55887,167600,38102,218794
55963,168112,38266,219599
55967,168255,38326,219815
55977,168421,38355,219955
55987,168497,38363,220056
56084,168962,38378,220023
56086,168949,38382,219985
56120,169031,38383,220112
56138,169070,38375,220163
56187,169166,38423,220332
56197,169179,38419,220337
56207,169213,38416,220343
56217,169152,38395,220238
56227,169099,38415,220060
56238,169087,38385,219965
56248,169107,38363,219976
56257,169116,38357,219976
56267,169123,38340,220024
56278,169162,38345,220070
56288,169151,38375,220073
56297,169093,38379,220061
56307,169075,38416,220056
56318,169047,38396,219967
56328,169035,38391,219984
56337,169112,38365,220018
56347,169106,38370,220053
56357,169104,38374,220028
56367,169094,38395,220098
56376,169098,38415,220119
56386,169049,38419,220064
56396,169000,38434,219996
56447,169049,38439,219978
56457,169059,38434,219941
56466,169056,38435,219951
56477,169065,38432,219947
56487,169120,38429,219993
56498,169149,38421,220041
56506,169167,38417,220107
56516,169182,38422,220159
56527,169250,38412,220206
56537,169256,38436,220250
56546,169277,38453,220342
56557,169286,38447,220382
56567,169319,38459,220454
56600,169417,38465,220661
56607,169453,38462,220693
56618,169472,38467,220773
56627,169471,38481,220834
56637,169540,38483,220838
56659,169586,38454,220851
56666,169629,38455,220857
56676,169690,38446,220899
56726,169879,38442,221072
56736,169895,38437,221066
56747,169917,38449,221063
56757,169938,38444,221108
56766,169981,38427,221147
56776,170008,38424,221192
56787,170023,38393,221210
57242,166751,38383,218373
57281,167446,38527,219429
57286,167645,38538,219674
57295,167854,38548,219955
57305,168091,38590,220253
57338,168721,38527,220854
57425,168893,38379,220440
57435,168775,38355,220174
57446,168710,38279,220103
57456,168666,38256,220066
57465,168531,38237,220055
57475,168516,38242,220174
57486,168498,38248,220268
57497,168466,38243,220286
57518,168479,38304,220451
57566,169008,38522,221454
57578,168951,38499,221340
57586,168870,38453,221183
57641,169139,38467,221720
57645,169151,38468,221759
57656,169191,38461,221697
57666,169134,38415,221634
57675,169126,38374,221662
57686,169203,38370,221732
57696,169244,38387,221834
57706,169323,38426,221914
57715,169378,38448,221945
57725,169410,38464,221993
57736,169433,38488,222010
57746,169462,38489,221995
57755,169423,38452,221888
57778,169390,38356,221619
57786,169348,38302,221516
57795,169385,38290,221530
57805,169436,38302,221626
57925,169736,38431,221559
57938,169794,38459,221574
57946,169829,38463,221592
57956,169838,38472,221562
57965,169815,38488,221493
58021,169874,38471,221337
58039,169981,38466,221320
58101,170032,38423,221212
58119,170117,38409,221282
58125,170184,38409,221299
58135,170244,38396,221320
58145,170293,38380,221364
58355,169973,38324,220972
58358,169930,38340,220894
58365,169877,38359,220816
58375,169841,38337,220790
58384,169829,38342,220751
58395,169794,38336,220711
58405,169785,38334,220689
58416,169755,38322,220676
58438,169774,38341,220708
58458,169810,38324,220784
58464,169804,38338,220824
58475,169823,38326,220857
58485,169841,38341,220871
58495,169863,38337,220905
58505,169854,38331,220956
58541,169884,38327,221045
58558,169912,38330,221044
58579,169864,38340,221054
58584,169889,38321,221063
58594,169879,38332,221065
58605,169861,38344,221081
58615,169878,38356,221086
58666,169877,38350,221068
58675,169922,38365,221070
58685,169864,38340,221076
58742,169889,38348,221082
58745,169894,38358,221083
58754,169883,38371,221071
58765,169891,38356,221079
58775,169901,38352,221065
58785,169880,38359,221058
58794,169895,38366,221077
58818,169902,38352,221076
58838,169888,38361,221092
58859,169897,38373,221088
58865,169920,38360,221088
58875,169909,38373,221098
58884,169911,38375,221081
58898,169919,38341,221094
58918,169931,38377,221095
58924,169912,38376,221100
58934,169943,38359,221099
58958,169949,38378,221120
58964,169947,38375,221122
58975,169955,38393,221110
58985,169933,38390,221110
58998,169945,38394,221134
59004,169968,38385,221130
59014,169972,38395,221141
59025,169985,38402,221136
59035,169978,38383,221159
59044,169991,38371,221170
59054,170000,38395,221184
59065,169995,38387,221163
59075,169998,38400,221152
59084,169998,38384,221172
59094,170006,38380,221184
59104,170012,38402,221174
59115,170004,38391,221186
59125,170021,38389,221206
59134,170013,38387,221196
59184,170046,38397,221229
59194,170033,38395,221232
59204,170051,38404,221214
59213,170054,38399,221230
59224,170074,38395,221230
59234,170062,38396,221222
59244,170044,38403,221245
59253,170047,38398,221256
59264,170078,38400,221266
59275,170065,38410,221272
59285,170091,38400,221269
59294,170083,38397,221273
59344,170102,38406,221282
59358,170081,38409,221273
59446,170127,38400,221311
59458,170100,38448,221277
59463,170132,38416,221332
59473,170129,38405,221307
59484,170119,38403,221312
59584,170171,38419,221360
59587,170168,38429,221369
59594,170166,38412,221342
59603,170172,38418,221375
59639,170189,38431,221396
59644,170182,38417,221397
59654,170207,38442,221378
59664,170176,38444,221392
59721,170203,38424,221387
59723,170196,38436,221402
59734,170206,38408,221370
59758,170210,38427,221414
59803,170229,38436,221410
59814,170215,38444,221424
59824,170214,38450,221421
59833,170213,38446,221421
59844,170207,38457,221436
59854,170214,38447,221433
59864,170232,38439,221448
59874,170232,38435,221415
59883,170242,38422,221432
59894,170246,38442,221453
59904,170229,38448,221436
59914,170247,38450,221449
59939,170255,38442,221457
59944,170239,38444,221460
59954,170233,38442,221464
59963,170260,38449,221439
59978,170264,38444,221461
59984,170248,38443,221445
59994,170258,38438,221443
60003,170252,38469,221441
60041,170268,38443,221460
60083,170277,38458,221464
60120,170266,38450,221458
60123,170274,38448,221458
60133,170255,38423,221443
60144,170274,38427,221427
60154,170285,38446,221442
60164,170276,38450,221453
60173,170274,38451,221477
60183,170280,38450,221449
60193,170274,38447,221452
60204,170271,38452,221461
60213,170285,38457,221456
60224,170266,38459,221445
60234,170279,38454,221430
60258,170288,38456,221456
60278,170297,38458,221459
60298,170293,38459,221464
60302,170305,38464,221471
60339,170293,38459,221456
60342,170288,38450,221470
60353,170278,38455,221458
60364,170288,38450,221456
60374,170282,38462,221436
60383,170286,38462,221461
60419,170325,38464,221459
60422,170331,38448,221484
60433,170321,38479,221472
60443,170325,38466,221490
60453,170334,38459,221488
60462,170326,38461,221489
60472,170340,38468,221502
60483,170323,38448,221475
60494,170333,38451,221493
60503,170336,38462,221457
60517,170316,38451,221493
60523,170331,38455,221491
60533,170339,38447,221514
60542,170339,38465,221491
60557,170353,38441,221496
60666,170351,38461,221524
60668,170352,38460,221502
60673,170357,38448,221486
60743,170347,38454,221517
60758,170350,38460,221480
60763,170360,38450,221543
60773,170376,38459,221533
60798,170378,38448,221535
60803,170375,38455,221521
60813,170351,38443,221511
60823,170332,38457,221551
60837,170355,38450,221544
60882,170387,38442,221533
60893,170364,38446,221514
60902,170373,38455,221520
60913,170372,38435,221527
60922,170371,38442,221537
60938,170378,38443,221543
60943,170386,38440,221549
60953,170428,38452,221538
60962,170384,38447,221555
60972,170383,38447,221554
60983,170380,38439,221569
61019,170400,38443,221549
61022,170381,38438,221551
61032,170391,38445,221565
61042,170390,38427,221541
61058,170400,38450,221565
61080,170386,38454,221560
61142,170397,38442,221557
61159,170380,38453,221555
61162,170403,38449,221541
61172,170412,38435,221529
61182,170405,38442,221532
61198,170399,38442,221552
61203,170399,38446,221575
61212,170411,38438,221548
61239,170406,38425,221559
61243,170405,38434,221557
61252,170377,38434,221588
61262,170416,38438,221550
61273,170400,38442,221540
61282,170412,38433,221525
61292,170420,38419,221538
61302,170419,38417,221564
61312,170426,38427,221523
61323,170398,38425,221560
61333,170405,38431,221551
61342,170411,38420,221563
61357,170414,38433,221525
61379,170409,38422,221558
61422,170422,38416,221536
61432,170420,38413,221488
61442,170413,38423,221532
61452,170409,38401,221544
61461,170436,38422,221519
61477,170417,38419,221539
61482,170429,38402,221538
61492,170408,38424,221541
61502,170426,38418,221539
61518,170427,38409,221524
61522,170415,38412,221534
61538,170452,38410,221524
61541,170418,38419,221521
61552,170412,38413,221490
61578,170412,38414,221463
61598,170371,38412,221394
61662,170324,38397,221249
61665,170316,38396,221218
61671,170285,38396,221191
61681,170298,38393,221170
61698,170313,38399,221165
61702,170314,38398,221187
61784,170252,38390,221028
61786,170275,38379,221044
61792,170241,38385,221054
61802,170312,38388,221054
61928,170400,38377,221233
61962,170312,38358,221178
62065,170120,38357,221097
62067,170098,38354,221088
62072,170066,38341,221109
62098,170099,38355,221215
62143,170009,38351,221172
62158,169998,38363,221134
62203,170029,38330,221246
62211,170045,38341,221253
62222,170056,38323,221270
62232,170066,38355,221301
62242,170080,38350,221333
62251,170103,38347,221356
62261,170109,38334,221391
62271,170134,38322,221424
62282,170157,38332,221453
62402,170204,38323,221625
62443,170284,38311,221803
62452,170223,38315,221793
62461,170250,38323,221805
62471,170264,38322,221842
62481,170292,38313,221853
62491,170311,38318,221857
62612,170354,38301,221906
62617,170333,38293,221927
62682,170409,38281,221949
62684,170396,38279,221966
62698,170373,38293,221946
62701,170411,38283,221964
62710,170437,38276,222022
62762,170449,38270,221994
62771,170464,38259,221963
62892,170531,38257,221991
62897,170523,38259,221982
62962,170529,38246,221980
63002,170564,38230,221995
63040,170586,38240,222006
63041,170572,38231,222028
63051,170591,38223,221971
63122,170607,38227,222060
63124,170617,38228,222084
63130,170592,38236,222081
63202,170673,38215,222235
63204,170661,38214,222213
63239,170653,38207,222180
63352,170687,38207,222191
63536,170779,38176,222242
63582,170797,38163,222281
63584,170826,38176,222271
63590,170828,38168,222293
63686,170864,38160,222329
63690,170853,38151,222283
63718,170872,38162,222345
63721,170875,38163,222342
63730,170860,38162,222306
63870,170921,38141,222426
63943,170892,38141,222437
63946,170885,38135,222432
63950,170890,38158,222399
63960,170883,38140,222403
63970,170867,38134,222358
63980,170843,38135,222343
64041,170842,38140,222285
64043,170839,38136,222280
64049,170831,38124,222272
64078,170822,38120,222248
64081,170829,38129,222228
64090,170796,38115,222152
64119,170813,38137,222168
64138,170791,38121,222123
64141,170799,38129,222101
64150,170787,38113,222033
64160,170764,38111,222042
64170,170738,38122,222006
64179,170736,38116,221968
64190,170695,38099,221959
64200,170721,38117,221938
64209,170718,38109,221950
64220,170733,38119,221968
64230,170705,38121,221913
64240,170724,38113,221936
64250,170716,38108,221901
64259,170708,38111,221928
64269,170699,38112,221947
64280,170714,38104,221943
64290,170714,38096,221959
64299,170720,38108,221972
64309,170716,38086,221972
64320,170730,38106,221972
64330,170712,38091,221970
64339,170709,38087,221952
64349,170713,38096,222013
64360,170739,38082,222038
64370,170751,38100,222029
64379,170725,38101,222033
64389,170732,38090,222041
64400,170760,38090,222025
64410,170724,38085,222038
64419,170754,38093,222041
64429,170738,38091,222067
64440,170792,38084,222075
64450,170780,38084,222084
64459,170799,38093,222084
64469,170806,38085,222113
64479,170813,38084,222121
64489,170825,38076,222137
64500,170849,38072,222148
64509,170860,38070,222195
64519,170866,38059,222163
64530,170881,38071,222202
64539,170881,38087,222199
64549,170894,38053,222181
64559,170894,38065,222207
64570,170894,38046,222211
64580,170915,38056,222211
64589,170883,38071,222221
64599,170908,38071,222217
64609,170941,38063,222253
64620,170907,38062,222265
64629,170941,38069,222221
64639,170933,38069,222274
64649,170951,38062,222280
64659,170978,38050,222274
64668,170956,38070,222268
64679,170962,38053,222293
64689,170977,38060,222254
64699,170961,38039,222308
64708,170999,38056,222318
64719,170970,38038,222297
64729,170980,38065,222324
64739,170976,38036,222294
64750,170990,38042,222284
64759,170983,38040,222324
64769,170984,38042,222312
64779,170992,38044,222287
64789,170979,38024,222324
64799,170972,38057,222285
64809,170974,38027,222273
64819,170973,38043,222300
64829,170995,38044,222277
64839,170992,38022,222309
64849,170996,38046,222324
64859,170973,38037,222295
64870,170987,38020,222311
64879,170969,38040,222288
64889,170974,38025,222276
64899,170974,38034,222296
64909,170970,38032,222306
64918,170976,38028,222288
64929,170965,38022,222298
64939,170973,38054,222286
64949,170975,38039,222255
64958,170983,38023,222281
64968,170975,38029,222311
64979,170975,38037,222285
64989,170990,38028,222263
64999,170984,38030,222277
65009,170991,38025,222259
65019,170991,38035,222270
65029,170985,38029,222261
65040,170967,38030,222271
65049,170969,38023,222287
65059,170987,38015,222269
65069,170976,38026,222261
65080,170973,38016,222261
65089,170972,38039,222288
65099,170953,38019,222255
65109,170979,38013,222264
65119,170977,38005,222253
65128,171006,38017,222279
65138,170997,38019,222260
65148,170990,38014,222279
65159,170991,37994,222266
65168,171014,38012,222279
65178,171016,38004,222275
65189,171032,37992,222274
65198,171030,37996,222257
65208,171022,37997,222263
65219,171033,37999,222300
65229,171044,37994,222322
65239,171031,37992,222311
65249,171036,37992,222279
65258,171050,37997,222302
65268,171044,37995,222309
65278,171046,37986,222303
65289,171055,37968,222285
65298,171038,37984,222276
65309,171032,37974,222320
65319,171031,37983,222298
65329,171034,37973,222312
65339,171029,37985,222301
65349,171033,37985,222316
65359,171025,37981,222318
65369,171035,37978,222329
65378,171040,37966,222339
65388,171042,37992,222333
65398,171044,37954,222323
65409,171041,37970,222291
65418,171036,37982,222309
65429,171039,37964,222292
65438,171046,37980,222346
65449,171029,37955,222297
65458,171034,37953,222288
65468,171033,37960,222326
65479,171046,37965,222333
65489,171053,37958,222324
65499,171053,37948,222325
65508,171053,37962,222304
65518,171040,37965,222350
65528,171055,37956,222322
65539,171047,37941,222336
65548,171052,37962,222319
65558,171043,37945,222351
65568,171044,37969,222341
65578,171055,37960,222344
65588,171059,37924,222353
65598,171066,37948,222324
65609,171032,37936,222329
65619,171051,37953,222348
65628,171046,37959,222361
65638,171059,37953,222360
65648,171060,37939,222356
65659,171067,37959,222340
65668,171035,37956,222366
65678,171057,37959,222363
65688,171061,37968,222357
65698,171044,37947,222374
65708,171050,37960,222348
65718,171074,37939,222369
65728,171052,37936,222324
65738,171067,37928,222345
65749,171057,37928,222340
65758,171057,37945,222343
65768,171069,37956,222348
65778,171060,37949,222351
65789,171078,37929,222346
65798,171063,37947,222335
65808,171056,37941,222372
65818,171051,37952,222362
65828,171059,37937,222361
65838,171050,37954,222342
65848,171032,37935,222369
65858,171066,37943,222335
65868,171058,37935,222368
65878,171061,37947,222350
65888,171059,37955,222357
65898,171050,37936,222370
65908,171059,37919,222369
65917,171053,37933,222343
65928,171063,37930,222382
65938,171059,37937,222354
65948,171052,37923,222378
65958,171051,37924,222331
65967,171048,37918,222378
65978,171063,37920,222348
65988,171041,37916,222349
65998,171061,37910,222331
66007,171038,37904,222354
66018,171051,37907,222343
66028,171044,37898,222373
66038,171058,37920,222337
66048,171035,37912,222318
66058,171062,37910,222298
66068,171020,37910,222341
66079,171030,37915,222338
66088,171052,37901,222329
66098,171027,37909,222339
66108,171042,37898,222332
66119,171029,37905,222329
66128,171039,37901,222320
66138,171026,37896,222330
66148,171028,37892,222327
66159,171028,37898,222321
66168,171041,37893,222319
66178,171037,37900,222331
66188,171031,37895,222319
66198,171021,37889,222326
66208,171046,37898,222325
66217,171024,37879,222328
66227,171022,37893,222317
66238,171033,37900,222321
66248,171039,37885,222334
66257,171033,37889,222319
66267,171041,37893,222318
66278,171020,37876,222296
66288,171013,37898,222320
66297,171031,37887,222284
66307,171002,37883,222298
66317,171003,37892,222298
66328,171016,37866,222296
66338,171021,37892,222305
66348,171014,37884,222301
66358,171018,37875,222292
66368,170999,37866,222309
66378,170988,37872,222312
66388,171000,37866,222296
66398,170992,37881,222290
66408,171007,37860,222299
66417,171023,37863,222284
66427,171000,37893,222296
66438,170992,37878,222299
66448,171001,37897,222302
66458,170998,37859,222291
66467,171000,37893,222317
66478,170999,37862,222301
66488,170987,37873,222299
66498,170997,37857,222281
66507,170992,37860,222282
66518,170994,37873,222301
66528,170991,37868,222280
66538,170980,37873,222312
66547,171007,37879,222279
66557,170997,37866,222291
66567,171018,37890,222304
66578,171001,37860,222292
66587,171011,37878,222295
66598,170974,37871,222303
66608,171000,37846,222298
66618,170994,37877,222303
66627,170997,37856,222296
66638,170996,37865,222304
66648,171006,37856,222304
66658,171008,37857,222311
66667,171002,37856,222293
66677,171008,37865,222290
66687,171001,37867,222309
66697,170999,37853,222277
66707,171002,37869,222286
66718,170982,37868,222285
66728,170987,37863,222285
66738,171013,37864,222268
66748,170991,37842,222281
66757,170997,37856,222291
66767,171004,37853,222291
66777,171016,37857,222283
66787,170998,37864,222291
66797,171003,37859,222263
66807,170993,37844,222279
66817,171008,37856,222270
66828,170997,37844,222276
66837,171012,37849,222264
66847,171012,37850,222282
66858,171012,37850,222264
66868,170983,37836,222282
66877,171008,37850,222254
66886,170992,37845,222262
66898,171002,37836,222280
66907,170977,37840,222281
66917,170991,37821,222252
66927,170992,37830,222274
66937,170978,37831,222249
66947,170996,37839,222230
66957,170982,37828,222250
66967,170969,37825,222267
66977,170978,37831,222246
66987,170962,37829,222256
66998,170948,37817,222244
67007,170977,37823,222264
67017,170968,37816,222251
67027,170976,37817,222252
67038,170983,37806,222238
67046,170963,37817,222230
67056,170974,37824,222246
67067,170968,37829,222220
67078,170971,37815,222241
67087,170967,37819,222225
67097,170956,37808,222252
67107,170964,37801,222231
67117,170965,37818,222235
67126,170986,37809,222227
67136,170975,37817,222228
67146,170983,37807,222240
67158,170972,37806,222240
67167,170969,37802,222260
67177,170985,37805,222221
67187,170983,37804,222249
67197,170969,37807,222238
67207,170971,37798,222248
67216,170981,37794,222254
67226,170980,37816,222238
67238,170954,37793,222234
67247,170978,37805,222240
67257,170960,37805,222237
67267,170965,37800,222218
67277,170979,37794,222230
67287,170964,37782,222253
67297,170961,37792,222237
67307,170958,37792,222252
67317,170973,37787,222240
67327,170957,37792,222250
67336,170959,37798,222253
67347,170963,37795,222245
67357,170966,37778,222215
67367,170955,37791,222219
67376,170972,37786,222235
67386,170975,37801,222229
67396,170955,37782,222229
67407,170966,37786,222220
67416,170951,37781,222214
67426,170940,37793,222224
67436,170955,37781,222235
67446,170949,37785,222203
67458,170964,37791,222221
67467,170959,37798,222225
67477,170959,37777,222220
67487,170949,37785,222209
67497,170929,37797,222230
67506,170960,37785,222219
67516,170949,37785,222202
67526,170943,37789,222235
67536,170943,37775,222231
67546,170941,37792,222203
67556,170964,37786,222198
67566,170941,37789,222229
67577,170939,37792,222227
67586,170922,37782,222224
67597,170946,37779,222231
67607,170926,37771,222212
67617,170926,37777,222221
67626,170943,37776,222237
67636,170919,37781,222194
67646,170893,37775,222206
67657,170923,37772,222199
67666,170899,37779,222174
67677,170911,37761,222171
67687,170893,37773,222179
67697,170898,37784,222165
67707,170878,37779,222178
67716,170887,37757,222165
67726,170887,37764,222177
67736,170885,37769,222148
67747,170878,37775,222148
67756,170880,37758,222158
67766,170885,37758,222182
67776,170899,37758,222168
67786,170899,37744,222158
67796,170891,37750,222140
67806,170891,37762,222161
67816,170893,37741,222158
67826,170877,37749,222174
67836,170889,37735,222144
67846,170869,37752,222139
67856,170885,37731,222157
67866,170879,37749,222137
67875,170878,37746,222170
67886,170902,37751,222133
67897,170889,37746,222159
67907,170870,37737,222123
67916,170879,37732,222126
67926,170877,37737,222130
67936,170850,37731,222145
67946,170859,37735,222127
67957,170838,37737,222148
67966,170850,37734,222135
67976,170834,37734,222123
67986,170859,37727,222142
67997,170850,37713,222133
68006,170846,37731,222112
68016,170858,37732,222124
68026,170840,37733,222141
68036,170849,37728,222119
68045,170865,37723,222119
68055,170847,37730,222107
68066,170864,37703,222103
68077,170839,37729,222114
68086,170851,37714,222122
68096,170847,37719,222121
68106,170851,37717,222113
68116,170840,37730,222111
68125,170820,37709,222112
68135,170823,37710,222110
68145,170854,37724,222116
68157,170833,37695,222107
68166,170820,37719,222100
68176,170821,37713,222097
68186,170819,37713,222103
68196,170802,37722,222091
68206,170794,37727,222067
68215,170813,37714,222081
68225,170838,37693,222087
68236,170824,37683,222077
68246,170817,37716,222067
68256,170812,37713,222078
68266,170824,37711,222094
68276,170827,37710,222086
68286,170817,37712,222091
68295,170814,37715,222083
68305,170807,37692,222090
68316,170805,37706,222084
68326,170822,37707,222077
68335,170812,37710,222083
68346,170812,37708,222068
68356,170804,37705,222072
68366,170798,37704,222055
68375,170797,37701,222069
68385,170811,37707,222076
68395,170812,37709,222082
68406,170794,37696,222068
68416,170806,37689,222069
68426,170782,37695,222047
68436,170810,37703,222044
68446,170792,37711,222058
68456,170813,37696,222035
68465,170807,37700,222069
68475,170786,37703,222041
68485,170805,37697,222057
68496,170775,37700,222057
68506,170776,37703,222051
68516,170793,37703,222013
68526,170783,37698,222029
68536,170760,37703,222049
68545,170778,37703,222038
68555,170776,37709,222022
68565,170768,37697,222039
68575,170796,37685,222051
68598,170783,37686,222037
68605,170803,37680,222052
68615,170792,37699,222027
68625,170789,37664,222021
68636,170769,37682,222044
68646,170767,37678,222008
68656,170785,37679,222002
68666,170781,37666,222021
68675,170781,37672,222009
68685,170777,37678,222000
68695,170794,37670,221994
68706,170806,37650,222002
68715,170789,37664,222000
68725,170792,37637,222001
68736,170802,37667,221992
68746,170775,37670,222008
68755,170799,37650,222003
68765,170808,37651,222011
68775,170782,37653,221976
68786,170777,37658,222005
68795,170795,37655,221991
68805,170765,37662,221992
68816,170788,37648,222017
68826,170783,37650,221991
68835,170765,37666,222000
68845,170782,37650,222011
68855,170780,37647,221999
68865,170767,37650,222011
68875,170776,37642,221991
68885,170768,37644,222012
68895,170755,37643,221990
68905,170775,37646,221986
68915,170774,37636,221987
68925,170784,37637,221996
68935,170757,37637,221987
68945,170775,37641,222000
68955,170763,37638,221987
68965,170776,37639,222008
68975,170785,37609,221983
68985,170785,37635,221988
68996,170752,37633,222004
69004,170784,37619,221975
69015,170793,37619,221967
69026,170788,37623,221989
69036,170795,37636,221997
69045,170790,37627,221986
69055,170777,37626,221981
69065,170763,37633,221984
69075,170791,37626,222003
69085,170788,37621,221976
69095,170758,37627,221980
69105,170767,37639,222004
69115,170766,37631,221974
69125,170779,37625,221984
69135,170786,37625,221986
69145,170788,37614,221972
69155,170782,37625,221986
69165,170768,37631,221987
69175,170783,37606,221960
69185,170781,37622,221980
69195,170798,37623,221954
69205,170762,37616,221981
69215,170770,37614,221995
69225,170781,37617,221984
69235,170776,37627,221983
69245,170757,37629,221980
69254,170792,37610,221965
69265,170780,37627,221968
69275,170771,37620,221972
69285,170758,37629,221988
69294,170778,37613,221980
69305,170756,37621,221974
69315,170781,37634,221981
69325,170782,37609,221995
69334,170771,37636,221984
69345,170767,37630,221959
69355,170767,37602,221969
69365,170771,37608,221981
69375,170758,37622,221976
69385,170758,37622,221973
69395,170769,37604,221963
69405,170772,37618,221949
69415,170766,37619,221967
69425,170754,37621,221936
69435,170755,37615,221940
69445,170774,37615,221928
69455,170764,37598,221968
69465,170783,37616,221939
69475,170745,37618,221944
69485,170764,37609,221936
69495,170731,37602,221949
69504,170768,37598,221933
69514,170757,37593,221939
69525,170754,37601,221934
69535,170769,37605,221940
69544,170762,37578,221949
69555,170752,37605,221944
69565,170777,37592,221924
69575,170756,37606,221938
69585,170753,37596,221931
69595,170767,37586,221924
69605,170751,37581,221937
69615,170767,37575,221927
69625,170774,37575,221948
69635,170774,37580,221941
69645,170757,37584,221938
69655,170771,37575,221916
69665,170745,37560,221942
69675,170774,37567,221935
69685,170761,37570,221947
69695,170773,37567,221924
69704,170761,37582,221929
69714,170763,37568,221911
69725,170772,37570,221927
69735,170762,37560,221887
69744,170746,37566,221921
69755,170765,37549,221913
69765,170754,37561,221918
69775,170768,37553,221920
69784,170747,37564,221920
69794,170774,37551,221934
69804,170758,37561,221895
69815,170760,37570,221914
69824,170762,37567,221933
69834,170750,37563,221936
69844,170759,37554,221904
69855,170770,37560,221913
69864,170771,37552,221920
69875,170740,37553,221916
69884,170774,37561,221931
69895,170751,37543,221899
69904,170736,37564,221885
69915,170759,37560,221921
69924,170758,37552,221917
69935,170740,37559,221938
69944,170755,37563,221901
69954,170763,37554,221925
69963,170757,37553,221916
69974,170771,37541,221924
69985,170759,37554,221934
69995,170771,37544,221896
70004,170757,37563,221918
70014,170755,37554,221892
70024,170745,37556,221922
70035,170747,37563,221930
70044,170775,37560,221921
70054,170744,37556,221919
70064,170755,37554,221900
70074,170743,37568,221901
70084,170752,37543,221913
70094,170748,37552,221905
70104,170760,37560,221915
70114,170766,37560,221900
70125,170771,37540,221909
70134,170762,37551,221915
70144,170783,37549,221904
70154,170750,37555,221899
70165,170782,37553,221921
70174,170774,37562,221914
70184,170787,37558,221929
70194,170777,37555,221893
70204,170778,37553,221898
70213,170782,37550,221899
70224,170786,37534,221905
70234,170780,37566,221891
70244,170782,37540,221909
70253,170776,37547,221894
70264,170773,37544,221900
70274,170768,37552,221877
70284,170786,37543,221891
70294,170779,37552,221911
70304,170799,37554,221880
70314,170787,37557,221884
70325,170770,37544,221905
70334,170785,37541,221905
70344,170773,37539,221903
70354,170772,37521,221886
70364,170782,37534,221897
70374,170788,37537,221899
70384,170780,37524,221878
70394,170777,37535,221897
70404,170791,37527,221909
70414,170790,37508,221883
70423,170789,37526,221898
70434,170802,37538,221893
70444,170801,37517,221898
70455,170782,37525,221905
70464,170814,37522,221879
70474,170787,37519,221875
70484,170790,37506,221890
70494,170790,37520,221886
70503,170799,37518,221877
70514,170789,37511,221890
70524,170785,37517,221880
70534,170803,37497,221888
70543,170807,37521,221890
70553,170797,37514,221889
70564,170788,37512,221891
70574,170802,37493,221904
70583,170810,37503,221874
70594,170791,37506,221894
70603,170798,37506,221891
70613,170795,37516,221900
70624,170804,37503,221883
70633,170791,37508,221899
70643,170796,37508,221886
70653,170789,37503,221880
70664,170794,37486,221872
70673,170793,37498,221831
70684,170787,37509,221870
70694,170766,37504,221867
70704,170787,37507,221858
70713,170778,37488,221851
70723,170795,37480,221861
70733,170775,37494,221836
70744,170777,37498,221882
70753,170778,37512,221831
70763,170792,37494,221857
70773,170797,37506,221834
70784,170765,37511,221850
70793,170776,37497,221814
70803,170767,37503,221825
70813,170770,37488,221817
70824,170760,37504,221826
70833,170771,37510,221819
70843,170771,37505,221823
70854,170798,37486,221813
70863,170779,37503,221796
70874,170789,37503,221822
70884,170767,37492,221825
70894,170771,37496,221819
70904,170770,37502,221824
70914,170771,37501,221830
70923,170768,37498,221808
70933,170782,37499,221802
70944,170783,37483,221818
70954,170782,37500,221817
70963,170770,37503,221805
70973,170764,37502,221793
70983,170770,37485,221801
70994,170768,37491,221808
71002,170759,37505,221797
71013,170772,37496,221823
71024,170762,37497,221826
71034,170748,37509,221812
71043,170763,37493,221794
71053,170765,37508,221820
71063,170753,37494,221794
71074,170754,37489,221811
71083,170757,37509,221796
71093,170759,37512,221815
71103,170761,37493,221799
71114,170765,37493,221817
71124,170758,37492,221789
71133,170742,37506,221786
71143,170769,37498,221810
71153,170747,37496,221791
71164,170749,37512,221787
71173,170752,37492,221774
71183,170743,37493,221786
71193,170745,37487,221783
71204,170752,37477,221769
71213,170755,37490,221761
71223,170744,37482,221773
71233,170733,37488,221780
71244,170757,37475,221760
71253,170743,37481,221753
71263,170743,37502,221773
71273,170739,37493,221730
71284,170753,37483,221749
71293,170745,37494,221768
71303,170748,37483,221761
71313,170734,37463,221745
71324,170725,37477,221758
71333,170762,37486,221747
71343,170729,37484,221760
71353,170744,37455,221746
71363,170736,37474,221732
71373,170741,37462,221767
71383,170732,37486,221741
71393,170727,37480,221752
71403,170731,37467,221762
71413,170740,37457,221744
71423,170759,37476,221760
71433,170730,37466,221742
71443,170726,37471,221744
71454,170716,37471,221744
71462,170737,37469,221728
71473,170734,37449,221727
71483,170720,37460,221737
71494,170723,37448,221743
71503,170719,37466,221707
71513,170731,37460,221718
71523,170732,37461,221750
71533,170720,37463,221730
71543,170722,37481,221725
71553,170717,37470,221729
71563,170724,37472,221715
71573,170739,37466,221720
71583,170723,37459,221718
71592,170717,37471,221718
71603,170721,37458,221724
71613,170723,37464,221738
71623,170713,37453,221718
71632,170711,37470,221719
71642,170709,37459,221711
71652,170702,37458,221713
71663,170708,37443,221700
71672,170713,37470,221722
71682,170691,37448,221695
71692,170717,37464,221700
71703,170701,37457,221697
71713,170686,37458,221701
71722,170685,37471,221695
71733,170701,37456,221690
71743,170686,37465,221674
71752,170693,37461,221696
71763,170677,37461,221689
71773,170686,37464,221685
71783,170678,37471,221698
71792,170691,37469,221679
71803,170688,37472,221695
71813,170696,37462,221671
71823,170678,37474,221683
71833,170678,37475,221682
71842,170671,37455,221697
71852,170683,37478,221695
71863,170672,37467,221690
71873,170679,37465,221689
71882,170677,37463,221698
71893,170675,37469,221671
71902,170672,37468,221639
71913,170686,37457,221677
71922,170673,37462,221675
71933,170692,37461,221666
71942,170675,37457,221667
71953,170677,37470,221670
71963,170663,37455,221676
71973,170665,37462,221646
71982,170681,37456,221662
71993,170672,37442,221662
72002,170675,37449,221646
72013,170693,37434,221627
72023,170671,37456,221646
72033,170663,37443,221610
72042,170662,37445,221617
72052,170674,37449,221602
72063,170638,37451,221625
72073,170661,37444,221621
72083,170653,37447,221629
72092,170659,37443,221620
72102,170665,37433,221637
72113,170663,37433,221627
72122,170652,37434,221603
72132,170665,37416,221604
72143,170649,37431,221610
72153,170671,37432,221611
72163,170655,37420,221599
72172,170661,37442,221607
72182,170655,37427,221600
72192,170666,37419,221600
72203,170656,37418,221604
72212,170658,37427,221590
72222,170669,37430,221602
72232,170653,37424,221587
72243,170651,37418,221603
72252,170637,37426,221588
72262,170656,37421,221572
72272,170657,37432,221588
72282,170634,37414,221583
72291,170644,37426,221553
72302,170635,37435,221573
72312,170656,37433,221564
72322,170648,37410,221570
72332,170647,37422,221568
72342,170630,37412,221566
72352,170640,37426,221542
72362,170646,37424,221574
72372,170641,37425,221573
72382,170647,37420,221571
72392,170634,37408,221563
72402,170636,37430,221547
72412,170644,37428,221537
72422,170642,37423,221565
72432,170645,37398,221549
72442,170646,37430,221552
72452,170650,37409,221550
72462,170635,37415,221522
72472,170640,37421,221538
72483,170634,37419,221556
72498,170648,37421,221527
72501,170638,37416,221553
72511,170694,37421,221536
72522,170633,37424,221531
72532,170640,37428,221532
72541,170638,37434,221540
72552,170645,37437,221533
72562,170649,37419,221524
72573,170626,37425,221529
72582,170640,37424,221540
72592,170617,37421,221533
72602,170637,37431,221545
72613,170627,37420,221533
72622,170639,37421,221535
72631,170617,37432,221513
72642,170631,37422,221517
72652,170626,37426,221530
72662,170626,37404,221498
72671,170646,37432,221516
72682,170625,37416,221509
72692,170617,37431,221521
72702,170631,37408,221494
72711,170620,37429,221493
72721,170616,37409,221524
72731,170616,37418,221490
72742,170617,37410,221495
72752,170615,37412,221483
72761,170600,37419,221471
72772,170598,37425,221478
72782,170602,37412,221477
72792,170612,37405,221472
72801,170603,37418,221456
72812,170613,37414,221474
72822,170611,37406,221476
72832,170606,37423,221436
72842,170607,37407,221463
72852,170608,37400,221438
72862,170594,37407,221455
72872,170606,37421,221455
72882,170605,37392,221450
72892,170602,37410,221436
72901,170597,37396,221453
72912,170612,37396,221427
72921,170603,37394,221431
72932,170592,37383,221432
72941,170602,37392,221426
72952,170606,37381,221419
72961,170593,37386,221419
72972,170606,37379,221423
72981,170608,37390,221423
72992,170597,37374,221433
73001,170602,37391,221407
73012,170604,37380,221408
73022,170602,37397,221418
73032,170599,37398,221419
73041,170591,37401,221414
73051,170581,37397,221408
73061,170573,37386,221412
73072,170588,37392,221424
73082,170589,37379,221405
73092,170594,37390,221420
73101,170580,37392,221396
73112,170583,37362,221416
73121,170571,37379,221384
73131,170597,37386,221396
73142,170584,37391,221394
73152,170590,37377,221405
73162,170585,37368,221387
73171,170591,37388,221399
73182,170583,37379,221374
73192,170581,37382,221398
73202,170583,37364,221378
73211,170583,37384,221382
73221,170581,37385,221376
73232,170587,37382,221393
73242,170575,37380,221386
73251,170559,37382,221349
73261,170569,37372,221374
73271,170571,37386,221363
73282,170554,37396,221367
73291,170572,37388,221365
73301,170565,37399,221351
73311,170574,37389,221372
73321,170569,37391,221378
73331,170566,37389,221360
73341,170564,37383,221372
73351,170576,37382,221343
73361,170560,37385,221370
73371,170583,37385,221357
73381,170555,37389,221359
73391,170566,37370,221354
73401,170524,37388,221369
73411,170563,37390,221365
73421,170565,37392,221356
73431,170556,37393,221351
73442,170552,37395,221369
73452,170563,37376,221355
73461,170551,37388,221346
73471,170527,37397,221351
73481,170555,37390,221331
73491,170573,37380,221340
73500,170556,37394,221347
73510,170554,37386,221340
73521,170551,37383,221344
73531,170536,37392,221330
73541,170558,37387,221330
73551,170546,37384,221330
73561,170534,37381,221313
73572,170536,37380,221321
73581,170538,37391,221279
73591,170520,37394,221313
73601,170545,37385,221290
73612,170529,37389,221308
73622,170540,37388,221286
73631,170532,37372,221310
73641,170526,37380,221291
73651,170552,37355,221287
73661,170542,37374,221300
73671,170526,37373,221302
73681,170548,37362,221293
73691,170529,37362,221301
73701,170533,37355,221281
73710,170541,37360,221291
73721,170530,37365,221267
73731,170530,37369,221282
73741,170528,37338,221274
73750,170521,37358,221286
73761,170534,37351,221272
73771,170517,37369,221275
73781,170523,37345,221281
73791,170536,37331,221273
73801,170513,37353,221279
73811,170521,37349,221235
73821,170515,37341,221256
73831,170525,37350,221256
73841,170512,37356,221249
73851,170527,37345,221245
73861,170517,37352,221260
73871,170519,37358,221250
73880,170514,37357,221263
73890,170495,37345,221228
73901,170506,37357,221247
73911,170489,37352,221250
73920,170508,37355,221241
73931,170512,37342,221233
73940,170511,37354,221218
73951,170501,37339,221232
73961,170507,37356,221214
73971,170536,37343,221230
73980,170518,37354,221234
73991,170522,37330,221242
74001,170496,37356,221222
74011,170515,37343,221232
74021,170490,37351,221210
74031,170493,37356,221241
74041,170492,37353,221243
74051,170488,37338,221206
74061,170507,37331,221225
74071,170492,37350,221232
74081,170494,37356,221224
74097,170492,37353,221228
74101,170498,37346,221234
74111,170505,37351,221265
74121,170505,37334,221225
74131,170503,37341,221212
74141,170500,37333,221196
74151,170510,37347,221210
74161,170491,37352,221217
74170,170473,37353,221202
74181,170489,37352,221229
74191,170469,37342,221204
74201,170482,37357,221209
74210,170466,37350,221217
74221,170488,37337,221204
74231,170462,37343,221215
74241,170483,37348,221202
74250,170489,37354,221210
74261,170479,37333,221187
74271,170460,37355,221191
74281,170481,37328,221193
74291,170485,37355,221196
74300,170480,37354,221204
74310,170492,37360,221178
74321,170482,37369,221183
74338,170484,37353,221176
74340,170474,37358,221203
74350,170461,37390,221175
74361,170479,37356,221190
74371,170468,37352,221191
74380,170485,37360,221162
74390,170441,37352,221171
74400,170458,37356,221173
74410,170441,37368,221193
74420,170454,37355,221186
74430,170442,37351,221161
74440,170465,37354,221164
74450,170455,37348,221170
74460,170464,37361,221170
74470,170436,37343,221155
74480,170466,37349,221155
74490,170454,37341,221159
74500,170468,37342,221130
74510,170472,37355,221124
74520,170470,37323,221133
74531,170482,37341,221139
74541,170456,37329,221109
74550,170443,37325,221120
74560,170460,37333,221118
74570,170459,37347,221116
74581,170448,37333,221096
74590,170442,37314,221103
74600,170452,37326,221113
74610,170404,37330,221125
74620,170452,37323,221129
