timestamp,red,green,ir
9344,168490,31824,226541
9355,168475,31810,226557
9365,168485,31816,226561
9375,168479,31814,226538
9384,168457,31818,226563
9395,168485,31830,226541
9405,168461,31819,226534
9415,168484,31822,226539
9424,168470,31814,226540
9434,168504,31818,226545
9444,168488,31824,226560
9455,168494,31811,226572
9464,168503,31809,226575
9474,168503,31818,226604
9484,168510,31821,226610
9494,168537,31821,226633
9504,168526,31802,226626
9514,168533,31793,226650
9524,168531,31811,226651
9534,168535,31810,226630
9544,168520,31806,226651
9554,168534,31809,226641
9564,168541,31800,226634
9575,168528,31798,226646
9584,168525,31797,226605
9594,168516,31805,226654
9604,168513,31811,226636
9614,168519,31797,226623
9625,168509,31771,226621
9634,168519,31792,226599
9644,168520,31790,226625
9655,168498,31799,226596
9665,168494,31785,226610
9674,168502,31807,226608
9684,168514,31794,226609
9694,168503,31784,226607
9705,168511,31803,226625
9714,168518,31803,226607
9724,168515,31801,226630
9734,168514,31815,226627
9747,168541,31803,226609
9768,168525,31801,226641
9774,168533,31803,226669
9784,168539,31797,226667
9794,168544,31805,226683
9804,168536,31802,226698
9814,168563,31801,226690
9824,168542,31790,226698
9834,168571,31795,226754
9844,168543,31814,226716
9854,168562,31808,226706
9864,168558,31795,226727
9875,168550,31806,226736
9884,168553,31797,226751
9894,168575,31795,226761
9904,168552,31786,226766
9915,168573,31793,226759
9924,168563,31782,226759
9934,168581,31813,226758
9944,168560,31791,226783
9954,168584,31796,226768
9963,168598,31799,226773
9974,168573,31788,226771
9984,168575,31805,226778
9994,168595,31804,226773
10004,168604,31791,226755
10014,168585,31790,226778
10024,168578,31787,226795
10034,168602,31798,226801
10044,168567,31791,226790
10054,168591,31791,226782
10064,168585,31785,226771
10074,168585,31795,226769
10083,168584,31789,226789
10094,168593,31787,226784
10104,168579,31799,226755
10114,168592,31770,226792
10124,168588,31790,226785
10134,168577,31800,226799
10144,168594,31788,226763
10154,168604,31782,226787
10164,168584,31777,226766
10174,168597,31778,226801
10184,168609,31778,226767
10193,168575,31770,226784
10204,168587,31771,226784
10214,168601,31786,226791
10224,168589,31775,226785
10234,168570,31781,226783
10244,168596,31768,226766
10253,168573,31766,226786
10263,168552,31785,226760
10274,168571,31775,226756
10284,168587,31771,226763
10293,168562,31780,226766
10303,168584,31773,226741
10313,168555,31780,226757
10323,168576,31777,226761
10333,168571,31778,226763
10343,168591,31760,226752
10354,168572,31777,226737
10364,168561,31782,226755
10374,168575,31773,226740
10383,168576,31774,226715
10394,168554,31786,226730
10404,168567,31775,226716
10414,168561,31771,226728
10423,168556,31758,226704
10433,168549,31766,226699
10443,168547,31766,226708
10454,168535,31775,226671
10463,168533,31785,226691
10473,168543,31777,226680
10483,168531,31774,226665
10494,168544,31782,226664
10503,168533,31779,226650
10513,168524,31780,226655
10523,168515,31777,226671
10533,168512,31778,226641
10543,168501,31785,226645
10553,168515,31778,226620
10564,168517,31774,226633
10573,168516,31773,226615
10583,168501,31792,226602
10593,168500,31787,226620
10603,168515,31780,226610
10613,168505,31781,226636
10623,168509,31793,226607
10633,168497,31794,226633
10643,168518,31784,226637
10653,168505,31775,226618
10663,168504,31805,226620
10673,168512,31770,226628
10683,168527,31795,226635
10693,168525,31774,226626
10704,168509,31788,226639
10712,168504,31800,226622
10723,168522,31797,226621
10734,168493,31781,226610
10744,168507,31785,226613
10753,168483,31791,226639
10763,168482,31793,226604
10773,168483,31790,226606
10783,168490,31797,226587
10792,168489,31793,226606
10803,168476,31799,226582
10813,168469,31786,226565
10823,168468,31802,226552
10833,168454,31786,226573
10842,168483,31803,226547
10853,168465,31784,226551
10864,168472,31782,226553
10873,168442,31800,226531
10883,168465,31783,226549
10892,168449,31779,226526
10903,168454,31785,226523
10913,168444,31781,226528
10923,168453,31769,226549
10932,168450,31784,226549
10943,168464,31789,226613
10953,168466,31775,226613
10963,168453,31779,226621
10972,168472,31781,226617
10983,168438,31787,226619
10993,168454,31770,226605
11003,168441,31761,226615
11013,168448,31767,226619
11023,168439,31766,226628
11033,168440,31759,226614
11042,168440,31778,226612
11052,168464,31743,226627
11062,168463,31761,226637
11073,168468,31760,226643
11083,168440,31741,226638
11093,168433,31757,226656
11103,168443,31752,226612
11113,168419,31746,226653
11123,168425,31755,226629
11132,168444,31744,226610
11142,168411,31757,226615
11153,168414,31745,226629
11189,168441,31749,226625
11192,168432,31742,226614
11203,168419,31732,226612
11213,168411,31740,226628
11223,168418,31742,226610
11248,168403,31735,226624
11252,168419,31734,226637
11263,168408,31713,226636
11273,168417,31741,226663
11283,168420,31730,226628
11292,168420,31738,226637
11302,168429,31731,226649
11313,168408,31735,226659
11323,168409,31715,226662
11333,168407,31731,226624
11342,168407,31730,226618
11352,168405,31737,226597
11362,168384,31721,226568
11373,168379,31731,226561
11383,168372,31731,226556
11393,168359,31731,226523
11403,168357,31735,226534
11413,168339,31718,226539
11422,168336,31732,226515
11432,168345,31728,226461
11442,168316,31735,226488
11453,168320,31728,226448
11462,168302,31740,226447
11472,168312,31745,226432
11482,168300,31730,226438
11493,168319,31737,226415
11502,168281,31744,226416
11512,168287,31738,226404
11522,168289,31738,226393
11533,168290,31739,226364
11542,168285,31740,226357
11552,168269,31749,226359
11562,168273,31747,226326
11572,168266,31741,226333
11582,168261,31735,226334
11592,168265,31741,226316
11602,168265,31745,226319
11613,168251,31757,226336
11623,168269,31767,226298
11632,168256,31756,226309
11642,168266,31753,226312
11653,168280,31761,226335
11663,168281,31772,226315
11672,168266,31783,226322
11682,168282,31764,226316
11692,168310,31789,226334
11702,168301,31769,226333
11712,168305,31774,226303
11722,168305,31780,226324
11732,168305,31788,226326
11742,168302,31791,226329
11752,168302,31780,226314
11762,168311,31795,226274
11772,168302,31789,226261
11783,168303,31787,226273
11792,168302,31803,226250
11802,168305,31807,226249
11812,168307,31802,226242
11823,168297,31831,226247
11833,168311,31813,226241
11842,168312,31826,226250
11852,168311,31799,226252
11867,168325,31812,226262
11873,168308,31826,226262
11882,168294,31836,226220
11892,168308,31842,226267
11902,168319,31825,226259
11912,168319,31829,226258
11921,168320,31852,226253
11932,168315,31837,226257
11942,168334,31855,226284
11952,168343,31835,226270
11962,168320,31862,226300
11971,168332,31851,226286
11981,168340,31847,226304
11992,168359,31840,226297
12001,168369,31861,226298
12011,168348,31840,226281
12021,168341,31835,226299
12032,168355,31844,226309
12042,168366,31859,226293
12052,168361,31864,226331
12062,168347,31851,226299
12072,168350,31853,226334
12082,168347,31860,226309
12092,168372,31841,226321
12102,168362,31855,226343
12112,168386,31841,226347
12122,168387,31852,226356
12132,168362,31859,226373
12142,168392,31856,226357
12152,168388,31860,226367
12162,168396,31865,226378
12171,168392,31864,226373
12181,168391,31872,226392
12192,168395,31865,226403
12202,168378,31863,226388
12211,168398,31869,226395
12222,168411,31867,226395
12231,168404,31862,226367
12242,168408,31854,226403
12252,168414,31854,226410
12262,168413,31867,226390
12272,168392,31867,226421
12282,168400,31867,226430
12291,168412,31869,226424
12307,168406,31872,226439
12328,168459,31864,226435
12332,168409,31862,226439
12342,168417,31874,226438
12352,168421,31864,226437
12362,168411,31863,226444
12372,168429,31868,226450
12381,168437,31873,226445
12391,168412,31868,226460
12402,168417,31869,226457
12412,168430,31867,226475
12421,168420,31870,226462
12432,168431,31872,226482
12442,168431,31881,226499
12452,168437,31878,226496
12461,168438,31868,226500
12471,168437,31882,226493
12481,168438,31882,226483
12492,168431,31878,226479
12501,168454,31873,226502
12511,168442,31900,226501
12521,168449,31886,226497
12531,168430,31885,226506
12541,168430,31876,226505
12551,168451,31885,226484
12561,168469,31888,226502
12572,168444,31892,226527
12582,168432,31887,226524
12591,168453,31894,226506
12601,168451,31891,226520
12612,168458,31891,226507
12622,168439,31887,226515
12631,168454,31889,226502
12647,168437,31901,226523
12652,168453,31881,226522
12662,168459,31889,226537
12671,168464,31889,226523
12681,168442,31903,226530
12691,168441,31899,226541
12701,168436,31891,226518
12711,168455,31897,226527
12721,168443,31905,226535
12731,168458,31898,226539
12741,168453,31909,226515
12750,168469,31900,226549
12761,168455,31880,226539
12771,168440,31899,226524
12782,168447,31896,226554
12791,168460,31902,226515
12801,168467,31901,226537
12811,168476,31898,226539
12821,168432,31904,226548
12832,168452,31913,226525
12841,168463,31902,226522
12851,168455,31900,226550
12861,168460,31899,226549
12872,168471,31900,226547
12881,168456,31911,226523
12891,168458,31906,226559
12901,168479,31909,226528
12911,168455,31910,226570
12921,168459,31917,226558
12931,168467,31904,226529
12941,168440,31924,226550
12951,168454,31909,226540
12960,168456,31898,226537
12971,168468,31904,226519
12981,168462,31905,226516
12991,168438,31914,226542
13000,168450,31905,226538
13010,168455,31909,226535
13020,168431,31896,226544
13031,168459,31911,226548
13041,168464,31886,226553
13051,168457,31910,226540
13061,168472,31910,226541
13071,168438,31911,226536
13081,168461,31918,226529
13091,168440,31912,226548
13101,168462,31909,226527
13111,168467,31908,226542
13121,168469,31915,226576
13131,168451,31915,226554
13141,168462,31915,226564
13151,168466,31903,226548
13161,168484,31931,226574
13170,168469,31922,226563
13180,168466,31914,226557
13191,168465,31911,226568
13201,168468,31913,226566
13210,168474,31925,226563
13220,168466,31924,226583
13230,168485,31915,226565
13241,168475,31898,226572
13250,168466,31926,226577
13260,168449,31921,226582
13271,168476,31911,226576
13287,168470,31919,226582
13309,168429,31917,226604
13311,168461,31912,226580
13321,168446,31926,226562
13331,168473,31922,226577
13340,168481,31913,226571
13350,168488,31912,226576
13360,168458,31912,226588
13371,168470,31929,226576
13380,168461,31906,226591
13390,168472,31906,226577
13401,168471,31904,226591
13411,168469,31925,226565
13427,168455,31929,226586
13430,168462,31910,226599
13441,168472,31900,226581
13450,168470,31915,226588
13467,168447,31930,226597
13471,168467,31920,226612
13481,168444,31912,226561
13491,168459,31920,226598
13500,168468,31906,226600
13510,168467,31930,226565
13520,168470,31923,226602
13531,168463,31914,226591
13541,168467,31919,226578
13550,168456,31908,226589
13560,168457,31919,226568
13570,168465,31917,226592
13581,168482,31901,226570
13589,168461,31927,226545
13600,168453,31907,226567
13611,168455,31924,226572
13621,168429,31912,226541
13630,168462,31907,226550
13640,168431,31917,226560
13651,168434,31915,226574
13661,168428,31928,226552
13670,168456,31922,226550
13680,168440,31921,226546
13690,168426,31918,226549
13701,168423,31914,226527
13710,168424,31908,226511
13720,168413,31918,226533
13730,168432,31920,226540
13740,168413,31912,226529
13750,168411,31908,226528
13760,168426,31917,226501
13770,168408,31928,226533
13781,168425,31923,226506
13791,168408,31920,226496
13800,168431,31920,226494
13810,168404,31925,226517
13820,168417,31911,226502
13831,168396,31915,226514
13840,168382,31913,226507
13850,168406,31929,226505
13860,168430,31927,226493
13871,168404,31926,226506
13880,168418,31935,226494
13890,168396,31938,226481
13900,168405,31929,226476
13910,168395,31928,226465
13919,168418,31913,226463
13930,168407,31924,226475
13940,168405,31936,226480
13950,168381,31913,226467
13960,168416,31906,226460
13970,168391,31923,226459
13980,168375,31917,226459
13990,168384,31918,226456
14000,168376,31929,226447
14010,168395,31912,226448
14020,168392,31937,226465
14030,168392,31924,226463
14040,168384,31921,226456
14049,168389,31927,226449
14059,168382,31931,226463
14070,168386,31909,226445
14080,168382,31919,226450
14090,168371,31924,226454
14100,168357,31931,226443
14152,168369,31923,226437
14160,168362,31921,226405
14169,168377,31923,226433
14179,168366,31933,226426
14190,168356,31924,226445
14200,168347,31919,226450
14209,168358,31907,226434
14219,168354,31933,226457
14230,168372,31931,226425
14240,168354,31914,226439
14250,168370,31938,226427
14259,168371,31923,226411
14269,168343,31945,226439
14279,168368,31934,226432
14290,168362,31920,226431
14299,168319,31932,226453
14309,168371,31912,226413
14320,168372,31902,226416
14330,168341,31930,226430
14340,168359,31930,226421
14350,168351,31923,226393
14360,168346,31949,226384
14370,168339,31950,226398
14379,168355,31940,226376
14389,168342,31925,226376
14399,168342,31950,226394
14410,168344,31931,226414
14419,168308,31948,226377
14430,168344,31921,226375
14447,168341,31931,226375
14450,168334,31936,226390
14459,168333,31982,226405
14469,168352,31941,226380
14480,168316,31929,226392
14532,168345,31936,226396
14539,168342,31929,226383
14549,168344,31911,226374
14559,168366,31939,226410
14570,168348,31938,226372
14580,168355,31939,226396
14589,168347,31928,226393
14599,168329,31933,226407
14609,168323,31929,226380
14619,168307,31940,226372
14629,168320,31933,226393
14639,168328,31935,226372
14649,168339,31930,226391
14659,168322,31928,226378
14669,168330,31925,226382
14679,168319,31933,226386
14708,168328,31938,226387
14728,168334,31943,226372
14731,168339,31925,226377
14740,168326,31953,226357
14749,168318,31936,226387
14759,168321,31936,226358
14769,168322,31941,226379
14779,168309,31923,226365
14790,168327,31940,226367
14799,168331,31928,226361
14809,168329,31926,226389
14819,168343,31935,226374
14830,168322,31940,226375
14839,168353,31942,226381
14849,168318,31937,226374
14859,168331,31931,226415
14869,168330,31928,226371
14878,168315,31937,226341
14889,168300,31931,226395
14899,168343,31943,226340
14910,168312,31936,226396
14919,168345,31939,226392
14929,168329,31925,226391
14939,168321,31939,226389
14949,168353,31938,226382
14958,168317,31938,226395
14968,168313,31925,226386
14978,168327,31939,226383
14989,168332,31921,226409
14999,168339,31934,226407
15008,168336,31934,226405
15019,168326,31924,226382
15029,168316,31933,226411
15039,168332,31949,226400
15049,168331,31935,226414
15059,168333,31938,226417
15069,168341,31937,226404
15079,168316,31942,226410
15089,168334,31934,226410
15099,168330,31930,226422
15109,168342,31922,226419
15119,168352,31924,226395
15128,168316,31930,226434
15138,168360,31935,226423
15149,168346,31926,226408
15159,168338,31939,226448
15168,168343,31925,226409
15179,168346,31923,226414
15189,168345,31940,226433
15199,168352,31947,226433
15208,168337,31942,226416
15218,168356,31942,226411
15229,168324,31931,226437
15239,168354,31945,226403
15249,168341,31948,226422
15258,168371,31933,226413
15269,168334,31931,226438
15279,168331,31901,226420
15289,168358,31926,226429
15298,168346,31934,226418
15308,168346,31934,226402
15318,168338,31931,226439
15329,168334,31931,226447
15339,168358,31932,226444
15348,168337,31921,226422
15358,168319,31928,226410
15369,168325,31929,226406
15378,168318,31927,226406
15388,168325,31906,226370
15399,168312,31917,226352
15409,168313,31932,226364
15418,168300,31928,226385
15428,168312,31930,226378
15438,168306,31917,226351
15449,168291,31934,226322
15458,168297,31926,226332
15468,168293,31919,226331
15478,168309,31937,226356
15489,168282,31927,226331
15499,168302,31936,226336
15508,168271,31927,226342
15518,168278,31947,226326
15528,168265,31927,226310
15539,168274,31940,226298
15548,168269,31924,226289
15559,168262,31941,226300
15568,168258,31929,226300
15578,168266,31936,226291
15588,168269,31937,226309
15598,168282,31921,226287
15609,168260,31918,226276
15619,168264,31926,226267
15627,168255,31932,226276
15638,168257,31905,226260
15649,168252,31920,226270
15659,168247,31923,226286
15668,168267,31928,226286
15678,168248,31921,226265
15688,168258,31925,226280
15698,168262,31909,226279
15708,168255,31935,226248
15718,168258,31930,226276
15728,168260,31909,226293
15738,168264,31931,226306
15749,168282,31941,226291
15758,168261,31923,226311
15768,168261,31931,226299
15778,168294,31929,226233
15788,168281,31929,226323
15798,168290,31933,226331
15808,168279,31927,226314
15819,168276,31908,226283
15829,168276,31941,226322
15838,168282,31930,226331
15848,168292,31928,226329
15858,168294,31927,226366
15869,168303,31915,226361
15878,168297,31927,226395
15888,168282,31937,226370
15898,168303,31934,226364
15908,168312,31919,226371
15917,168301,31917,226370
15927,168306,31907,226358
15938,168312,31933,226347
15949,168310,31932,226374
15958,168297,31926,226345
15968,168309,31942,226374
15978,168312,31945,226378
15988,168302,31938,226359
15998,168293,31947,226373
16008,168312,31949,226356
16018,168297,31932,226343
16028,168310,31928,226360
16038,168305,31939,226339
16047,168296,31940,226360
16057,168280,31930,226351
16068,168307,31928,226361
16078,168278,31944,226310
16087,168278,31928,226337
16098,168272,31943,226297
16108,168274,31940,226312
16118,168260,31947,226313
16128,168266,31958,226314
16138,168267,31939,226288
16148,168261,31940,226302
16158,168273,31942,226319
16167,168269,31946,226302
16177,168281,31948,226330
16188,168285,31941,226337
16198,168279,31916,226316
16208,168270,31946,226320
16217,168281,31933,226313
16227,168286,31934,226322
16237,168284,31920,226302
16248,168287,31931,226321
16257,168295,31939,226318
16268,168287,31935,226326
16278,168267,31936,226279
16288,168283,31942,226341
16297,168292,31931,226332
16308,168285,31952,226342
16318,168284,31942,226335
16328,168294,31943,226349
16337,168274,31925,226336
16347,168284,31945,226342
16357,168279,31918,226371
16367,168263,31933,226328
16388,168291,31935,226365
16397,168295,31916,226373
16407,168267,31938,226374
16417,168301,31922,226376
16427,168299,31950,226386
16437,168321,31931,226412
16447,168321,31925,226413
16458,168310,31932,226422
16467,168340,31933,226428
16477,168327,31919,226452
16488,168340,31935,226459
16498,168336,31892,226436
16507,168336,31922,226445
16517,168326,31908,226447
16527,168336,31938,226461
16537,168329,31937,226464
16547,168309,31935,226445
16557,168324,31931,226455
16567,168320,31930,226429
16577,168301,31960,226425
16587,168297,31926,226421
16597,168298,31927,226425
16607,168293,31926,226439
16617,168315,31943,226420
16627,168315,31941,226431
16637,168320,31932,226411
16647,168314,31929,226432
16657,168326,31953,226429
16667,168334,31941,226436
16677,168322,31937,226448
16687,168318,31932,226432
16697,168308,31934,226439
16708,168331,31918,226445
16717,168333,31930,226452
16727,168328,31906,226461
16737,168332,31916,226439
16748,168307,31939,226449
16757,168331,31924,226443
16767,168329,31942,226464
16777,168325,31901,226444
16788,168328,31936,226446
16797,168322,31942,226477
16807,168338,31939,226465
16817,168307,31933,226478
16827,168337,31923,226462
16836,168321,31942,226462
16847,168342,31917,226454
16857,168333,31927,226438
16868,168331,31925,226478
16877,168345,31938,226481
16887,168336,31937,226485
16897,168328,31924,226464
16907,168336,31935,226466
16916,168339,31921,226466
16926,168313,31942,226464
16936,168329,31900,226460
16947,168326,31925,226459
16957,168328,31921,226465
16967,168339,31930,226464
16977,168337,31939,226439
16987,168317,31937,226464
16997,168325,31934,226452
17006,168326,31941,226452
17017,168314,31941,226471
17028,168326,31931,226452
17038,168304,31942,226463
17047,168308,31939,226448
17057,168334,31932,226458
17067,168323,31915,226449
17077,168342,31895,226449
17086,168312,31914,226446
17096,168315,31930,226441
17107,168324,31924,226460
17117,168328,31909,226446
17127,168322,31915,226443
17137,168337,31919,226427
17147,168333,31936,226447
17157,168297,31925,226461
17166,168322,31918,226461
17176,168323,31923,226443
17187,168320,31911,226452
17197,168307,31937,226437
17207,168332,31920,226426
17216,168322,31933,226446
17226,168325,31919,226452
17237,168336,31915,226438
17248,168323,31922,226426
17257,168304,31930,226459
17267,168332,31925,226454
17277,168303,31916,226479
17288,168318,31924,226473
17296,168326,31927,226469
17307,168350,31912,226475
17317,168342,31915,226481
17327,168334,31922,226482
17336,168343,31890,226477
17346,168339,31925,226481
17356,168327,31920,226470
17368,168337,31916,226475
17376,168331,31917,226472
17386,168335,31924,226494
17397,168338,31907,226487
17407,168331,31921,226472
17416,168324,31913,226491
17427,168340,31900,226480
17436,168337,31918,226456
17446,168334,31908,226483
17457,168327,31923,226474
17466,168337,31912,226487
17476,168322,31878,226472
17487,168324,31932,226474
17497,168343,31909,226481
17506,168320,31908,226479
17516,168337,31907,226475
17526,168332,31914,226483
17536,168329,31910,226467
17546,168331,31899,226479
17556,168334,31923,226477
17566,168334,31912,226494
17576,168344,31904,226483
17586,168340,31911,226487
17596,168343,31895,226502
17607,168343,31902,226494
17617,168340,31911,226476
17626,168335,31916,226487
17636,168325,31898,226496
17646,168308,31911,226485
17656,168337,31919,226487
17666,168337,31899,226521
17676,168340,31903,226500
17686,168350,31901,226508
17708,168341,31914,226502
17716,168342,31915,226508
17726,168324,31908,226502
17736,168344,31906,226507
17748,168328,31899,226512
17756,168328,31905,226519
17766,168329,31921,226510
17776,168330,31898,226520
17786,168320,31895,226512
17795,168327,31908,226520
17806,168331,31906,226514
17816,168323,31894,226518
17826,168333,31899,226521
17836,168343,31905,226515
17846,168336,31909,226499
17856,168314,31913,226509
17866,168344,31900,226501
17875,168348,31905,226504
17886,168332,31907,226527
17895,168347,31908,226516
17907,168338,31906,226516
17916,168334,31903,226497
17927,168329,31900,226514
17936,168332,31896,226512
17946,168342,31904,226475
17956,168320,31907,226505
17965,168339,31892,226502
17975,168316,31901,226511
17986,168344,31874,226505
17996,168319,31896,226463
18006,168313,31894,226493
18016,168341,31885,226490
18026,168311,31881,226484
18036,168319,31892,226495
18047,168321,31892,226498
18056,168326,31894,226500
18066,168305,31887,226474
18076,168311,31893,226487
18085,168317,31884,226473
18108,168309,31889,226490
18116,168318,31888,226487
18125,168311,31887,226464
18136,168296,31900,226504
18146,168315,31896,226462
18156,168312,31896,226457
18166,168318,31894,226471
18175,168312,31904,226482
18186,168311,31883,226463
18196,168305,31889,226457
18206,168308,31886,226469
18215,168309,31879,226450
18225,168300,31888,226457
18235,168317,31879,226468
18247,168316,31872,226467
18255,168308,31886,226431
18266,168315,31866,226455
18276,168304,31883,226458
18286,168308,31885,226447
18295,168280,31894,226446
18305,168300,31875,226454
18315,168284,31884,226443
18326,168273,31884,226452
18335,168298,31882,226446
18345,168296,31893,226423
18355,168270,31882,226453
18366,168287,31884,226451
18375,168293,31877,226464
18385,168294,31885,226470
18395,168308,31871,226443
18406,168294,31869,226451
18416,168275,31880,226406
18425,168269,31878,226456
18435,168292,31875,226438
18445,168284,31890,226465
18456,168296,31880,226438
18465,168282,31868,226448
18476,168264,31865,226453
18486,168284,31881,226442
18496,168254,31881,226443
18507,168276,31877,226427
18515,168294,31882,226448
18525,168273,31880,226433
18536,168270,31883,226447
18545,168273,31889,226428
18555,168278,31874,226442
18566,168291,31876,226419
18576,168299,31881,226424
18585,168275,31890,226394
18595,168257,31894,226426
18629,168268,31859,226418
18635,168282,31880,226422
18646,168261,31879,226414
18656,168247,31864,226422
18666,168266,31867,226395
18675,168250,31880,226419
18685,168276,31865,226421
18695,168278,31867,226393
18705,168260,31871,226424
18715,168250,31859,226424
18725,168252,31874,226425
18735,168257,31849,226398
18745,168269,31857,226396
18754,168254,31860,226393
18765,168251,31879,226410
18775,168263,31870,226383
18786,168260,31868,226399
18795,168268,31860,226381
18805,168240,31862,226394
18815,168255,31874,226395
18825,168267,31872,226370
18835,168232,31874,226393
18845,168240,31883,226378
18855,168250,31881,226389
18866,168253,31858,226389
18875,168243,31870,226374
18887,168254,31873,226394
18895,168260,31866,226398
18905,168247,31881,226366
18916,168215,31881,226375
18925,168254,31868,226363
18935,168217,31880,226371
18945,168232,31880,226357
18955,168249,31880,226380
18964,168221,31888,226380
18989,168248,31885,226380
18995,168254,31873,226381
19004,168244,31868,226373
19015,168215,31883,226343
19025,168250,31869,226366
19035,168242,31870,226363
19044,168239,31889,226375
19054,168240,31864,226357
19064,168235,31871,226343
19075,168229,31877,226377
19084,168242,31885,226348
19094,168228,31892,226373
19104,168232,31893,226363
19115,168240,31874,226327
19125,168223,31887,226366
19135,168230,31882,226332
19145,168235,31895,226353
19155,168240,31876,226352
19165,168231,31869,226358
19175,168223,31883,226337
19185,168205,31881,226341
19195,168220,31892,226341
19205,168219,31875,226349
19215,168216,31885,226337
19225,168226,31890,226332
19235,168207,31891,226346
19245,168221,31890,226340
19254,168223,31886,226316
19267,168228,31893,226339
19274,168225,31891,226357
19285,168211,31879,226364
19295,168224,31892,226322
19305,168235,31905,226371
19315,168217,31889,226369
19325,168207,31888,226364
19334,168247,31893,226371
19344,168247,31884,226374
19354,168250,31887,226365
19365,168225,31895,226377
19375,168226,31900,226373
19384,168229,31900,226366
19394,168236,31893,226379
19405,168238,31875,226377
19415,168229,31902,226350
19427,168219,31889,226390
19434,168249,31891,226383
19444,168240,31906,226382
19454,168250,31905,226402
19464,168217,31907,226392
19474,168233,31883,226370
19485,168243,31886,226380
19495,168234,31915,226384
19504,168215,31899,226411
19514,168238,31895,226393
19525,168228,31901,226381
19535,168249,31913,226369
19544,168230,31905,226378
19554,168256,31901,226394
19564,168230,31916,226370
19575,168220,31909,226402
19584,168245,31903,226392
19594,168225,31916,226376
19604,168243,31902,226394
19615,168248,31917,226394
19625,168234,31910,226402
19634,168257,31921,226394
19644,168258,31906,226385
19654,168239,31913,226424
19664,168253,31922,226399
19674,168234,31931,226412
19684,168251,31918,226417
19694,168249,31899,226386
19704,168244,31929,226373
19714,168250,31929,226409
19724,168255,31919,226395
19734,168239,31922,226401
19745,168247,31921,226406
19754,168256,31930,226416
19764,168249,31923,226405
19774,168246,31915,226430
19785,168259,31924,226392
19794,168251,31915,226420
19830,168250,31906,226425
19834,168264,31921,226422
19844,168247,31932,226405
19854,168238,31934,226404
19864,168249,31929,226411
19875,168247,31932,226421
19884,168254,31927,226402
19894,168241,31924,226413
19904,168257,31923,226417
19915,168238,31923,226413
19924,168264,31922,226399
19934,168229,31936,226404
19944,168242,31917,226407
19955,168252,31927,226414
19964,168235,31920,226407
19974,168240,31921,226424
19984,168263,31907,226413
19994,168254,31923,226404
20004,168249,31923,226434
20014,168251,31934,226423
20024,168252,31937,226405
20034,168248,31935,226419
20044,168253,31928,226423
20054,168260,31927,226425
20064,168253,31935,226427
20074,168266,31925,226462
20084,168273,31911,226428
20094,168247,31929,226412
20104,168258,31928,226449
20114,168262,31923,226427
20124,168255,31914,226444
20134,168262,31922,226436
20144,168272,31929,226432
20154,168257,31925,226439
20164,168268,31922,226442
20174,168257,31918,226398
20184,168251,31921,226410
20194,168260,31927,226430
20205,168259,31939,226430
20214,168281,31933,226438
20224,168271,31943,226394
20234,168247,31939,226438
20244,168282,31933,226435
20253,168272,31911,226413
20263,168264,31922,226424
20274,168263,31949,226412
20284,168256,31927,226436
20293,168268,31940,226429
20303,168267,31936,226424
20314,168265,31928,226459
20324,168250,31930,226446
20333,168269,31935,226431
20343,168254,31936,226478
20354,168280,31951,226460
20364,168261,31943,226474
20374,168288,31919,226461
20383,168263,31945,226473
20393,168277,31935,226479
20403,168265,31947,226484
20414,168275,31940,226469
20423,168282,31945,226459
20433,168270,31939,226481
20443,168285,31937,226481
20454,168285,31925,226492
20463,168285,31937,226489
20474,168287,31925,226502
20484,168289,31935,226485
20494,168269,31928,226511
20503,168301,31934,226495
20513,168284,31923,226505
20524,168275,31930,226503
20533,168293,31942,226488
20543,168270,31930,226518
20554,168285,31936,226520
20564,168301,31933,226506
20574,168272,31946,226508
20583,168280,31942,226521
20593,168290,31928,226516
20603,168302,31928,226508
20613,168286,31935,226503
20624,168294,31936,226515
20633,168313,31936,226527
20643,168312,31940,226498
20653,168284,31928,226524
20663,168320,31935,226512
20673,168300,31920,226511
20683,168291,31915,226513
20694,168309,31935,226506
20704,168299,31934,226488
20713,168310,31916,226513
20723,168289,31926,226515
20733,168297,31937,226510
20743,168281,31922,226512
20753,168303,31930,226493
20763,168305,31934,226530
20773,168311,31924,226524
20783,168291,31929,226525
20792,168312,31924,226513
20803,168302,31923,226524
20814,168302,31923,226520
20824,168304,31928,226521
20833,168294,31930,226535
20843,168291,31935,226524
20853,168290,31928,226521
20863,168280,31914,226517
20874,168270,31928,226524
20883,168283,31921,226527
20893,168298,31910,226526
20903,168286,31931,226534
20914,168284,31910,226530
20923,168296,31915,226521
20933,168300,31911,226503
20943,168292,31903,226535
20953,168274,31930,226513
20962,168295,31919,226533
20973,168288,31928,226544
20983,168297,31910,226538
20993,168310,31919,226539
21002,168296,31916,226540
21013,168289,31904,226526
21023,168301,31909,226535
21033,168282,31926,226539
21043,168294,31907,226542
21053,168290,31931,226533
21063,168301,31914,226544
21073,168292,31920,226530
21083,168290,31909,226528
21093,168279,31916,226535
21103,168297,31910,226527
21113,168288,31904,226517
21123,168301,31918,226530
21133,168282,31920,226548
21143,168289,31893,226532
21153,168279,31915,226536
21163,168279,31897,226532
21172,168282,31918,226524
21182,168284,31931,226547
21193,168268,31897,226560
21203,168292,31917,226544
21212,168287,31899,226538
21222,168274,31914,226542
21233,168293,31914,226554
21243,168281,31904,226555
21253,168292,31901,226565
21263,168288,31914,226535
21273,168283,31911,226562
21288,168298,31904,226569
21292,168300,31914,226554
21302,168298,31906,226542
21312,168290,31916,226582
21328,168308,31906,226561
21333,168290,31906,226564
21342,168302,31915,226567
21353,168294,31908,226576
21363,168302,31906,226573
21373,168296,31901,226591
21382,168298,31920,226567
21392,168302,31902,226581
21402,168307,31904,226585
21413,168306,31900,226604
21423,168297,31902,226581
21433,168302,31911,226574
21443,168299,31916,226569
21453,168291,31908,226596
21462,168300,31896,226575
21472,168312,31902,226555
21482,168297,31889,226594
21493,168297,31907,226554
21502,168284,31907,226571
21512,168282,31903,226594
21523,168299,31908,226596
21532,168299,31891,226575
21542,168324,31894,226592
21552,168304,31896,226580
21563,168288,31910,226574
21573,168298,31904,226602
21583,168267,31895,226594
21592,168301,31898,226583
21602,168304,31875,226581
21613,168300,31884,226565
21623,168292,31882,226566
21632,168301,31884,226577
21642,168302,31895,226586
21653,168300,31882,226584
21663,168299,31894,226547
21672,168287,31887,226581
21682,168314,31897,226588
21692,168309,31879,226571
21703,168288,31892,226593
21712,168300,31881,226573
21722,168283,31881,226594
21732,168297,31880,226583
21743,168301,31878,226583
21751,168273,31873,226578
21762,168298,31881,226589
21772,168290,31873,226562
21782,168294,31884,226595
21791,168299,31869,226579
21801,168286,31869,226565
21812,168298,31854,226593
21823,168300,31867,226578
21833,168286,31869,226566
21842,168295,31872,226581
21852,168275,31871,226576
21862,168275,31877,226563
21872,168269,31864,226578
21881,168289,31879,226557
21892,168285,31879,226583
21902,168288,31879,226562
21912,168270,31879,226576
21921,168287,31871,226585
21932,168291,31864,226598
21943,168276,31891,226582
21952,168283,31870,226569
21962,168305,31852,226578
21989,168279,31867,226584
21992,168281,31879,226575
22001,168284,31870,226555
22011,168294,31862,226571
22021,168279,31869,226578
22032,168293,31864,226585
22042,168287,31857,226572
22052,168286,31882,226596
22062,168293,31871,226563
22072,168276,31874,226576
22082,168282,31872,226573
22092,168257,31870,226582
22102,168280,31876,226564
22112,168263,31876,226584
22122,168275,31885,226585
22132,168286,31870,226571
22142,168275,31879,226579
22152,168283,31874,226566
22162,168275,31864,226576
22171,168257,31887,226590
22182,168275,31870,226597
22192,168290,31861,226577
22202,168273,31867,226580
22211,168278,31866,226581
22222,168285,31887,226577
22232,168287,31866,226584
22242,168297,31864,226601
22252,168298,31851,226583
22262,168294,31874,226601
22272,168281,31860,226585
22282,168284,31857,226593
22291,168284,31862,226601
22301,168288,31866,226599
22312,168283,31860,226592
22322,168281,31865,226588
22332,168270,31881,226588
22341,168289,31860,226597
22351,168287,31862,226567
22361,168282,31869,226602
22372,168292,31862,226593
22381,168281,31852,226580
22391,168280,31843,226582
22401,168270,31862,226586
22412,168293,31859,226568
22421,168289,31869,226609
22431,168273,31854,226583
22441,168284,31873,226586
22452,168282,31850,226593
22462,168275,31865,226593
22471,168282,31856,226587
22482,168284,31848,226596
22492,168288,31865,226580
22501,168243,31857,226610
22511,168271,31860,226600
22521,168288,31841,226588
22532,168281,31851,226586
22541,168281,31848,226600
22551,168280,31850,226613
22561,168284,31853,226582
22571,168265,31849,226625
22581,168294,31845,226605
22591,168284,31840,226614
22602,168277,31852,226610
22612,168287,31865,226603
22622,168288,31845,226590
22631,168280,31847,226596
22641,168273,31851,226576
22652,168285,31854,226606
22662,168255,31834,226609
22671,168280,31841,226593
22681,168266,31839,226594
22691,168270,31842,226605
22701,168280,31856,226598
22711,168291,31839,226571
22721,168278,31830,226594
22732,168265,31822,226586
22742,168266,31831,226569
22751,168241,31838,226590
22761,168256,31850,226590
22771,168241,31842,226576
22781,168244,31842,226600
22791,168265,31831,226561
22801,168263,31831,226567
22811,168262,31842,226559
22821,168257,31835,226560
22831,168247,31838,226587
22840,168258,31837,226567
22851,168268,31823,226549
22861,168251,31835,226569
22871,168257,31830,226602
22880,168256,31839,226604
22891,168265,31826,226573
22901,168257,31835,226553
22911,168253,31832,226547
22920,168251,31820,226571
22931,168265,31838,226563
22941,168244,31842,226578
22951,168248,31819,226570
22961,168226,31837,226566
22971,168243,31827,226575
22981,168239,31834,226563
22991,168260,31838,226558
23001,168255,31821,226570
23010,168248,31819,226557
23021,168252,31822,226567
23032,168242,31825,226561
23041,168259,31822,226576
23051,168232,31832,226569
23061,168247,31844,226551
23071,168260,31833,226538
23082,168243,31810,226549
23090,168257,31817,226550
23101,168257,31824,226573
23111,168251,31840,226561
23122,168253,31820,226563
23131,168249,31847,226563
23141,168220,31835,226571
23151,168242,31825,226570
23161,168240,31811,226561
23170,168243,31837,226538
23180,168228,31823,226533
23191,168231,31809,226557
23201,168241,31828,226542
23211,168240,31834,226541
23221,168228,31826,226515
23231,168202,31837,226540
23241,168224,31838,226491
23251,168211,31838,226514
23261,168231,31826,226498
23271,168206,31837,226534
23281,168219,31813,226515
23291,168222,31828,226509
23300,168221,31840,226522
23311,168239,31815,226521
23321,168212,31829,226529
23331,168235,31823,226520
23341,168240,31836,226527
23350,168223,31838,226511
23361,168212,31828,226503
23371,168211,31836,226510
23380,168219,31842,226514
23390,168235,31825,226527
23401,168232,31833,226518
23410,168221,31846,226501
23420,168212,31835,226504
23431,168231,31827,226484
23441,168223,31820,226507
23451,168218,31825,226499
23460,168208,31832,226494
23470,168208,31819,226483
23480,168187,31840,226478
23491,168206,31836,226479
23500,168192,31839,226468
23510,168204,31841,226470
23520,168205,31843,226484
23530,168199,31847,226497
23540,168215,31833,226493
23550,168211,31828,226488
23560,168208,31834,226492
23571,168215,31828,226462
23581,168196,31828,226457
23590,168192,31841,226478
23600,168207,31831,226474
23611,168184,31824,226472
23621,168207,31835,226462
23630,168210,31833,226462
23640,168190,31823,226463
23650,168198,31841,226464
23660,168201,31832,226456
23670,168185,31831,226468
23680,168200,31834,226446
23690,168184,31838,226459
23701,168164,31848,226460
23710,168187,31837,226448
23720,168184,31837,226435
23731,168185,31832,226463
23741,168160,31848,226435
23750,168174,31854,226457
23760,168183,31834,226471
23770,168196,31826,226453
23780,168186,31837,226453
23791,168196,31843,226475
23800,168183,31825,226436
23810,168182,31836,226453
23820,168187,31813,226480
23830,168201,31834,226467
23839,168184,31849,226493
23850,168196,31823,226490
23860,168194,31859,226499
23871,168197,31833,226469
23880,168203,31836,226462
23890,168193,31836,226486
23900,168185,31853,226502
23911,168202,31843,226495
23920,168187,31843,226495
23930,168206,31850,226499
23940,168202,31848,226505
23950,168210,31848,226500
23959,168211,31844,226504
23969,168219,31837,226523
23980,168217,31848,226542
23990,168208,31840,226538
24000,168218,31842,226522
24009,168223,31841,226554
24020,168194,31836,226539
24030,168215,31839,226533
24041,168234,31845,226529
24050,168223,31847,226511
24060,168226,31852,226522
24070,168214,31849,226543
24080,168232,31848,226545
24089,168226,31854,226538
24099,168212,31849,226529
24110,168222,31861,226560
24120,168169,31857,226559
24129,168219,31856,226590
24139,168240,31846,226590
24149,168249,31855,226585
24166,168236,31845,226586
24169,168244,31849,226601
24180,168241,31843,226588
24190,168232,31851,226585
24200,168262,31852,226614
24209,168240,31853,226624
24219,168263,31847,226608
24229,168249,31866,226615
24240,168264,31859,226625
24250,168251,31858,226615
24259,168247,31853,226630
24269,168254,31846,226616
24279,168274,31860,226630
24290,168255,31846,226637
24300,168253,31847,226624
24329,168247,31864,226623
24331,168260,31855,226629
24339,168265,31856,226648
24349,168240,31853,226614
24368,168269,31852,226625
24370,168259,31856,226625
24379,168259,31860,226616
24389,168230,31863,226611
24399,168252,31858,226596
24410,168224,31867,226596
24419,168252,31868,226610
24429,168258,31856,226614
24439,168240,31846,226617
24450,168261,31837,226630
24459,168246,31870,226624
24469,168254,31850,226628
24479,168279,31863,226639
24489,168251,31845,226636
24500,168282,31859,226627
24509,168278,31862,226616
24519,168251,31868,226612
24530,168250,31861,226623
24540,168267,31861,226617
24549,168262,31860,226635
24559,168265,31878,226630
24569,168249,31870,226638
24579,168266,31866,226661
24589,168248,31868,226664
24599,168284,31864,226654
24609,168270,31857,226646
24620,168276,31865,226633
24629,168265,31885,226646
24647,168280,31874,226661
24650,168258,31871,226653
24660,168275,31894,226650
24669,168276,31883,226631
24679,168255,31870,226667
24689,168281,31861,226662
24699,168275,31869,226668
24709,168280,31850,226643
24719,168264,31870,226654
24749,168266,31879,226656
24750,168278,31867,226672
24758,168277,31888,226658
24769,168291,31871,226660
24779,168260,31873,226677
24789,168266,31885,226661
24799,168281,31884,226654
24809,168263,31869,226636
24819,168261,31899,226671
24829,168277,31889,226662
24839,168279,31865,226658
24849,168278,31877,226677
24860,168282,31869,226697
24869,168276,31875,226676
24879,168277,31883,226679
24889,168268,31886,226660
24899,168246,31881,226669
24909,168280,31882,226666
24918,168286,31884,226667
24928,168278,31881,226677
24938,168267,31878,226681
24949,168286,31885,226683
24958,168281,31878,226653
24968,168279,31869,226685
24979,168295,31896,226699
24989,168290,31883,226683
25000,168276,31901,226668
25008,168281,31888,226674
25019,168254,31897,226680
25029,168266,31893,226699
25039,168294,31886,226676
25048,168274,31894,226697
25059,168291,31870,226685
25068,168289,31892,226706
25079,168295,31869,226700
25088,168286,31900,226708
25099,168293,31877,226693
25109,168277,31877,226715
25119,168298,31900,226707
25128,168298,31897,226699
25138,168300,31903,226696
25149,168304,31894,226701
25159,168287,31889,226724
25168,168282,31897,226698
25179,168300,31899,226743
25189,168281,31896,226704
25199,168270,31890,226715
25208,168299,31873,226722
25218,168289,31895,226737
25229,168296,31892,226714
25239,168294,31893,226713
25249,168295,31889,226713
25258,168286,31898,226737
25268,168298,31889,226725
25278,168302,31888,226708
25289,168302,31894,226708
25299,168303,31869,226687
25309,168283,31895,226692
25319,168296,31906,226717
25329,168290,31891,226724
25338,168305,31888,226722
25348,168282,31898,226729
25358,168298,31900,226726
25369,168290,31885,226726
25378,168281,31897,226733
25388,168289,31877,226714
25399,168297,31883,226700
25409,168298,31885,226704
25418,168290,31894,226731
25428,168288,31901,226721
25438,168291,31892,226698
25449,168297,31883,226717
25458,168290,31873,226704
25468,168288,31898,226715
25479,168296,31883,226713
25488,168300,31889,226723
25499,168289,31882,226721
25508,168299,31883,226712
25518,168285,31899,226723
25529,168287,31886,226696
25539,168280,31895,226700
25548,168272,31900,226709
25558,168303,31899,226718
25569,168274,31879,226717
25579,168273,31869,226704
25588,168288,31899,226696
25598,168284,31882,226717
25609,168278,31896,226707
25619,168277,31893,226715
25628,168259,31888,226694
25638,168279,31887,226681
25648,168270,31893,226673
25658,168266,31895,226702
25667,168270,31873,226715
25678,168279,31894,226706
25688,168282,31884,226720
25699,168269,31885,226693
25708,168277,31889,226696
25718,168263,31895,226707
25750,168283,31892,226718
25758,168285,31881,226732
25768,168282,31883,226720
25778,168276,31891,226733
25789,168283,31879,226720
25798,168280,31893,226721
25808,168266,31890,226730
25818,168289,31868,226739
25829,168305,31887,226737
25838,168280,31871,226732
25848,168272,31893,226732
25858,168297,31883,226731
25869,168274,31894,226726
25889,168280,31880,226739
25898,168298,31881,226729
25908,168275,31882,226713
25917,168289,31886,226719
25927,168295,31884,226691
25938,168276,31888,226750
25948,168274,31892,226730
25958,168287,31887,226739
25968,168296,31897,226744
25978,168294,31895,226764
25988,168283,31884,226746
25998,168294,31872,226749
26007,168281,31904,226741
26017,168301,31887,226731
26028,168294,31879,226754
26038,168279,31886,226741
26047,168286,31894,226758
26058,168292,31890,226727
26068,168288,31894,226743
26078,168290,31878,226760
26088,168302,31898,226750
26098,168287,31895,226732
26108,168279,31887,226743
26118,168274,31895,226719
26128,168298,31904,226725
26148,168288,31889,226753
26168,168293,31891,226752
26177,168287,31873,226747
26188,168285,31871,226734
26198,168274,31883,226727
26208,168275,31897,226761
26217,168275,31920,226702
26228,168282,31872,226751
26238,168272,31880,226750
26248,168279,31895,226732
26257,168286,31871,226724
26267,168283,31874,226745
26278,168291,31886,226715
26288,168276,31890,226716
26297,168299,31897,226734
26308,168256,31888,226731
26318,168268,31876,226722
26328,168254,31883,226727
26337,168274,31881,226716
26347,168271,31880,226706
26357,168286,31871,226727
26368,168272,31884,226716
26377,168258,31892,226745
26387,168273,31894,226727
26407,168275,31868,226710
26410,168279,31893,226732
26417,168267,31884,226729
26428,168265,31874,226722
26438,168279,31884,226728
26468,168263,31886,226732
26470,168269,31883,226731
26477,168271,31864,226718
26488,168272,31884,226713
26498,168263,31862,226732
26507,168268,31875,226725
26529,168271,31869,226733
26538,168268,31870,226722
26547,168263,31863,226729
26557,168270,31892,226707
26568,168258,31875,226706
26578,168242,31886,226706
26587,168272,31885,226700
26597,168239,31886,226734
26607,168260,31872,226730
26617,168255,31876,226734
26627,168271,31877,226709
26637,168258,31867,226725
26648,168241,31875,226721
26658,168259,31881,226725
26667,168269,31860,226699
26677,168244,31883,226729
26687,168262,31882,226712
26697,168262,31875,226728
26708,168260,31874,226729
26717,168249,31873,226723
26727,168257,31877,226743
26737,168269,31850,226705
26748,168253,31884,226718
26757,168263,31884,226702
26767,168263,31863,226706
26777,168261,31876,226744
26788,168252,31869,226747
26797,168259,31878,226713
26807,168256,31878,226732
26817,168265,31860,226743
26827,168242,31881,226708
26836,168259,31871,226747
26847,168271,31871,226728
26857,168263,31870,226719
26868,168271,31864,226754
26877,168252,31873,226737
26887,168252,31874,226723
26897,168266,31849,226748
26908,168245,31895,226766
26917,168259,31858,226735
26927,168268,31882,226743
26937,168260,31843,226742
26947,168259,31889,226739
26957,168269,31857,226738
26967,168261,31867,226746
26977,168265,31870,226745
26987,168267,31877,226754
26997,168261,31874,226748
27006,168254,31891,226737
27057,168282,31881,226757
27067,168260,31883,226749
27077,168254,31888,226733
27086,168280,31876,226770
27096,168286,31863,226744
27107,168252,31880,226756
27117,168275,31867,226764
27127,168260,31874,226742
27136,168263,31864,226728
27147,168263,31871,226757
27167,168262,31855,226755
27176,168252,31868,226756
27187,168260,31869,226728
27237,168276,31859,226740
27247,168249,31857,226741
27256,168267,31876,226732
27267,168233,31870,226749
27277,168264,31859,226737
27287,168263,31871,226734
27297,168261,31841,226740
27307,168256,31866,226744
27317,168248,31851,226739
27327,168252,31849,226751
27336,168255,31863,226739
27346,168270,31855,226751
27356,168237,31866,226730
27366,168269,31856,226734
27376,168258,31837,226744
27387,168247,31866,226720
27397,168251,31843,226736
27407,168241,31863,226736
27416,168244,31867,226751
27426,168241,31863,226746
27436,168257,31839,226753
27447,168231,31846,226743
27457,168243,31851,226720
27467,168260,31849,226731
27477,168229,31849,226753
27487,168235,31853,226744
27508,168247,31858,226743
27516,168252,31846,226735
27526,168240,31855,226719
27536,168236,31840,226730
27546,168245,31846,226719
27569,168231,31852,226708
27577,168229,31850,226724
27586,168215,31858,226711
27596,168230,31848,226709
27606,168222,31847,226715
27616,168229,31866,226702
27626,168217,31858,226687
27636,168236,31828,226706
27646,168224,31850,226702
27667,168216,31845,226714
27676,168233,31836,226686
27686,168214,31862,226684
27696,168193,31859,226683
27706,168216,31863,226691
27715,168200,31846,226683
27727,168216,31853,226664
27776,168203,31847,226703
27786,168216,31852,226685
27795,168212,31855,226674
27806,168195,31853,226653
27816,168209,31862,226659
27827,168207,31861,226671
27836,168215,31859,226660
27846,168217,31854,226669
27856,168200,31865,226652
27866,168206,31865,226642
27875,168212,31844,226710
27886,168218,31855,226691
27896,168215,31860,226659
27906,168211,31870,226663
27916,168189,31872,226674
27925,168219,31866,226679
27936,168215,31867,226691
27947,168218,31874,226661
27957,168201,31880,226637
27967,168187,31862,226667
27976,168202,31866,226658
27987,168184,31862,226654
27996,168199,31875,226643
28006,168208,31862,226625
28016,168187,31865,226629
28026,168200,31886,226618
28036,168183,31860,226630
28070,168197,31879,226623
28076,168189,31864,226627
28085,168192,31886,226621
28095,168184,31877,226602
28106,168167,31879,226612
28116,168176,31897,226593
28125,168194,31881,226597
28136,168174,31881,226605
28146,168181,31887,226624
28156,168188,31878,226622
28166,168185,31872,226603
28175,168184,31881,226637
28188,168194,31874,226618
28208,168187,31883,226631
28215,168192,31869,226643
28225,168190,31899,226616
28236,168188,31888,226631
28246,168200,31890,226612
28256,168180,31877,226624
28266,168191,31883,226618
28276,168187,31883,226622
28286,168175,31880,226609
28295,168165,31898,226598
28305,168186,31894,226618
28315,168190,31869,226615
28326,168183,31879,226619
28335,168183,31881,226587
28345,168176,31878,226619
28355,168173,31893,226597
28368,168178,31894,226626
28375,168187,31896,226619
28385,168177,31888,226633
28395,168182,31883,226621
28405,168181,31892,226602
28416,168184,31893,226610
28425,168183,31889,226617
28436,168198,31892,226613
28469,168176,31885,226623
28476,168189,31881,226607
28486,168182,31887,226579
28496,168171,31878,226609
28505,168152,31894,226607
28515,168163,31902,226602
28525,168168,31905,226602
28536,168155,31904,226615
28545,168183,31892,226598
28555,168163,31894,226612
28566,168153,31899,226623
28576,168186,31906,226619
28585,168166,31895,226610
28595,168173,31904,226642
28605,168176,31892,226657
28615,168191,31887,226610
28625,168195,31888,226658
28635,168188,31903,226628
28646,168187,31888,226641
28656,168188,31895,226648
28666,168193,31905,226623
28675,168173,31898,226660
28685,168189,31888,226641
28696,168191,31903,226638
28706,168193,31900,226663
28715,168179,31901,226664
28725,168201,31898,226653
28735,168210,31881,226654
28746,168188,31894,226669
28755,168200,31901,226665
28765,168177,31899,226670
28775,168210,31915,226679
28785,168203,31881,226682
28795,168190,31906,226646
28805,168200,31909,226671
28828,168203,31895,226678
28835,168205,31891,226684
28845,168207,31889,226701
28855,168195,31900,226665
28865,168202,31883,226663
28875,168181,31899,226679
28885,168187,31904,226666
28895,168196,31897,226666
28905,168212,31907,226672
28915,168204,31889,226698
28924,168197,31889,226661
28935,168192,31899,226689
28945,168200,31897,226677
28955,168206,31905,226673
28990,168214,31899,226694
29008,168211,31881,226687
29014,168206,31878,226693
29025,168204,31895,226702
29035,168207,31886,226666
29045,168233,31884,226690
29055,168207,31892,226687
29065,168199,31896,226684
29075,168209,31902,226707
29110,168212,31902,226688
29115,168218,31888,226739
29125,168229,31884,226724
29134,168222,31893,226750
29145,168222,31886,226727
29155,168222,31894,226736
29165,168231,31899,226708
29175,168210,31902,226730
29185,168221,31897,226736
29195,168215,31902,226756
29205,168220,31874,226725
29214,168226,31876,226738
29225,168217,31893,226751
29235,168234,31881,226748
29245,168234,31882,226761
29269,168246,31881,226770
29274,168245,31868,226771
29285,168223,31897,226777
29294,168235,31876,226761
29305,168242,31870,226760
29315,168250,31881,226783
29325,168242,31888,226769
29334,168229,31877,226789
29344,168238,31886,226779
29369,168241,31893,226799
29375,168261,31886,226792
29384,168251,31871,226793
29395,168244,31873,226787
29405,168253,31896,226803
29415,168242,31875,226804
29424,168244,31880,226808
29435,168256,31883,226800
29445,168261,31877,226796
29455,168257,31867,226806
29464,168244,31897,226819
29474,168244,31903,226824
29484,168272,31884,226817
29495,168261,31885,226797
29504,168254,31899,226808
29514,168236,31886,226812
29525,168262,31868,226814
29535,168246,31875,226813
29544,168238,31888,226810
29554,168236,31900,226808
29564,168258,31881,226809
29575,168244,31902,226818
29587,168246,31897,226822
29594,168265,31884,226829
29605,168261,31866,226824
29614,168251,31883,226833
29625,168264,31885,226816
29634,168259,31896,226806
29644,168264,31890,226821
29654,168244,31914,226825
29664,168263,31898,226816
29673,168280,31896,226833
29687,168263,31889,226839
29694,168260,31894,226830
29704,168262,31900,226824
29754,168260,31898,226832
29764,168248,31898,226845
29774,168262,31905,226836
29784,168270,31906,226828
29794,168267,31912,226839
29804,168269,31899,226821
29814,168262,31893,226827
29824,168263,31904,226831
29833,168263,31918,226815
29844,168264,31890,226817
29854,168254,31904,226806
29864,168258,31901,226792
29875,168241,31916,226827
29887,168266,31915,226804
29894,168264,31903,226835
29905,168245,31913,226813
29914,168274,31909,226791
29923,168251,31905,226767
29933,168249,31906,226794
29944,168250,31901,226795
29955,168257,31909,226808
29964,168238,31907,226801
29974,168260,31908,226793
29984,168250,31903,226812
29994,168263,31910,226812
30003,168247,31889,226809
30014,168258,31901,226802
30024,168267,31902,226817
30034,168248,31896,226807
30043,168261,31899,226794
30054,168252,31898,226803
30064,168250,31905,226780
30074,168254,31886,226823
30083,168249,31890,226810
30093,168255,31903,226784
30103,168253,31902,226804
30128,168243,31893,226824
30133,168251,31912,226796
30143,168254,31903,226800
30154,168260,31903,226806
30164,168232,31899,226781
30173,168242,31877,226791
30184,168249,31893,226787
30194,168237,31900,226786
30204,168244,31901,226779
30213,168234,31899,226790
30224,168241,31882,226785
30233,168230,31906,226787
30244,168255,31887,226800
30253,168246,31885,226791
30264,168246,31882,226796
30274,168242,31895,226799
30284,168245,31885,226798
30293,168240,31898,226800
30303,168235,31896,226774
30314,168242,31900,226774
30324,168240,31904,226790
30333,168235,31900,226780
30343,168245,31896,226792
30353,168234,31883,226783
30364,168237,31909,226790
30374,168235,31905,226788
30383,168236,31900,226797
30393,168233,31898,226771
30403,168247,31884,226802
30414,168243,31899,226786
30423,168235,31898,226797
30433,168228,31905,226812
30443,168249,31899,226790
30454,168252,31883,226794
30463,168239,31902,226799
30473,168255,31890,226812
30483,168247,31907,226787
30494,168245,31881,226797
30503,168247,31915,226799
30513,168235,31898,226799
30523,168248,31901,226785
30534,168236,31903,226807
30543,168243,31911,226808
30553,168263,31899,226804
30563,168224,31904,226800
30573,168234,31894,226813
30587,168243,31892,226808
30609,168254,31913,226814
30613,168259,31895,226803
30624,168244,31898,226821
30633,168246,31889,226781
30643,168249,31891,226825
30653,168249,31906,226820
30664,168229,31898,226812
30673,168264,31888,226795
30683,168254,31909,226782
30693,168236,31892,226803
30704,168249,31899,226807
30713,168258,31902,226822
30723,168246,31894,226790
30733,168217,31900,226805
30743,168254,31905,226783
30753,168242,31916,226793
30763,168224,31909,226806
30773,168249,31908,226808
30783,168253,31903,226820
30792,168261,31888,226797
30803,168239,31918,226812
30813,168233,31907,226765
30823,168245,31896,226807
30833,168240,31888,226778
30843,168245,31907,226786
30853,168236,31900,226792
30863,168233,31910,226799
30873,168221,31896,226799
30882,168222,31892,226795
30892,168229,31898,226786
30903,168217,31903,226768
30914,168238,31895,226766
30923,168234,31890,226760
30933,168225,31891,226754
30943,168222,31899,226782
30953,168220,31896,226784
30962,168218,31879,226766
30973,168226,31897,226758
30983,168221,31893,226751
30993,168228,31895,226769
31002,168220,31890,226744
31012,168215,31883,226754
31023,168213,31894,226761
31033,168221,31890,226760
31042,168204,31861,226735
31052,168207,31888,226748
31063,168214,31872,226741
31072,168206,31894,226734
31083,168198,31865,226733
31092,168202,31880,226712
31103,168203,31869,226723
31112,168199,31883,226700
31123,168203,31872,226721
31133,168203,31877,226712
31143,168193,31885,226709
31153,168198,31897,226726
31163,168204,31879,226738
31172,168207,31892,226711
31182,168200,31880,226734
31193,168204,31885,226715
31203,168163,31884,226701
31212,168198,31887,226704
31222,168189,31878,226714
31232,168193,31887,226728
31243,168179,31882,226712
31252,168198,31874,226697
31263,168192,31886,226705
31273,168189,31880,226678
31283,168191,31896,226689
31292,168183,31880,226699
31302,168189,31886,226686
31329,168193,31877,226680
31348,168171,31885,226689
31352,168175,31878,226685
31363,168171,31873,226650
31372,168179,31897,226686
31382,168147,31886,226674
31393,168169,31888,226684
31403,168171,31881,226664
31413,168171,31886,226680
31422,168185,31882,226655
31432,168165,31896,226684
31442,168186,31880,226669
31453,168161,31888,226679
31462,168182,31885,226640
31472,168153,31897,226677
31482,168165,31880,226701
31493,168163,31894,226675
31502,168161,31893,226679
31512,168161,31899,226668
31522,168151,31882,226669
31533,168152,31894,226662
31542,168154,31883,226672
31552,168165,31899,226653
31562,168168,31898,226680
31572,168145,31895,226677
31583,168153,31876,226700
31591,168163,31886,226676
31602,168168,31881,226693
31612,168172,31893,226698
31623,168182,31897,226671
31632,168144,31891,226669
31642,168158,31885,226654
31652,168164,31885,226671
31662,168159,31902,226653
31672,168164,31891,226663
31682,168161,31889,226658
31692,168149,31902,226643
31703,168155,31897,226651
31712,168171,31890,226611
31722,168158,31894,226627
31732,168149,31898,226656
31742,168148,31914,226638
31752,168126,31905,226660
31762,168148,31902,226641
31772,168135,31898,226655
31782,168140,31904,226656
31792,168170,31900,226661
31802,168163,31899,226655
31812,168174,31903,226659
31822,168156,31899,226644
31832,168155,31900,226651
31842,168152,31898,226656
31852,168157,31899,226613
31862,168141,31905,226668
31872,168150,31901,226639
31881,168161,31899,226625
31892,168156,31904,226630
31902,168155,31903,226646
31912,168150,31889,226671
31922,168150,31902,226655
31932,168161,31898,226650
31942,168153,31890,226631
31952,168155,31901,226630
31961,168159,31902,226630
31971,168141,31905,226635
31981,168139,31923,226616
31992,168142,31906,226628
32001,168135,31914,226636
32012,168146,31899,226636
32022,168144,31906,226644
32032,168150,31901,226640
32041,168146,31920,226648
32051,168149,31909,226650
32061,168129,31913,226638
32072,168173,31911,226663
32082,168145,31902,226647
32091,168182,31911,226655
32101,168169,31920,226675
32112,168173,31894,226688
32122,168169,31912,226673
32131,168183,31906,226696
32141,168199,31917,226686
32151,168165,31921,226686
32161,168202,31908,226676
32171,168169,31909,226711
32182,168172,31908,226693
32192,168192,31917,226671
32202,168186,31912,226694
32211,168186,31901,226695
32221,168189,31914,226699
32231,168189,31922,226694
32241,168176,31907,226702
32251,168192,31922,226721
32261,168185,31926,226705
32271,168187,31911,226722
32281,168186,31916,226705
32291,168177,31912,226708
32301,168179,31907,226715
32311,168198,31908,226711
32322,168168,31920,226734
32348,168172,31903,226730
32351,168191,31907,226757
32361,168145,31907,226721
32371,168193,31914,226738
32380,168186,31913,226711
32391,168177,31920,226741
32402,168217,31918,226746
32412,168199,31932,226732
32421,168201,31907,226741
32431,168217,31906,226753
32441,168220,31896,226759
32452,168211,31920,226762
32461,168208,31922,226761
32471,168210,31915,226768
32481,168218,31916,226773
32491,168207,31907,226775
32500,168222,31910,226791
32511,168214,31933,226791
32521,168234,31931,226811
32532,168230,31917,226798
32541,168208,31914,226778
32551,168236,31922,226823
32561,168228,31931,226803
32572,168222,31913,226816
32582,168242,31928,226795
32591,168207,31932,226805
32601,168208,31918,226799
32611,168238,31940,226808
32621,168228,31929,226805
32630,168225,31911,226799
32641,168204,31912,226794
32651,168233,31923,226784
32662,168236,31903,226806
32670,168231,31919,226810
32681,168228,31898,226798
32691,168229,31927,226795
32701,168238,31891,226805
32711,168226,31907,226801
32721,168225,31916,226793
32731,168229,31905,226814
32741,168221,31923,226817
32750,168228,31931,226831
32760,168223,31920,226795
32771,168225,31921,226808
32781,168205,31919,226816
32791,168236,31916,226806
32800,168206,31925,226797
32811,168213,31919,226837
32821,168222,31909,226819
32831,168219,31910,226804
32840,168240,31922,226815
32851,168235,31903,226806
32861,168234,31919,226813
32871,168218,31910,226817
32880,168209,31928,226822
32891,168235,31912,226820
32901,168220,31902,226828
32911,168215,31926,226810
32920,168243,31919,226823
32931,168226,31914,226845
32941,168217,31914,226807
32951,168221,31919,226833
32960,168225,31929,226835
32971,168242,31917,226818
32981,168205,31933,226845
32991,168227,31932,226825
33000,168228,31921,226810
33011,168222,31928,226826
33021,168216,31922,226794
33031,168245,31921,226837
33041,168228,31933,226831
33068,168237,31929,226830
33071,168227,31933,226832
33081,168223,31909,226797
33091,168232,31937,226826
33101,168219,31931,226811
33111,168209,31926,226815
33121,168231,31938,226827
33130,168215,31941,226805
33140,168221,31921,226810
33151,168222,31927,226795
33161,168213,31925,226783
33170,168211,31941,226771
33180,168220,31930,226786
33190,168203,31936,226784
33201,168186,31943,226770
33210,168181,31941,226756
33220,168194,31942,226739
33231,168143,31941,226723
33241,168147,31940,226692
33250,168126,31933,226700
33260,168111,31924,226757
33270,168091,31921,226768
33281,168084,31916,226864
33290,168113,31901,226935
33300,168101,31872,226982
33310,168084,31880,226975
33321,168085,31838,226991
33331,168089,31856,227068
33340,168124,31855,227117
33350,168099,31822,227129
33360,168093,31830,227133
33370,168059,31813,227139
33379,168029,31809,227082
33390,168033,31776,227001
33400,167985,31807,226886
33411,167930,31778,226704
33420,167909,31783,226539
33430,167834,31798,226407
33440,167793,31783,226250
33450,167763,31795,226138
33459,167730,31789,226093
33470,167736,31779,226020
33480,167726,31778,226000
33490,167699,31773,225978
33500,167675,31778,225939
33510,167683,31779,225933
33520,167658,31785,225889
33530,167664,31783,225889
33541,167660,31765,225844
33549,167678,31785,225847
33560,167679,31776,225848
33570,167658,31798,225844
33581,167644,31779,225854
33590,167679,31792,225878
33600,167636,31815,225868
33610,167663,31808,225875
33620,167664,31790,225886
33629,167642,31801,225853
33639,167607,31824,225836
33649,167628,31813,225829
33667,167635,31814,225793
33712,167593,31853,225720
33719,167577,31856,225725
33730,167569,31870,225669
33740,167591,31876,225624
33750,167584,31879,225624
33760,167572,31877,225613
33770,167581,31902,225605
33780,167557,31884,225587
33790,167576,31887,225586
33808,167556,31889,225561
33872,167475,31856,225408
33875,167491,31842,225452
33879,167483,31849,225414
33932,167278,31892,224813
34193,162779,32252,214898
34208,162067,32265,213917
34211,161931,32296,213629
34219,161820,32297,213377
34229,161741,32337,213253
34239,161810,32389,213205
34250,161936,32465,213208
34259,162007,32510,213232
34269,162027,32557,213181
34279,162011,32594,213156
34290,161958,32628,213078
34299,161936,32689,213011
34310,161914,32734,213038
34320,161955,32806,213023
34330,161941,32842,212996
34339,161982,32897,213009
34369,162042,33028,213071
34372,162082,33103,213091
34379,162130,33149,213108
34389,162170,33243,213188
34408,162222,33288,213182
34411,162258,33350,213232
34419,162273,33411,213254
34429,162282,33480,213283
34439,162323,33517,213320
34449,162352,33579,213326
34458,162381,33629,213337
34469,162377,33679,213397
34479,162457,33728,213452
34489,162486,33770,213504
34500,162552,33795,213586
34509,162631,33829,213645
34519,162724,33876,213784
34529,162837,33888,213966
34539,162939,33911,214143
34593,163608,34002,215189
34599,163766,34030,215449
34609,163869,34040,215679
34619,163999,34060,215890
34628,164128,34077,216169
34638,164268,34087,216424
34649,164431,34083,216715
34659,164608,34112,217005
34668,164806,34135,217292
34679,165008,34154,217624
34753,166473,34285,219738
34811,167700,34352,222175
34814,167878,34347,222584
34819,168034,34345,222979
34872,168402,34334,224279
34878,168408,34303,224315
34889,168433,34334,224464
34899,168463,34345,224553
34909,168465,34334,224624
34929,168510,34327,224762
34938,168532,34333,224824
34948,168543,34336,224891
34958,168584,34342,224894
35012,168653,34346,225028
35093,168697,34341,225142
35095,168700,34346,225152
35098,168699,34360,225176
35108,168689,34334,225146
35194,168645,34356,225107
35196,168615,34367,225077
35198,168614,34364,225002
35273,168472,34366,224747
35318,168127,34316,224057
35328,167988,34317,223687
35337,167820,34336,223254
35347,167597,34303,222735
35369,167183,34307,221470
35377,167024,34291,220884
35388,166808,34307,220331
35398,166531,34272,219863
35408,166175,34246,219447
35418,165838,34222,219147
35428,165508,34208,218757
35438,165284,34175,218389
35448,165105,34188,218029
35458,164837,34206,217697
35468,164592,34156,217402
35478,164408,34168,217131
35488,164270,34166,216937
35498,164170,34172,216729
35530,164168,34249,216229
35538,164163,34256,216101
35547,164080,34276,215944
35557,163934,34300,215789
35568,163823,34291,215653
35578,163779,34311,215571
35587,163740,34302,215526
35597,163695,34330,215465
35607,163640,34346,215398
35618,163621,34356,215366
35650,163565,34445,215284
35658,163564,34459,215262
35667,163543,34478,215237
35677,163537,34514,215256
35688,163542,34532,215201
35698,163541,34581,215252
35708,163553,34581,215239
35717,163534,34613,215250
35728,163558,34634,215237
35738,163562,34650,215266
35748,163587,34654,215282
35757,163609,34696,215322
35768,163663,34701,215417
35778,163742,34721,215531
35788,163867,34726,215697
35797,163969,34764,215880
35807,164126,34779,216156
35817,164305,34789,216412
35828,164459,34789,216689
35837,164639,34812,217019
35847,164820,34833,217264
35857,164978,34841,217535
35867,165123,34863,217810
35877,165293,34855,218065
35910,165737,34904,218884
35917,165853,34920,219121
35928,165962,34915,219356
35938,166068,34935,219581
35948,166162,34933,219810
35958,166352,34934,220063
35967,166539,34951,220340
35977,166768,34983,220636
35988,167018,35002,221009
36008,167541,35015,221948
36017,167822,35035,222491
36028,168114,35044,223104
36038,168386,35056,223687
36047,168615,35061,224224
36057,168822,35062,224727
36089,169171,35074,225646
36097,169216,35043,225871
36108,169254,35055,226027
36118,169275,35059,226140
36127,169306,35046,226239
36137,169315,35055,226292
36148,169349,35060,226296
36158,169333,35039,226340
36167,169390,35039,226372
36177,169399,35041,226442
36187,169433,35043,226473
36197,169455,35037,226550
36273,169529,35001,226716
36317,169355,34935,226669
36327,169299,34927,226661
36337,169268,34897,226668
36347,169248,34905,226747
36357,169244,34887,226825
36367,169228,34868,226873
36377,169209,34865,226858
36388,169164,34886,226803
36437,168787,34869,225915
36447,168650,34869,225583
36457,168545,34879,225306
36466,168415,34863,224955
36476,168290,34850,224613
36489,168135,34840,224205
36497,167996,34865,223762
36507,167844,34879,223298
36517,167720,34869,222856
36527,167598,34879,222485
36537,167463,34877,222094
36546,167269,34880,221632
36597,165825,34826,219290
36695,164377,34811,216821
36697,164350,34815,216704
36708,164300,34826,216561
36717,164287,34857,216477
36727,164244,34874,216410
36737,164200,34876,216347
36747,164164,34894,216277
36756,164152,34913,216212
36766,164120,34924,216178
36776,164098,34924,216124
36832,164050,35022,216042
36836,164053,35017,216040
36846,164039,35047,216005
36856,164003,35069,216039
36867,164044,35083,216021
36888,164071,35113,216070
36936,164333,35171,216457
36946,164429,35177,216639
36956,164554,35195,216828
36966,164701,35216,217166
36989,165098,35248,217819
36996,165304,35262,218147
37006,165487,35284,218486
37016,165707,35288,218815
37026,165924,35325,219184
37036,166175,35319,219556
37045,166409,35357,219904
37057,166614,35329,220267
37090,167171,35398,221302
37110,167611,35416,222107
37117,167895,35433,222634
37126,168231,35454,223190
37136,168532,35463,223751
37148,168816,35459,224320
37156,169085,35481,224926
37166,169301,35462,225561
37176,169493,35462,226132
37186,169627,35462,226637
37196,169740,35455,227028
37207,169846,35466,227384
37216,169926,35462,227628
37226,169972,35455,227811
37236,169984,35463,227996
37270,169909,35428,227982
37276,169896,35429,227953
37286,169909,35444,228018
37296,169912,35413,227998
37308,169875,35441,227937
37316,169874,35434,227921
37326,169870,35457,227893
37336,169864,35434,227917
37348,169874,35433,227937
37356,169878,35434,227959
37366,169874,35427,228001
37389,169873,35419,228110
37410,169859,35421,228154
37429,169834,35401,228150
37436,169817,35409,228142
37446,169823,35412,228131
37456,169783,35395,228102
37466,169745,35404,228047
37475,169729,35382,227942
37485,169690,35389,227865
37497,169640,35384,227718
37506,169572,35385,227546
37516,169498,35373,227368
37594,168706,35363,225128
37597,168552,35362,224654
37606,168374,35358,224198
37628,168094,35344,223483
37636,167917,35333,223109
37646,167722,35337,222734
37656,167571,35349,222367
37666,167409,35325,222007
37675,167247,35328,221639
37688,167057,35317,221255
37696,166810,35303,220837
37706,166446,35272,220394
37715,166118,35241,219896
37725,165889,35230,219541
37736,165692,35238,219183
37813,165170,35256,217515
37816,165075,35272,217377
37826,165003,35291,217233
37835,164962,35277,217147
37845,164916,35280,217057
37855,164854,35303,216921
37868,164804,35309,216848
37875,164745,35319,216795
37885,164721,35321,216724
37895,164660,35324,216683
37952,164586,35404,216566
37956,164587,35423,216547
37965,164562,35431,216548
37975,164606,35472,216561
37988,164642,35468,216600
37995,164679,35474,216637
38005,164721,35483,216694
38028,164864,35509,216908
38035,164957,35515,217065
38045,165102,35521,217279
38055,165237,35531,217534
38068,165394,35526,217825
38089,165759,35569,218477
38095,165926,35576,218782
38109,166084,35588,219046
38115,166220,35579,219330
38125,166348,35581,219563
38135,166454,35619,219806
38169,166823,35627,220547
38175,166952,35647,220793
38186,167082,35650,221063
38195,167253,35664,221332
38206,167466,35668,221641
38215,167698,35692,221936
38225,167984,35717,222214
38235,168250,35743,222627
38248,168521,35764,223107
38255,168834,35792,223765
38265,169163,35792,224425
38275,169413,35797,225098
38395,170520,35789,228243
38476,170479,35795,227929
38485,170453,35799,227907
38495,170440,35797,227888
38504,170444,35799,227883
38530,170437,35788,227909
38549,170431,35797,227915
38554,170398,35806,227926
38564,170395,35786,227923
38575,170392,35769,227915
38654,170061,35773,227500
38668,169835,35748,226917
38689,169598,35735,226210
38752,168675,35712,223653
38812,167721,35672,221606
38815,167489,35662,221274
38825,167212,35646,220887
38834,166912,35617,220534
38844,166635,35606,220203
38855,166420,35580,219899
38865,166252,35589,219608
38875,166106,35552,219345
38884,165994,35592,219096
38894,165864,35592,218879
38904,165762,35596,218660
38915,165660,35586,218504
38925,165579,35591,218338
38934,165532,35577,218209
38945,165494,35570,218066
38954,165415,35578,217974
38964,165410,35579,217903
38975,165336,35592,217822
38985,165320,35595,217766
38995,165271,35608,217739
39004,165283,35605,217711
39029,165285,35626,217747
39034,165319,35617,217754
39043,165358,35631,217825
39054,165407,35638,217885
39064,165463,35652,217992
39075,165550,35660,218144
39084,165634,35658,218328
39094,165770,35674,218540
39104,165882,35659,218764
39115,166009,35661,218995
39125,166128,35667,219227
39149,166354,35675,219739
39154,166498,35684,220008
39164,166652,35692,220268
39174,166804,35709,220540
39184,166927,35733,220747
39194,167056,35742,220949
39204,167203,35744,221204
39213,167358,35745,221424
39223,167516,35756,221709
39234,167683,35768,221984
39334,169588,35878,225535
39337,169774,35871,226015
39344,169912,35858,226419
39354,170042,35882,226747
39364,170175,35853,227052
39374,170279,35875,227351
39383,170370,35856,227719
39394,170407,35850,227901
39404,170459,35863,228002
39415,170438,35849,228106
39424,170483,35848,228140
39434,170474,35862,228165
39444,170526,35845,228221
39455,170564,35840,228379
39534,170760,35817,228824
39536,170768,35818,228875
39543,170771,35811,228853
39553,170771,35801,228875
39568,170777,35802,228910
39574,170789,35796,228922
39583,170776,35788,228954
39594,170770,35776,228972
39604,170764,35775,228960
39614,170731,35783,228945
39627,170719,35774,228942
39633,170685,35762,228900
39643,170644,35773,228824
39654,170591,35752,228716
39664,170528,35758,228580
39673,170437,35753,228407
39684,170360,35745,228282
39694,170301,35747,228205
39704,170263,35750,228125
39729,170168,35728,228058
39734,170105,35732,227892
39744,169978,35726,227623
39753,169856,35729,227284
39764,169703,35702,226845
39774,169520,35715,226398
39784,169374,35692,226003
39809,168967,35670,225194
39830,168610,35664,224401
39849,168385,35648,223817
39853,168313,35646,223689
39864,168298,35659,223726
39874,168330,35655,223803
39910,168544,35619,224480
39929,168836,35637,225191
39933,169079,35665,225494
39943,169366,35677,225828
39953,169600,35677,226267
39968,169859,35679,226851
39989,170181,35673,227789
39993,170272,35667,228102
40002,170375,35667,228273
40013,170393,35638,228377
40024,170391,35639,228362
40034,170381,35642,228333
40043,170371,35614,228330
40053,170385,35623,228422
40063,170395,35606,228529
40074,170402,35594,228588
40083,170396,35569,228575
40093,170362,35567,228560
40104,170306,35556,228505
40114,170287,35537,228486
40124,170232,35537,228418
40133,170196,35531,228432
40143,170175,35521,228427
40153,170148,35511,228441
40164,170077,35516,228374
40172,170017,35504,228222
40183,169900,35507,227976
40193,169755,35520,227601
40230,169109,35507,226011
40233,168841,35503,225390
40243,168531,35522,224731
40252,168258,35497,223980
40290,167443,35468,222200
40293,167253,35462,221757
40303,167017,35443,221337
40313,166774,35418,220811
40323,166509,35387,220282
40333,166244,35368,219832
40342,166013,35345,219402
40352,165826,35344,218967
40363,165692,35347,218595
40374,165568,35358,218308
40383,165482,35347,218075
40433,165360,35402,217543
40443,165347,35418,217467
40454,165325,35408,217390
40463,165273,35435,217268
40473,165180,35431,217130
40483,165094,35442,216982
40493,165020,35429,216849
40502,164960,35454,216705
40529,164882,35476,216503
40533,164854,35495,216440
40542,164815,35506,216340
40593,164792,35560,216234
40603,164749,35576,216221
40696,165701,35624,217961
40703,165825,35609,218191
40712,165930,35617,218514
40723,166092,35611,218774
40732,166236,35627,219099
40743,166374,35606,219360
40752,166497,35631,219640
40763,166599,35629,219869
40773,166695,35642,220107
40783,166778,35648,220342
40792,166868,35662,220596
40802,166993,35677,220819
40813,167114,35682,221094
40823,167273,35713,221361
40833,167436,35708,221600
40842,167572,35719,221837
40852,167710,35729,222108
40863,167846,35738,222400
40873,168010,35772,222691
40882,168170,35769,223075
40892,168367,35786,223441
40902,168559,35783,223822
40913,168721,35789,224175
40922,168866,35786,224482
40932,169012,35797,224812
40942,169172,35784,225150
40953,169321,35785,225509
40962,169406,35794,225853
40972,169499,35790,226099
40982,169581,35796,226256
40992,169664,35793,226393
41002,169750,35783,226589
41012,169804,35779,226742
41094,170053,35758,227506
41096,170076,35748,227551
41102,170038,35759,227570
41112,170083,35760,227596
41127,170100,35768,227593
41132,170092,35756,227667
41142,170117,35750,227694
41152,170100,35765,227742
41167,170120,35749,227778
41172,170134,35742,227830
41182,170121,35754,227862
41208,170125,35738,227925
41253,169847,35726,227358
41268,169727,35713,227049
41272,169610,35720,226687
41282,169445,35724,226261
41292,169283,35725,225906
41302,169104,35726,225486
41312,168942,35716,225037
41350,168314,35726,223465
41353,168115,35720,222934
41362,167917,35718,222410
41372,167698,35708,221953
41431,166554,35623,220060
41434,166452,35614,219759
41442,166340,35648,219453
41452,166298,35626,219268
41468,166210,35630,219054
41471,166137,35616,218862
41482,166037,35624,218691
41492,165966,35622,218530
41502,165844,35624,218392
41512,165758,35626,218234
41522,165660,35626,218088
41532,165548,35615,217937
41541,165439,35616,217792
41551,165385,35634,217667
41561,165310,35614,217569
41572,165235,35631,217461
41582,165135,35624,217313
41592,165035,35638,217188
41602,164950,35638,217049
41612,164868,35652,216957
41622,164840,35641,216826
41631,164795,35638,216734
41641,164760,35653,216692
41652,164776,35653,216646
41662,164811,35668,216702
41671,164887,35677,216753
41709,165199,35698,217132
41712,165319,35714,217332
41721,165400,35701,217504
41731,165541,35695,217715
41742,165682,35697,217886
41751,165775,35705,218086
41761,165874,35700,218323
41772,165991,35719,218583
41782,166069,35704,218829
41809,166352,35702,219443
41811,166508,35706,219757
41821,166660,35698,220124
41832,166817,35726,220468
41841,167008,35733,220793
41852,167146,35747,221138
41862,167309,35765,221460
41872,167469,35788,221758
41881,167645,35782,222064
41892,167829,35814,222429
41902,168034,35819,222817
41912,168275,35849,223244
41921,168512,35847,223648
41931,168666,35859,224090
41942,168846,35871,224485
41952,168995,35877,224854
41968,169153,35882,225149
41971,169297,35884,225433
41981,169399,35882,225631
41992,169505,35889,225812
42001,169594,35884,226055
42011,169700,35888,226261
42021,169770,35881,226421
42074,169966,35868,226996
42081,169972,35865,227036
42090,170011,35842,227128
42101,170057,35847,227226
42111,170065,35861,227344
42150,170126,35838,227490
42168,170190,35854,227691
42171,170244,35832,227842
42181,170248,35871,227859
42191,170270,35842,227898
42201,170266,35837,227917
42211,170259,35826,227991
42227,170268,35830,228020
42249,170260,35812,228050
42251,170270,35817,228069
42261,170257,35845,228031
42271,170201,35821,228016
42282,170203,35810,228017
42309,170168,35807,227913
42311,170113,35812,227850
42321,170084,35814,227764
42331,170045,35803,227754
42341,169999,35791,227676
42351,169950,35791,227567
42361,169878,35793,227431
42371,169805,35795,227196
42380,169700,35801,226919
42391,169550,35793,226740
42401,169466,35787,226537
42429,169165,35780,225912
42431,168988,35769,225496
42441,168779,35756,224960
42493,167621,35733,222760
42500,167422,35712,222343
42510,167229,35733,222019
42520,167102,35708,221705
42531,166970,35710,221383
42548,166848,35687,221095
42550,166691,35691,220826
42560,166519,35656,220438
42571,166414,35656,220213
42581,166297,35652,219976
42590,166247,35662,219709
42600,166129,35659,219438
42611,166059,35658,219199
42628,165978,35662,218985
42630,165950,35666,218806
42640,165874,35698,218602
42651,165810,35658,218495
42661,165767,35654,218401
42670,165694,35671,218281
42680,165671,35683,218193
42690,165616,35674,218099
42701,165552,35674,217945
42729,165434,35692,217742
42773,165204,35710,217368
42781,165150,35718,217291
42791,165165,35722,217244
42800,165113,35727,217229
42811,165125,35734,217247
42821,165146,35736,217317
42831,165208,35749,217431
42848,165311,35747,217627
42850,165455,35737,217847
42860,165586,35771,218089
42871,165737,35762,218351
42880,165868,35777,218606
42890,166013,35770,218887
42900,166179,35770,219140
42911,166285,35787,219395
42920,166380,35767,219613
42930,166513,35780,219871
42940,166596,35785,220096
42950,166747,35800,220351
42960,166888,35789,220558
42970,166980,35811,220776
42980,167088,35802,221018
42990,167230,35829,221285
43000,167358,35828,221467
43009,167520,35844,221705
43020,167660,35858,221971
43030,167819,35891,222255
43041,167991,35886,222565
43050,168154,35906,222906
43060,168367,35905,223334
43071,168563,35915,223732
43088,168768,35932,224185
43090,168940,35934,224599
43100,169117,35955,224979
43111,169277,35945,225354
43121,169447,35961,225654
43130,169577,35933,226008
43148,169697,35934,226306
43151,169810,35935,226626
43161,169920,35951,226835
43170,169983,35931,227104
43188,170068,35946,227325
43191,170151,35936,227509
43201,170214,35929,227659
43210,170248,35940,227773
43220,170270,35927,227891
43230,170322,35925,227989
43240,170359,35924,228043
43250,170372,35929,228107
43260,170413,35916,228155
43270,170380,35917,228171
43280,170372,35910,228204
43290,170391,35900,228219
43300,170406,35892,228264
43309,170432,35924,228291
43320,170417,35894,228315
43331,170436,35913,228325
43340,170414,35920,228311
43350,170393,35916,228341
43360,170425,35904,228376
43370,170399,35905,228367
43379,170373,35905,228383
43390,170362,35923,228403
43400,170343,35898,228416
43410,170328,35903,228393
43420,170267,35890,228318
43449,170113,35898,227954
43512,168945,35853,225174
43515,168774,35866,224718
43520,168569,35853,224310
43530,168324,35863,223842
43540,168151,35875,223480
43549,167936,35866,223027
43560,167718,35832,222585
43589,167250,35807,221789
43591,167055,35790,221444
43599,166876,35748,221144
43610,166707,35780,220797
43620,166569,35749,220545
43629,166490,35752,220284
43640,166401,35737,220002
43669,166243,35738,219458
43671,166191,35744,219225
43679,166108,35715,219033
43689,166028,35748,218873
43730,165858,35743,218527
43793,165750,35775,218152
43795,165755,35781,218121
43799,165747,35791,218103
43809,165750,35793,218062
43819,165775,35813,218007
43830,165738,35820,217979
43839,165758,35811,217951
43849,165712,35830,217897
43860,165711,35826,217835
43870,165669,35831,217811
43879,165633,35823,217726
43889,165574,35830,217701
43899,165570,35830,217701
43909,165544,35848,217709
43919,165575,35831,217722
43930,165596,35856,217759
43939,165608,35836,217834
43949,165661,35828,217923
43959,165720,35823,218080
43969,165826,35852,218249
43979,165951,35848,218500
43989,166078,35846,218769
43999,166233,35854,219011
44009,166385,35841,219289
44020,166531,35862,219588
44029,166682,35875,219886
44039,166844,35880,220179
44049,166970,35886,220441
44059,167113,35884,220704
44070,167256,35892,220977
44080,167387,35918,221229
44089,167554,35923,221499
44099,167691,35936,221792
44109,167871,35940,222095
44127,168061,35955,222433
44149,168468,35984,223314
44152,168693,36002,223826
44160,168950,36025,224367
44169,169157,36007,224851
44188,169390,36025,225270
44191,169564,36028,225637
44200,169701,36036,225939
44208,169837,36023,226199
44219,169941,36005,226456
44229,170016,36014,226721
44240,170097,35995,227006
44250,170171,35991,227195
44259,170207,35992,227344
44269,170244,35979,227385
44279,170268,35959,227387
44289,170260,35949,227513
44298,170277,35926,227626
44309,170258,35918,227661
44319,170223,35903,227634
44330,170148,35864,227617
44348,170074,35852,227621
44350,170046,35823,227705
44359,170011,35814,227783
44369,170007,35806,227869
44378,170001,35803,227946
44389,170009,35816,228072
44399,170014,35829,228124
44409,170018,35830,228215
44428,170056,35834,228305
44430,170074,35840,228386
44438,170081,35859,228363
44449,170084,35860,228341
44458,170078,35864,228336
44468,170045,35872,228336
44478,170031,35888,228281
44489,170029,35890,228287
44500,170008,35878,228300
44509,170013,35920,228259
44519,169962,35904,228237
44529,169965,35924,228199
44539,170007,35922,228116
44548,170003,35920,228108
44559,169967,35937,227971
44569,169895,35921,227780
44579,169789,35901,227516
44588,169661,35910,227133
44598,169480,35929,226634
44609,169286,35927,226114
44619,169065,35917,225570
44628,168810,35921,224995
44638,168571,35910,224482
44649,168347,35926,223952
44659,168094,35903,223448
44669,167864,35896,222994
44679,167637,35889,222503
44689,167387,35865,222062
44699,167198,35864,221680
44708,166953,35845,221227
44718,166814,35822,220904
44728,166722,35832,220601
44738,166652,35826,220381
44770,166616,35845,219753
44779,166571,35852,219623
44789,166516,35841,219465
44798,166434,35840,219371
44874,165859,35831,218509
44878,165774,35817,218389
44888,165688,35829,218288
44898,165624,35823,218168
44952,165386,35856,217808
44958,165358,35841,217768
44968,165312,35855,217680
44979,165289,35861,217665
44989,165258,35854,217581
45009,165210,35869,217514
45018,165198,35862,217477
45028,165155,35889,217435
45038,165157,35894,217359
45047,165145,35878,217347
45058,165142,35885,217347
45069,165155,35893,217340
45079,165175,35903,217349
45088,165212,35904,217405
45208,165984,35954,218873
45231,166328,35966,219511
45238,166436,35975,219739
45248,166528,35991,219927
45258,166671,35993,220119
45312,167247,36048,221190
45318,167340,36047,221351
45328,167409,36067,221507
45338,167464,36059,221647
45348,167508,36064,221751
45369,167638,36089,222042
45377,167722,36083,222138
45388,167785,36086,222237
45398,167819,36117,222316
45409,167854,36108,222375
45417,167876,36111,222421
45428,167882,36110,222441
45438,167902,36101,222437
45448,167911,36113,222453
45458,167918,36119,222426
45468,167904,36126,222405
45478,167896,36123,222379
45488,167908,36109,222350
45498,167879,36102,222319
45507,167848,36109,222278
45518,167835,36094,222249
45528,167818,36097,222177
45538,167791,36094,222164
45548,167769,36101,222140
45558,167765,36101,222109
45568,167749,36101,222077
45578,167728,36098,222054
45587,167718,36108,222040
45597,167704,36114,222004
45608,167705,36104,221986
45618,167680,36100,221985
45672,167626,36105,221938
45677,167633,36110,221921
45687,167638,36114,221912
45697,167640,36103,221937
45708,167655,36123,221936
45718,167651,36098,221944
45728,167640,36112,221941
45750,167655,36103,221939
45757,167653,36101,221914
45768,167644,36084,221884
45778,167617,36097,221843
45788,167603,36109,221835
45797,167582,36101,221841
45807,167603,36116,221786
45817,167580,36101,221807
45828,167599,36092,221798
45837,167614,36120,221767
45848,167643,36106,221871
45858,167663,36111,221915
45868,167749,36100,222015
45877,167798,36116,222129
45887,167890,36139,222284
45897,168044,36154,222489
45909,168270,36181,222760
45917,168519,36194,223122
45927,168799,36213,223469
45937,169093,36241,223837
45948,169335,36244,224179
45958,169565,36284,224578
45967,169757,36286,224878
45977,169881,36295,225133
45988,170004,36301,225298
45998,170120,36305,225384
46008,170172,36315,225496
46017,170254,36304,225603
46027,170304,36306,225636
46037,170347,36312,225665
46048,170367,36312,225701
46057,170402,36326,225724
46067,170408,36326,225756
46078,170440,36317,225768
46087,170457,36329,225824
46109,170495,36311,225940
46117,170505,36309,225966
46126,170508,36311,226008
46137,170530,36319,226041
46192,170580,36316,226111
46238,170579,36317,226127
46248,170598,36327,226083
46257,170551,36333,226083
46267,170577,36328,226076
46290,170596,36316,226075
46296,170601,36327,226074
46395,170636,36338,225925
46397,170666,36340,225912
46963,170767,36429,225453
47013,170656,36435,225184
47016,170641,36449,225127
47137,170561,36444,225275
47149,170516,36426,225345
47156,170475,36445,225371
47166,170502,36442,225359
47175,170473,36439,225312
47210,170492,36442,225124
47216,170495,36450,225131
47226,170506,36429,225135
47236,170522,36433,225233
47314,170536,36436,225359
47317,170542,36429,225487
47327,170532,36444,225498
47336,170528,36425,225529
47346,170536,36438,225500
47356,170550,36439,225552
47366,170586,36435,225562
47375,170595,36436,225539
47385,170604,36443,225535
47396,170588,36442,225555
47409,170606,36451,225641
47497,170580,36454,225431
47505,170575,36450,225355
47529,170598,36468,225422
47536,170582,36460,225407
47545,170568,36470,225411
47555,170577,36472,225461
47565,170593,36462,225512
47576,170577,36478,225592
47586,170592,36479,225683
47595,170635,36481,225698
47606,170629,36448,225739
47656,170683,36471,225972
47666,170685,36464,225986
47675,170690,36459,226026
47709,170725,36457,226049
48382,170817,36531,225747
48415,170632,36528,225478
48428,170626,36534,225357
48435,170600,36533,225267
48445,170607,36546,225216
48556,170593,36526,225483
48594,170620,36535,225588
48673,170657,36536,225622
48675,170691,36523,225698
48684,170675,36548,225683
48695,170694,36532,225751
48708,170729,36552,225839
48714,170747,36535,225891
48724,170736,36539,225928
48734,170757,36537,225986
48744,170763,36536,226017
48754,170765,36536,226010
48769,170795,36539,226065
49011,170876,36564,226475
49013,170883,36554,226498
49016,170898,36570,226524
49049,170911,36572,226639
49054,170930,36558,226660
49621,170777,36645,225704
49654,170769,36647,225551
49885,170609,36645,225363
49999,170631,36650,225557
50078,170702,36645,225863
50083,170709,36642,225940
50093,170757,36644,226061
50213,170854,36684,226277
50273,170926,36673,226540
50386,170793,36686,226082
50410,170844,36664,226246
50453,170894,36662,226447
50462,170881,36709,226473
51140,170722,36714,225637
51348,170620,36703,225510
51350,170665,36703,225602
51353,170700,36708,225713
51456,170941,36669,226537
51458,170922,36678,226479
51462,170900,36709,226378
51472,170862,36698,226296
51533,170927,36685,226319
51535,170975,36696,226426
51541,171019,36704,226553
51592,171286,36687,227401
51674,171370,36664,227998
51677,171313,36657,227837
51732,171164,36665,227356
51734,171148,36660,227329
51742,171141,36657,227323
51751,171145,36677,227330
51791,171119,36666,227234
51792,171094,36669,227154
51810,171090,36660,227155
51853,171100,36663,227102
51862,171116,36681,227140
52763,170828,36674,226326
52834,170910,36674,226576
52960,171083,36648,226950
53011,171180,36655,227333
53014,171213,36652,227357
53050,171275,36644,227521
53052,171322,36650,227612
53060,171364,36649,227764
53089,171418,36635,228013
53091,171458,36643,228142
53100,171502,36639,228250
53111,171497,36619,228270
53172,171593,36617,228582
53174,171589,36609,228627
53180,171615,36603,228674
53190,171625,36602,228727
53201,171593,36612,228757
53210,171613,36605,228758
53220,171625,36598,228797
53231,171657,36625,228832
53241,171651,36603,228818
53250,171639,36578,228803
53260,171614,36608,228780
53270,171619,36614,228780
53280,171619,36606,228755
53291,171614,36613,228735
53300,171590,36593,228719
53310,171600,36609,228702
53320,171576,36595,228710
53330,171609,36610,228753
53339,171612,36601,228745
53350,171605,36596,228720
53360,171588,36586,228662
53371,171584,36597,228681
53380,171581,36584,228707
53390,171609,36599,228750
53400,171598,36600,228751
53410,171593,36591,228807
53419,171609,36596,228846
53430,171600,36569,228825
53441,171588,36601,228761
53450,171562,36588,228741
53460,171547,36599,228735
53469,171541,36595,228664
53480,171518,36596,228694
53490,171526,36595,228651
53500,171518,36575,228604
53510,171518,36586,228601
53520,171498,36581,228590
53530,171463,36593,228535
53540,171492,36588,228488
53550,171473,36595,228485
53560,171465,36577,228459
53570,171469,36584,228444
53580,171469,36592,228466
53589,171478,36593,228495
53599,171492,36584,228526
53610,171506,36593,228519
53621,171500,36572,228554
53630,171518,36581,228619
53640,171543,36589,228704
53650,171564,36586,228764
53660,171593,36571,228812
53670,171600,36578,228924
53680,171611,36586,229018
53709,171606,36567,229100
53711,171621,36558,229210
53719,171639,36550,229207
53730,171651,36567,229327
53740,171693,36567,229445
53750,171685,36556,229864
53759,171689,36556,229911
53770,171693,36568,229887
53780,171693,36548,229871
53790,171675,36545,229895
53808,171673,36549,229873
53811,171672,36548,229914
53820,171652,36549,229879
53830,171654,36539,229893
53839,171633,36556,229838
53849,171630,36560,229864
53859,171625,36554,229869
53870,171617,36561,229875
53880,171608,36550,229909
53890,171604,36564,229931
53900,171600,36549,229948
53910,171629,36537,229984
53919,171617,36557,230011
53929,171641,36560,230066
53940,171631,36553,230086
53950,171625,36558,230095
53960,171620,36550,230103
53969,171610,36550,230113
53980,171619,36551,230116
53990,171609,36548,230134
54000,171611,36539,230139
54009,171607,36539,230152
54019,171599,36542,230124
54030,171587,36538,230125
54040,171581,36538,230143
54049,171583,36544,230136
54059,171582,36544,230145
54070,171569,36517,230137
54080,171578,36524,230112
54111,171559,36523,230130
54120,171558,36520,230118
54129,171566,36530,230079
54148,171529,36521,230111
54151,171552,36522,230107
54160,171546,36520,230115
54169,171507,36539,230074
54180,171516,36495,230077
54190,171524,36525,230033
54200,171522,36513,230058
54209,171506,36520,230058
54219,171519,36526,229989
54230,171497,36522,230049
54240,171496,36519,230027
54250,171489,36521,230029
54259,171485,36512,230030
54269,171482,36515,230024
54280,171487,36526,229989
54289,171480,36513,229971
54299,171490,36501,229978
54310,171476,36520,229964
54320,171485,36518,229955
54329,171460,36510,229960
54339,171471,36514,229946
54349,171487,36493,229947
54360,171471,36491,229956
54370,171451,36504,229942
54379,171470,36494,229935
54389,171467,36492,229958
54399,171474,36493,229939
54410,171472,36508,229945
54419,171471,36505,230003
54429,171483,36509,229965
54439,171467,36490,230010
54449,171474,36493,230013
54458,171488,36500,230025
54469,171496,36488,230057
54489,171511,36484,230039
54491,171518,36484,230096
54499,171520,36489,230104
54509,171516,36487,230097
54519,171527,36474,230101
54529,171506,36489,230130
54539,171528,36501,230129
54548,171525,36469,230139
54558,171521,36490,230129
54569,171542,36473,230183
54579,171536,36503,230168
54588,171540,36457,230175
54598,171540,36466,230196
54609,171547,36470,230212
54619,171553,36512,230214
54628,171540,36454,230257
54638,171547,36478,230256
54649,171561,36482,230295
54659,171567,36497,230322
54668,171603,36473,230330
54679,171586,36466,230373
54690,171571,36472,230358
54699,171597,36460,230396
54708,171586,36461,230402
54719,171605,36443,230398
54729,171588,36483,230446
54739,171597,36483,230469
54749,171617,36463,230473
54759,171631,36444,230460
54769,171616,36453,230497
54779,171622,36452,230500
54810,171641,36448,230549
54819,171639,36433,230584
54829,171652,36446,230579
54839,171639,36429,230586
54849,171658,36449,230612
54859,171642,36439,230636
54869,171668,36433,230643
54879,171663,36426,230632
54889,171665,36427,230618
54899,171665,36458,230641
54909,171658,36451,230648
54918,171673,36407,230647
54928,171665,36415,230648
54939,171660,36423,230634
54949,171679,36434,230662
54958,171673,36414,230689
54969,171671,36433,230682
54979,171666,36421,230712
54989,171683,36429,230702
54999,171666,36410,230720
55008,171663,36419,230706
55018,171678,36458,230699
55029,171665,36402,230702
55039,171662,36400,230687
55048,171688,36403,230707
55058,171660,36398,230672
55068,171658,36411,230674
55079,171668,36414,230681
55088,171647,36423,230698
55098,171653,36412,230668
55109,171648,36401,230683
55119,171635,36406,230660
55128,171642,36410,230689
55138,171650,36396,230686
55148,171661,36405,230646
55158,171626,36398,230683
55168,171651,36404,230666
55178,171647,36404,230677
55188,171638,36414,230674
55198,171644,36415,230685
55208,171631,36397,230690
55218,171641,36403,230657
55228,171635,36394,230674
55238,171640,36405,230659
55249,171646,36387,230670
55258,171647,36387,230672
55268,171627,36389,230651
55278,171640,36401,230653
55288,171623,36407,230666
55298,171644,36384,230661
55309,171631,36393,230672
55319,171622,36400,230663
55329,171619,36401,230653
55338,171603,36390,230654
55348,171602,36399,230654
55358,171608,36376,230646
55369,171626,36389,230645
55378,171623,36394,230664
55388,171628,36372,230652
55398,171627,36403,230680
55409,171634,36390,230671
55418,171619,36374,230693
55428,171629,36402,230683
55438,171635,36399,230663
55449,171637,36378,230682
55458,171631,36384,230689
55468,171640,36385,230681
55478,171624,36392,230686
55488,171616,36384,230672
55498,171591,36389,230664
55508,171601,36368,230656
55518,171609,36382,230644
55529,171598,36380,230633
55539,171615,36375,230657
55548,171610,36386,230643
55558,171604,36370,230649
55569,171597,36381,230651
55632,171601,36362,230651
55638,171591,36373,230643
55648,171595,36359,230648
55658,171581,36376,230649
55668,171602,36362,230643
55677,171591,36352,230644
55688,171609,36364,230652
55698,171578,36372,230652
55708,171584,36366,230621
55718,171565,36363,230633
55728,171587,36358,230603
55738,171567,36370,230618
55748,171558,36355,230628
55757,171581,36368,230607
55768,171577,36360,230626
55778,171575,36347,230629
55810,171598,36343,230644
55818,171581,36348,230634
55828,171578,36349,230637
55838,171570,36327,230623
55848,171566,36348,230620
55870,171558,36340,230626
55877,171574,36365,230616
55888,171558,36355,230638
55897,171587,36345,230606
55909,171571,36334,230624
55917,171554,36354,230611
55928,171572,36326,230632
55937,171567,36342,230609
55949,171575,36329,230623
55958,171567,36345,230619
55968,171550,36351,230621
55978,171580,36344,230614
55988,171571,36332,230621
55998,171543,36362,230631
56008,171553,36337,230623
56017,171556,36317,230627
56027,171554,36339,230601
56038,171566,36331,230630
56048,171557,36345,230618
56058,171566,36326,230626
56068,171560,36314,230610
56078,171553,36323,230649
56087,171550,36337,230635
56097,171554,36330,230649
56108,171551,36326,230631
56118,171566,36337,230623
56128,171566,36325,230631
56137,171549,36333,230631
56147,171540,36321,230617
56158,171567,36312,230615
56167,171553,36335,230593
56177,171529,36323,230624
56188,171545,36315,230604
56198,171517,36326,230626
56208,171535,36319,230617
56217,171549,36314,230613
56227,171551,36317,230588
56238,171525,36327,230625
56249,171548,36324,230613
56257,171556,36318,230618
56267,171541,36312,230596
56277,171548,36331,230591
56287,171545,36320,230613
56297,171540,36306,230593
56307,171546,36312,230580
56317,171512,36328,230605
56350,171536,36308,230592
56358,171533,36298,230603
56368,171525,36303,230571
56377,171492,36318,230593
56387,171528,36301,230574
56397,171517,36308,230597
56408,171529,36308,230588
56417,171534,36289,230585
56427,171515,36305,230591
56437,171523,36301,230573
56447,171531,36297,230599
56457,171506,36298,230604
56467,171522,36292,230585
56477,171523,36277,230588
56487,171525,36288,230598
56497,171511,36290,230572
56506,171521,36302,230583
56516,171526,36273,230592
56527,171517,36287,230597
56538,171500,36303,230581
56547,171502,36306,230582
56557,171519,36281,230596
56567,171512,36293,230562
56577,171512,36291,230590
56588,171508,36276,230587
56597,171512,36286,230588
56607,171515,36283,230598
56617,171492,36293,230609
56626,171522,36296,230571
56636,171520,36278,230613
56647,171518,36269,230592
56657,171513,36284,230597
56668,171514,36270,230591
56677,171527,36278,230606
56687,171517,36286,230589
56697,171494,36285,230584
56707,171507,36259,230589
56716,171494,36276,230592
56726,171514,36277,230588
56737,171502,36280,230596
56748,171500,36270,230591
56757,171515,36290,230576
56767,171502,36275,230593
56777,171500,36269,230607
56789,171498,36265,230597
56796,171515,36274,230598
56806,171513,36287,230616
56816,171514,36257,230600
56827,171509,36262,230621
56837,171480,36270,230585
56847,171508,36272,230584
56857,171489,36279,230619
56867,171502,36259,230594
56889,171505,36277,230594
56897,171496,36266,230604
56907,171490,36267,230594
56916,171511,36280,230610
56926,171502,36274,230587
56937,171477,36270,230602
56949,171517,36278,230572
56957,171488,36257,230623
56966,171502,36250,230579
56976,171494,36267,230576
56986,171509,36266,230599
56997,171508,36264,230602
57008,171491,36269,230590
57016,171507,36265,230598
57026,171489,36261,230601
57036,171488,36261,230593
57047,171495,36262,230600
57056,171500,36260,230586
57067,171499,36251,230609
57077,171491,36248,230583
57086,171492,36268,230578
57096,171481,36252,230570
57109,171488,36246,230596
57117,171504,36247,230585
57126,171471,36240,230588
57136,171467,36258,230578
57146,171479,36256,230566
57170,171494,36251,230575
57189,171480,36229,230585
57197,171480,36233,230578
57207,171482,36236,230591
57216,171480,36243,230555
57226,171484,36240,230576
57236,171490,36237,230582
57246,171491,36235,230569
57256,171451,36250,230581
57267,171470,36229,230593
57277,171465,36236,230587
57287,171475,36235,230567
57296,171456,36232,230596
57306,171454,36228,230599
57316,171484,36236,230582
57329,171463,36237,230590
57336,171477,36230,230581
57346,171476,36239,230573
57356,171486,36211,230571
57369,171468,36226,230597
57375,171475,36223,230576
57386,171474,36222,230571
57396,171465,36227,230588
57406,171490,36224,230593
57416,171466,36209,230579
57426,171458,36232,230584
57436,171465,36217,230583
57449,171464,36225,230580
57457,171464,36219,230610
57466,171479,36206,230592
57476,171479,36213,230597
57486,171468,36208,230595
57497,171465,36218,230567
57506,171454,36189,230598
57516,171468,36201,230593
57526,171461,36208,230577
57536,171470,36212,230586
57548,171455,36204,230617
57555,171470,36208,230610
57566,171485,36203,230612
57576,171473,36207,230618
57585,171468,36206,230621
57596,171490,36193,230591
57606,171470,36204,230601
57616,171471,36198,230602
57625,171470,36184,230605
57636,171493,36209,230621
57646,171474,36194,230630
57656,171472,36209,230621
57666,171478,36215,230633
57675,171483,36208,230624
57686,171479,36208,230625
57696,171474,36206,230630
57730,171490,36199,230619
57736,171463,36197,230627
57746,171479,36184,230627
57755,171461,36174,230633
57765,171470,36185,230611
57776,171470,36203,230606
57786,171470,36205,230630
57795,171461,36174,230634
57806,171470,36196,230618
57816,171478,36193,230599
57851,171468,36181,230633
57856,171476,36176,230638
57866,171440,36185,230618
57875,171447,36163,230613
57885,171458,36172,230626
57896,171453,36178,230619
57909,171458,36170,230629
57916,171483,36181,230644
57925,171463,36175,230621
57936,171478,36169,230642
57946,171461,36184,230630
57956,171456,36168,230638
57965,171474,36166,230620
57990,171468,36153,230659
57996,171460,36148,230631
58005,171452,36165,230630
58015,171455,36166,230633
58029,171484,36154,230620
58036,171463,36160,230650
58045,171454,36166,230633
58055,171470,36143,230622
58066,171454,36158,230612
58076,171455,36141,230647
58085,171435,36157,230632
58095,171453,36154,230624
58106,171469,36163,230647
58116,171455,36152,230642
58125,171448,36143,230640
58135,171447,36142,230636
58145,171445,36134,230629
58156,171455,36132,230636
58166,171443,36151,230633
58175,171471,36143,230641
58188,171446,36130,230641
58196,171454,36137,230650
58206,171460,36138,230654
58215,171461,36127,230641
58225,171429,36133,230640
58250,171455,36125,230643
58254,171453,36126,230630
58265,171457,36123,230617
58275,171448,36130,230625
58285,171437,36140,230634
58295,171448,36132,230633
58305,171429,36123,230604
58315,171429,36146,230631
58325,171451,36133,230649
58334,171448,36117,230634
58345,171427,36129,230601
58355,171446,36120,230639
58369,171447,36131,230593
58375,171442,36110,230637
58388,171446,36123,230620
58395,171442,36117,230633
58405,171440,36127,230620
58416,171445,36112,230626
58428,171430,36126,230637
58475,171447,36125,230655
58485,171431,36110,230623
58495,171436,36115,230638
58504,171435,36110,230638
58515,171442,36115,230626
58525,171436,36114,230658
58535,171420,36120,230613
58544,171420,36103,230633
58555,171432,36116,230604
58565,171431,36119,230618
58575,171420,36120,230640
58585,171420,36112,230635
58595,171433,36113,230625
58605,171443,36090,230643
58615,171427,36105,230667
58625,171448,36101,230616
58634,171416,36098,230642
58645,171429,36078,230603
58655,171418,36095,230619
58666,171422,36085,230622
58674,171426,36091,230608
58685,171419,36089,230616
58695,171413,36102,230611
58705,171432,36092,230622
58715,171427,36075,230623
58725,171417,36088,230605
58735,171420,36072,230622
58745,171417,36087,230630
58754,171429,36085,230640
58764,171434,36081,230621
58774,171409,36091,230612
58785,171435,36092,230628
58794,171412,36073,230604
58805,171401,36081,230603
58815,171406,36092,230617
58825,171394,36082,230602
58834,171399,36079,230625
58844,171409,36073,230594
58854,171418,36078,230613
58864,171398,36066,230622
58875,171426,36055,230613
58885,171406,36073,230609
58894,171406,36052,230592
58905,171401,36046,230592
58914,171402,36062,230609
58924,171395,36070,230606
58935,171412,36065,230599
58945,171387,36076,230602
58955,171395,36063,230602
58964,171389,36054,230573
58974,171387,36052,230604
58985,171414,36048,230608
58994,171407,36054,230585
59004,171395,36058,230602
59014,171408,36057,230596
59024,171394,36041,230597
59035,171385,36050,230603
59044,171392,36042,230603
59054,171375,36067,230590
59065,171390,36050,230588
59075,171397,36048,230581
59084,171403,36035,230600
59094,171383,36059,230610
59104,171382,36056,230594
59114,171391,36039,230614
59124,171398,36049,230607
59134,171412,36028,230604
59144,171395,36060,230611
59154,171379,36037,230599
59164,171389,36054,230596
59174,171396,36024,230595
59184,171389,36044,230589
59195,171384,36027,230604
59205,171378,36058,230603
59213,171378,36041,230616
59224,171394,36027,230583
59235,171379,36037,230602
59245,171386,36028,230568
59254,171363,36042,230605
59264,171370,36024,230578
59274,171351,36041,230599
59284,171373,36023,230582
59294,171378,36028,230577
59304,171368,36035,230563
59314,171372,36035,230559
59325,171355,36024,230575
59333,171368,36022,230550
59344,171353,36006,230550
59354,171353,36023,230542
59364,171363,36031,230529
59375,171333,36031,230531
59384,171336,36026,230541
59394,171354,36017,230526
59404,171358,36000,230526
59415,171344,36025,230535
59424,171332,36008,230529
59434,171348,36029,230517
59445,171334,36009,230523
59454,171332,36015,230511
59464,171342,35996,230513
59474,171315,36007,230498
59484,171341,36009,230479
59494,171304,35996,230501
59503,171300,36007,230509
59514,171323,35997,230486
59524,171331,36003,230496
59549,171330,36008,230512
59553,171321,35980,230498
59563,171366,35997,230494
59574,171328,35976,230488
59583,171316,35999,230468
59593,171328,35999,230478
59604,171314,35993,230476
59614,171314,35992,230470
59624,171299,35997,230424
59633,171306,35993,230467
59643,171299,35981,230447
59654,171302,35969,230447
59665,171273,35986,230444
59674,171295,35983,230419
59684,171313,35976,230417
59694,171262,35985,230416
59704,171282,35978,230422
59714,171252,35985,230413
59724,171291,35979,230405
59734,171265,35971,230394
59744,171288,35979,230405
59753,171259,35986,230383
59763,171263,35971,230387
59774,171287,35972,230404
59784,171279,35978,230407
59793,171273,35966,230408
59803,171267,35977,230422
59813,171283,35953,230395
59823,171263,35976,230385
59833,171268,35948,230403
59844,171256,35952,230377
59854,171250,35962,230381
59864,171251,35970,230364
59874,171266,35960,230396
59883,171244,35973,230374
59894,171241,35977,230348
59904,171256,35953,230361
59914,171247,35965,230373
59923,171259,35971,230375
59933,171265,35973,230389
59943,171262,35956,230391
59953,171244,35965,230383
59963,171241,35961,230407
60013,171244,35959,230404
60023,171221,35975,230382
60034,171261,35959,230389
60043,171239,35950,230387
60053,171244,35940,230394
60064,171270,35943,230389
60074,171258,35951,230391
60083,171233,35952,230411
60093,171257,35953,230396
60103,171249,35961,230395
60113,171237,35951,230376
60123,171229,35946,230399
60133,171243,35960,230402
60170,171233,35933,230395
60172,171224,35950,230395
60183,171231,35914,230373
60194,171251,35946,230371
60208,171234,35944,230394
60212,171237,35932,230390
60223,171247,35919,230386
60234,171248,35936,230369
60244,171241,35921,230382
60253,171224,35939,230379
60263,171211,35931,230384
60273,171213,35927,230385
60284,171234,35917,230376
60293,171224,35929,230399
60303,171229,35911,230383
60313,171223,35922,230361
60324,171240,35919,230397
60333,171236,35927,230387
60348,171226,35912,230366
60353,171242,35920,230404
60364,171269,35915,230399
60373,171233,35915,230387
60382,171228,35908,230408
60393,171225,35910,230409
60404,171235,35902,230395
60414,171222,35898,230407
60423,171225,35904,230421
60433,171234,35897,230420
60443,171235,35895,230426
60454,171228,35893,230403
60463,171235,35888,230410
60473,171239,35900,230423
60483,171241,35893,230439
60494,171246,35895,230399
60503,171232,35890,230400
60513,171228,35898,230432
60523,171241,35888,230431
60533,171229,35882,230434
60542,171229,35866,230421
60553,171216,35888,230435
60563,171228,35877,230404
60573,171211,35886,230405
60583,171214,35876,230397
60593,171216,35876,230393
60603,171224,35872,230411
60613,171222,35889,230431
60623,171237,35879,230421
60632,171198,35862,230452
60642,171218,35880,230412
60653,171221,35880,230427
60664,171214,35873,230427
60672,171212,35868,230417
60683,171211,35866,230410
60693,171231,35871,230415
60704,171203,35874,230410
60712,171230,35856,230424
60723,171218,35854,230426
60733,171221,35858,230430
60743,171202,35852,230414
60752,171228,35860,230403
60762,171199,35875,230417
60773,171226,35861,230419
60783,171216,35836,230408
60792,171234,35847,230423
60802,171204,35868,230415
60813,171213,35840,230421
60823,171217,35847,230416
60833,171208,35846,230419
60842,171212,35853,230423
60852,171185,35854,230419
60863,171198,35848,230432
60873,171225,35854,230415
60882,171206,35848,230422
60892,171200,35842,230412
60903,171181,35841,230433
60913,171206,35841,230417
60922,171209,35836,230422
60932,171199,35821,230413
60943,171199,35847,230424
60953,171191,35830,230405
60962,171207,35839,230426
60973,171204,35832,230398
60983,171194,35822,230385
60993,171190,35823,230395
61002,171180,35827,230418
61012,171186,35821,230417
61022,171189,35819,230414
61033,171183,35830,230407
61042,171198,35815,230389
61052,171195,35824,230410
61062,171204,35817,230417
61072,171190,35803,230413
61083,171201,35807,230402
61092,171198,35812,230390
61102,171169,35811,230429
61113,171195,35806,230420
61123,171190,35798,230437
61132,171193,35795,230415
61142,171183,35805,230391
61152,171180,35804,230427
61162,171177,35800,230416
61172,171185,35786,230412
61182,171185,35804,230403
61192,171172,35786,230418
61202,171187,35773,230406
61212,171188,35796,230395
61223,171175,35791,230407
61232,171171,35784,230392
61243,171160,35787,230390
61251,171180,35784,230368
61262,171181,35774,230384
61273,171180,35775,230410
61283,171163,35775,230371
61292,171155,35790,230399
61302,171167,35778,230399
61312,171168,35774,230372
61322,171175,35772,230382
61333,171161,35768,230393
61342,171178,35762,230387
61352,171171,35770,230401
61362,171172,35764,230404
61372,171193,35747,230397
61382,171172,35747,230405
61392,171173,35765,230404
61402,171167,35745,230397
61413,171183,35769,230407
61422,171169,35750,230411
61432,171176,35746,230404
61442,171180,35739,230403
61453,171160,35734,230406
61462,171167,35748,230386
61472,171137,35755,230395
61482,171164,35734,230388
61492,171154,35732,230380
61502,171177,35747,230376
61511,171165,35755,230379
61522,171169,35737,230377
61533,171156,35718,230357
61542,171132,35729,230379
61552,171134,35728,230382
61562,171135,35733,230356
61572,171128,35729,230366
61582,171132,35733,230374
61592,171142,35721,230353
61602,171150,35721,230366
61612,171127,35713,230376
61622,171133,35715,230341
61632,171121,35714,230372
61642,171126,35718,230328
61652,171134,35718,230296
61662,171136,35717,230324
61671,171119,35709,230312
61682,171132,35701,230304
61691,171110,35718,230268
61702,171122,35706,230279
61711,171090,35697,230267
61722,171107,35704,230252
61731,171094,35702,230209
61742,171092,35696,230207
61751,171078,35699,230165
61762,171064,35693,230179
61772,171069,35713,230094
61782,171034,35710,230115
61791,171047,35701,230102
61801,171004,35690,230064
61812,171005,35692,230038
61822,171016,35700,230041
61832,171009,35704,230043
61842,170998,35697,230011
61852,170998,35684,230017
61862,171001,35697,229994
61872,171003,35698,229983
61881,170989,35692,229970
61891,170983,35685,229953
61902,170958,35693,229942
61912,170968,35690,229917
61921,170953,35696,229904
61931,170960,35692,229881
61941,170956,35677,229858
61952,170949,35674,229799
61961,170908,35670,229810
61971,170922,35664,229793
61982,170922,35669,229778
61992,170921,35660,229778
62001,170911,35676,229779
62011,170917,35666,229787
62021,170931,35679,229759
62031,170936,35664,229797
62041,170918,35660,229799
62093,170930,35648,229822
62101,170957,35648,229787
62112,170954,35656,229831
62122,170939,35646,229838
62131,170942,35658,229835
62141,170951,35639,229842
62151,170971,35651,229855
62162,170943,35641,229858
62171,170948,35654,229862
62181,170950,35647,229875
62191,170977,35618,229888
62202,170944,35638,229891
62211,170947,35632,229867
62221,170948,35636,229857
62231,170972,35641,229897
62241,170966,35631,229894
62251,170949,35640,229875
62261,170955,35628,229886
62271,170954,35638,229895
62282,170947,35617,229871
62291,170952,35624,229885
62301,170947,35625,229904
62311,170965,35623,229893
62321,170959,35624,229898
62331,170934,35613,229878
62340,170942,35612,229900
62351,170956,35611,229892
62362,170941,35614,229889
62372,170953,35609,229862
62381,170983,35625,229883
62391,170955,35594,229897
62401,170953,35602,229907
62411,170938,35613,229915
62420,170953,35609,229911
62431,170959,35593,229948
62441,170934,35608,229931
62452,170964,35582,229910
62461,170965,35612,229946
62471,170950,35611,229937
62481,170956,35603,229888
62492,170950,35598,229926
62501,170933,35593,229901
62511,170932,35611,229928
62521,170930,35604,229906
62531,170932,35592,229927
62571,170959,35595,229928
62574,170950,35585,229915
62582,170936,35587,229949
62591,170949,35580,229933
62601,170954,35587,229922
62611,170960,35591,229925
62621,170959,35566,229903
62631,170946,35566,229907
62641,170928,35573,229908
62651,170953,35574,229919
62661,170956,35557,229924
62670,170943,35556,229922
62680,170940,35566,229923
62691,170928,35557,229900
62701,170948,35554,229914
62710,170940,35547,229899
62721,170962,35559,229911
62731,170940,35552,229908
62741,170936,35552,229876
62750,170913,35556,229898
62760,170930,35558,229903
62771,170928,35537,229892
62781,170932,35554,229904
62791,170913,35537,229892
62800,170934,35546,229910
62810,170919,35543,229894
62821,170938,35527,229895
62831,170920,35546,229894
62840,170920,35543,229881
62851,170923,35547,229852
62861,170922,35536,229886
62871,170916,35525,229850
62880,170919,35527,229841
62890,170902,35529,229875
62901,170916,35522,229880
62911,170913,35528,229875
62920,170911,35540,229857
62930,170910,35528,229883
62940,170927,35516,229844
62951,170916,35509,229874
62960,170918,35525,229860
62970,170892,35516,229889
62981,170913,35510,229869
62990,170905,35517,229878
63000,170915,35508,229895
63011,170908,35495,229873
63021,170910,35514,229855
63031,170895,35504,229868
63041,170913,35488,229862
63051,170911,35501,229824
63061,170896,35497,229872
63071,170886,35492,229868
63081,170879,35496,229864
63090,170919,35480,229871
63100,170897,35474,229840
63111,170898,35490,229844
63121,170895,35468,229855
63130,170890,35494,229835
63140,170887,35490,229868
63150,170894,35465,229845
63161,170887,35485,229849
63170,170890,35488,229850
63180,170895,35472,229829
63191,170896,35478,229867
63201,170888,35480,229842
63210,170871,35476,229841
63220,170863,35476,229822
63230,170878,35472,229855
63241,170886,35446,229856
63250,170879,35471,229818
63260,170864,35469,229848
63271,170871,35463,229848
63281,170874,35455,229850
63290,170880,35449,229830
63300,170876,35457,229843
63310,170870,35455,229830
63320,170855,35465,229842
63330,170854,35449,229818
63339,170867,35438,229813
63350,170875,35459,229810
63361,170864,35451,229796
63371,170864,35443,229806
63380,170849,35439,229811
63390,170833,35449,229811
63400,170859,35439,229809
63410,170855,35448,229792
63428,170845,35453,229807
63431,170863,35419,229806
63440,170850,35423,229774
63451,170856,35440,229810
63460,170849,35420,229788
63470,170855,35416,229793
63480,170848,35425,229800
63490,170841,35416,229817
63500,170853,35424,229779
63509,170851,35419,229811
63520,170850,35412,229794
63530,170855,35405,229790
63540,170848,35380,229792
63549,170859,35403,229782
63560,170848,35393,229788
63570,170852,35399,229795
63581,170854,35380,229771
63589,170843,35391,229776
63600,170842,35390,229783
63610,170846,35387,229772
63621,170850,35375,229782
63629,170844,35383,229772
63640,170840,35375,229797
63650,170829,35380,229775
63661,170820,35386,229768
63670,170832,35376,229752
63680,170821,35368,229753
63690,170820,35374,229778
63700,170823,35390,229742
63709,170821,35367,229728
63719,170791,35373,229760
63729,170834,35335,229721
63740,170809,35352,229714
63750,170791,35359,229718
63759,170808,35359,229720
63770,170781,35365,229712
63780,170823,35344,229709
63790,170801,35350,229713
63799,170793,35361,229738
63809,170798,35339,229716
63820,170799,35347,229713
63830,170805,35346,229705
63839,170815,35348,229711
63849,170804,35343,229728
63859,170802,35342,229728
63870,170792,35341,229719
63879,170795,35348,229741
63889,170790,35333,229718
63900,170793,35319,229713
63909,170787,35332,229682
63919,170777,35333,229714
63930,170785,35327,229724
63940,170797,35332,229717
63950,170803,35330,229716
63959,170792,35321,229706
63969,170807,35319,229712
63979,170791,35328,229734
63990,170794,35324,229723
64000,170801,35318,229700
64010,170765,35317,229726
64020,170799,35292,229747
64030,170803,35299,229726
64040,170788,35295,229728
64050,170795,35308,229716
64060,170799,35323,229741
64070,170797,35306,229721
64080,170794,35301,229721
64089,170786,35294,229722
64099,170801,35305,229723
64110,170806,35311,229743
64120,170806,35289,229750
64129,170788,35307,229710
64139,170788,35296,229682
64150,170782,35299,229732
64160,170789,35294,229727
64169,170789,35295,229703
64179,170790,35261,229726
64190,170797,35285,229701
64200,170771,35286,229713
64209,170772,35285,229711
64219,170783,35277,229699
64229,170788,35283,229721
64240,170783,35267,229697
64250,170785,35254,229690
64259,170768,35263,229705
64290,170777,35255,229705
64292,170779,35252,229707
64299,170781,35247,229721
64309,170769,35254,229701
64330,170767,35228,229690
64339,170778,35229,229688
64349,170761,35236,229680
64359,170778,35225,229693
64390,170763,35223,229708
64400,170769,35204,229695
64409,170763,35215,229679
64419,170761,35207,229694
64429,170767,35216,229669
64439,170774,35208,229675
64449,170770,35196,229687
64458,170767,35191,229705
64469,170763,35202,229666
64479,170748,35204,229704
64489,170755,35202,229699
64499,170760,35192,229696
64508,170767,35178,229683
64519,170761,35185,229688
64529,170766,35180,229671
64540,170741,35173,229678
64548,170745,35173,229704
64559,170746,35169,229691
64569,170755,35185,229675
64579,170745,35157,229686
64589,170762,35161,229677
64599,170742,35174,229670
64609,170740,35140,229667
64619,170738,35130,229670
64629,170735,35158,229657
64639,170739,35161,229681
64649,170738,35157,229653
64659,170716,35167,229676
64668,170739,35155,229670
64678,170745,35143,229649
64689,170738,35134,229676
64699,170740,35143,229664
64708,170734,35135,229675
64718,170741,35123,229659
64729,170724,35146,229687
64739,170740,35127,229646
64749,170739,35130,229673
64759,170736,35123,229685
64769,170725,35122,229678
64779,170710,35133,229706
64790,170736,35130,229692
64799,170739,35097,229685
64809,170731,35126,229690
64830,170737,35122,229696
64838,170736,35099,229698
64849,170727,35110,229677
64859,170733,35118,229695
64869,170733,35098,229706
64878,170750,35095,229682
64889,170733,35093,229686
64899,170735,35102,229690
64909,170717,35084,229681
64918,170706,35106,229699
64951,170719,35081,229675
64958,170721,35088,229667
64969,170694,35075,229656
64979,170710,35076,229655
64989,170706,35061,229650
64999,170709,35078,229643
65008,170692,35077,229642
65018,170701,35070,229646
65029,170705,35079,229641
65039,170696,35068,229645
65048,170704,35057,229646
65070,170699,35054,229644
65079,170703,35042,229647
65088,170692,35031,229617
65098,170712,35051,229631
65109,170704,35026,229623
65119,170700,35046,229626
65128,170688,35024,229624
65138,170694,35029,229611
65148,170690,35014,229623
65159,170713,34999,229614
65168,170688,35009,229604
65178,170697,35012,229623
65189,170684,35003,229600
65199,170703,34994,229601
65208,170676,35008,229612
65218,170682,34981,229569
65229,170690,34992,229581
65239,170691,34991,229611
65249,170683,34993,229589
65258,170675,34987,229604
65269,170662,34992,229600
65279,170685,34964,229592
65289,170668,34979,229593
65298,170674,34971,229594
65308,170663,34962,229594
65318,170680,34956,229570
65329,170671,34957,229591
65338,170657,34962,229589
65348,170664,34955,229595
65358,170674,34956,229582
65368,170658,34951,229603
65377,170668,34929,229590
65388,170673,34948,229587
65398,170654,34930,229597
65409,170666,34953,229588
65418,170661,34938,229590
65428,170654,34933,229579
65438,170657,34927,229600
65449,170665,34918,229605
65458,170667,34931,229588
65468,170653,34925,229603
65478,170658,34922,229598
65488,170660,34930,229583
65498,170648,34930,229579
65508,170632,34919,229606
65518,170653,34908,229575
65529,170654,34911,229583
65538,170679,34898,229600
65547,170643,34902,229614
65558,170658,34909,229604
65569,170657,34909,229584
65578,170665,34894,229604
65587,170664,34878,229594
65598,170663,34900,229571
65608,170641,34891,229562
65618,170633,34892,229568
65628,170646,34892,229585
65638,170650,34875,229576
65648,170652,34889,229555
65659,170654,34872,229567
65668,170645,34879,229578
65678,170634,34879,229580
65688,170647,34880,229574
65698,170636,34890,229586
65708,170641,34872,229573
65717,170639,34869,229574
65728,170635,34855,229556
65738,170631,34871,229543
65749,170633,34859,229531
65758,170630,34850,229554
65768,170616,34864,229546
65778,170629,34851,229538
65788,170623,34860,229547
65797,170610,34841,229552
65809,170633,34847,229532
65818,170618,34857,229542
65828,170610,34832,229499
65837,170614,34835,229531
