timestamp,red,green,ir
3291,176920,37338,211629
3301,176928,37342,211614
3311,176921,37344,211637
3321,176915,37340,211625
3331,176908,37336,211619
3340,176914,37327,211625
3351,176898,37320,211616
3361,176898,37331,211584
3371,176911,37315,211606
3381,176921,37322,211597
3391,176921,37326,211587
3401,176907,37313,211607
3411,176919,37324,211611
3420,176897,37317,211596
3431,176911,37327,211580
3441,176897,37313,211591
3451,176898,37315,211579
3460,176920,37313,211600
3470,176901,37324,211613
3487,176913,37324,211625
3491,176914,37323,211627
3500,176907,37327,211637
3511,176928,37333,211660
3521,176949,37334,211685
3531,176942,37340,211682
3541,176955,37345,211714
3551,176963,37331,211706
3561,176958,37318,211729
3571,176973,37320,211708
3581,176954,37320,211691
3590,176945,37330,211687
3600,176913,37332,211698
3611,176935,37329,211680
3621,176928,37333,211698
3630,176921,37314,211651
3646,176929,37319,211684
3650,176926,37323,211682
3777,177026,37337,211848
3788,177025,37345,211864
3791,177010,37347,211860
3800,177015,37344,211832
3811,177030,37338,211834
3821,177032,37341,211856
3831,177037,37337,211847
3847,177003,37351,211840
3850,177018,37336,211835
3861,177013,37315,211815
3871,176998,37340,211783
3886,176980,37332,211791
3908,176921,37332,211781
3911,176933,37327,211754
3920,176939,37309,211721
3930,176929,37303,211695
3940,176933,37324,211645
3950,176913,37312,211661
3959,176916,37305,211660
3970,176890,37293,211685
3980,176921,37299,211672
3990,176909,37311,211702
4000,176930,37316,211707
4010,176945,37304,211702
4021,176934,37294,211724
4031,176944,37300,211672
4041,176903,37303,211660
4050,176927,37297,211644
4060,176917,37286,211639
4070,176890,37285,211601
4080,176887,37293,211585
4090,176890,37292,211589
4100,176876,37271,211553
4110,176862,37274,211576
4120,176873,37278,211606
4129,176869,37259,211601
4140,176863,37268,211607
4150,176861,37268,211628
4161,176878,37266,211621
4170,176881,37280,211643
4180,176891,37281,211627
4190,176886,37290,211639
4200,176925,37278,211664
4210,176915,37304,211657
4220,176915,37306,211659
4230,176924,37296,211663
4240,176958,37291,211668
4250,176938,37284,211687
4259,176944,37296,211687
4270,176919,37284,211688
4280,176922,37297,211676
4290,176913,37290,211702
4300,176934,37276,211674
4309,176927,37275,211627
4320,176923,37279,211619
4330,176939,37297,211602
4340,176929,37286,211635
4349,176935,37275,211627
4360,176919,37289,211682
4370,176944,37284,211668
4380,176937,37283,211693
4390,176925,37291,211720
4400,176939,37288,211720
4410,176942,37292,211731
4419,176945,37290,211718
4430,176947,37285,211727
4440,176928,37288,211710
4450,176943,37301,211718
4459,176953,37297,211711
4470,176944,37296,211699
4480,176938,37291,211711
4490,176941,37291,211711
4500,176915,37293,211694
4509,176933,37285,211703
4520,176944,37287,211702
4530,176936,37284,211703
4540,176937,37280,211679
4550,176927,37274,211700
4560,176943,37275,211709
4570,176950,37265,211719
4580,176946,37287,211701
4589,176944,37277,211709
4599,176934,37283,211690
4610,176915,37282,211727
4620,176918,37282,211699
4629,176926,37280,211701
4640,176927,37278,211707
4650,176933,37285,211716
4660,176925,37274,211715
4669,176931,37265,211708
4679,176948,37271,211679
4690,176937,37297,211720
4700,176929,37273,211701
4709,176943,37278,211707
4719,176936,37274,211686
4730,176925,37263,211692
4740,176957,37256,211692
4750,176923,37274,211670
4759,176929,37252,211681
4770,176911,37264,211653
4780,176922,37270,211655
4790,176935,37265,211657
4799,176929,37261,211667
4809,176927,37263,211666
4819,176916,37270,211674
4829,176926,37264,211660
4839,176934,37272,211698
4849,176900,37265,211675
4860,176901,37256,211661
4869,176914,37257,211656
4879,176913,37253,211681
4889,176912,37252,211665
4900,176923,37245,211650
4910,176908,37244,211646
4919,176879,37246,211631
4929,176899,37228,211631
4939,176903,37245,211639
4949,176892,37245,211648
4958,176892,37255,211642
4969,176881,37252,211644
4979,176864,37245,211655
4989,176898,37243,211653
5000,176892,37250,211630
5009,176893,37252,211605
5020,176901,37248,211639
5030,176877,37235,211617
5040,176897,37237,211585
5049,176857,37251,211616
5059,176875,37239,211618
5069,176875,37237,211620
5079,176873,37240,211605
5089,176855,37239,211592
5099,176870,37235,211589
5109,176848,37229,211585
5119,176848,37224,211602
5128,176864,37223,211569
5138,176875,37246,211593
5149,176865,37228,211601
5160,176872,37231,211581
5169,176851,37239,211558
5179,176845,37230,211595
5189,176880,37231,211592
5199,176889,37215,211589
5209,176857,37234,211558
5219,176855,37226,211597
5229,176869,37227,211577
5239,176864,37228,211591
5249,176868,37229,211590
5259,176866,37243,211604
5269,176853,37232,211587
5280,176858,37242,211583
5290,176863,37233,211585
5299,176858,37221,211546
5309,176841,37226,211572
5319,176848,37213,211588
5329,176831,37219,211553
5338,176834,37227,211565
5349,176841,37218,211552
5359,176836,37230,211574
5369,176843,37218,211556
5379,176851,37207,211555
5389,176836,37217,211534
5399,176849,37235,211583
5409,176853,37228,211588
5418,176860,37209,211586
5428,176850,37236,211580
5438,176843,37216,211587
5449,176846,37226,211584
5458,176850,37217,211566
5468,176836,37210,211580
5479,176863,37224,211572
5489,176848,37222,211587
5499,176812,37237,211561
5509,176821,37229,211555
5519,176828,37223,211522
5529,176834,37230,211534
5539,176852,37225,211558
5548,176857,37222,211549
5558,176855,37218,211560
5569,176839,37225,211555
5579,176851,37234,211568
5588,176839,37217,211561
5598,176814,37198,211560
5608,176855,37205,211570
5619,176832,37199,211566
5628,176837,37216,211562
5639,176849,37209,211565
5649,176833,37220,211548
5659,176817,37199,211556
5668,176822,37214,211552
5678,176860,37212,211529
5689,176831,37230,211546
5699,176844,37225,211546
5708,176838,37216,211547
5718,176837,37231,211544
5729,176849,37227,211554
5739,176848,37225,211569
5749,176857,37211,211548
5758,176836,37228,211558
5769,176852,37215,211578
5779,176847,37212,211565
5789,176848,37217,211557
5798,176827,37223,211571
5808,176831,37230,211586
5818,176850,37223,211556
5829,176846,37209,211573
5838,176855,37229,211575
5848,176844,37216,211559
5859,176861,37217,211579
5868,176847,37222,211568
5878,176827,37229,211561
5888,176851,37223,211544
5899,176842,37222,211564
5909,176848,37215,211555
5918,176826,37239,211563
5928,176835,37217,211573
5938,176868,37214,211557
5949,176825,37226,211567
5958,176854,37225,211546
5968,176836,37223,211572
5978,176848,37194,211581
5988,176860,37227,211559
5998,176843,37221,211572
6008,176851,37207,211586
6018,176860,37227,211522
6028,176841,37224,211586
6038,176870,37232,211585
6048,176867,37213,211582
6058,176856,37223,211611
6068,176868,37224,211585
6079,176844,37215,211578
6088,176855,37228,211597
6098,176857,37226,211607
6108,176860,37226,211601
6118,176868,37237,211586
6128,176866,37237,211579
6138,176845,37242,211580
6148,176858,37229,211598
6159,176878,37232,211614
6168,176887,37235,211579
6178,176881,37223,211599
6188,176876,37212,211596
6198,176886,37206,211583
6208,176872,37228,211591
6218,176883,37231,211611
6228,176882,37236,211576
6238,176879,37231,211582
6248,176874,37217,211588
6257,176876,37219,211601
6268,176867,37194,211564
6278,176865,37215,211566
6288,176867,37205,211571
6297,176864,37235,211594
6308,176878,37212,211570
6318,176865,37221,211577
6328,176880,37213,211586
6338,176862,37206,211598
6348,176861,37223,211546
6358,176877,37221,211590
6368,176873,37224,211583
6377,176874,37219,211612
6387,176846,37216,211602
6398,176868,37213,211593
6408,176859,37232,211565
6418,176877,37205,211578
6428,176857,37232,211568
6438,176887,37227,211620
6448,176892,37219,211611
6458,176899,37235,211611
6467,176889,37220,211609
6477,176897,37237,211645
6488,176908,37232,211665
6498,176910,37234,211667
6507,176904,37243,211646
6518,176913,37231,211654
6527,176902,37226,211655
6538,176900,37223,211610
6547,176900,37225,211646
6558,176903,37222,211657
6568,176921,37247,211681
6578,176913,37243,211685
6587,176892,37249,211661
6597,176918,37243,211676
6608,176934,37251,211650
6618,176903,37251,211692
6627,176928,37245,211655
6637,176904,37247,211683
6647,176907,37236,211661
6657,176914,37241,211685
6667,176934,37234,211642
6678,176923,37229,211677
6687,176920,37246,211658
6698,176908,37253,211674
6708,176920,37243,211679
6717,176913,37243,211663
6728,176925,37238,211672
6738,176925,37241,211680
6748,176923,37225,211678
6757,176912,37255,211616
6768,176926,37246,211689
6778,176903,37235,211670
6788,176920,37238,211694
6797,176917,37246,211648
6808,176931,37244,211681
6818,176919,37257,211652
6828,176900,37252,211675
6837,176925,37259,211660
6847,176905,37257,211683
6857,176916,37251,211684
6868,176903,37242,211688
6877,176928,37264,211679
6887,176908,37255,211688
6898,176924,37254,211666
6907,176936,37253,211676
6916,176927,37255,211665
6927,176934,37253,211671
6937,176921,37235,211647
6947,176937,37229,211663
6958,176933,37242,211632
6967,176931,37258,211660
6977,176930,37231,211675
6988,176916,37246,211637
6998,176921,37259,211654
7007,176934,37236,211644
7017,176918,37238,211641
7027,176930,37249,211660
7037,176918,37237,211648
7046,176916,37252,211654
7057,176938,37229,211663
7068,176913,37247,211663
7078,176892,37242,211680
7087,176935,37248,211654
7097,176898,37238,211668
7107,176915,37242,211667
7117,176919,37241,211680
7127,176925,37251,211661
7137,176919,37224,211689
7147,176921,37249,211650
7157,176931,37227,211666
7167,176930,37237,211641
7177,176929,37243,211666
7187,176926,37251,211670
7197,176919,37250,211659
7207,176925,37240,211672
7226,176912,37225,211673
7229,176919,37238,211658
7237,176922,37244,211665
7248,176910,37244,211654
7257,176929,37240,211662
7267,176909,37237,211647
7277,176908,37264,211646
7288,176884,37238,211639
7297,176923,37230,211610
7307,176903,37231,211631
7317,176902,37245,211622
7327,176904,37239,211637
7336,176915,37252,211661
7347,176897,37243,211644
7357,176901,37227,211650
7367,176905,37247,211675
7376,176917,37228,211652
7386,176930,37233,211643
7397,176910,37226,211660
7408,176908,37234,211626
7417,176927,37228,211678
7427,176898,37241,211652
7437,176896,37238,211647
7447,176916,37236,211665
7457,176919,37226,211646
7467,176896,37228,211642
7477,176908,37228,211638
7487,176883,37235,211643
7497,176905,37222,211635
7506,176905,37247,211639
7516,176888,37233,211651
7527,176920,37227,211652
7537,176921,37234,211627
7546,176900,37238,211654
7556,176913,37229,211680
7567,176910,37232,211666
7577,176907,37253,211683
7586,176905,37235,211657
7596,176904,37245,211658
7606,176911,37234,211675
7616,176900,37207,211643
7626,176921,37241,211646
7637,176923,37246,211651
7647,176916,37241,211663
7657,176901,37224,211656
7666,176910,37244,211660
7676,176916,37255,211643
7687,176906,37233,211643
7697,176907,37244,211653
7707,176900,37246,211615
7716,176918,37245,211632
7726,176914,37229,211647
7737,176910,37247,211619
7747,176908,37229,211621
7756,176895,37232,211628
7767,176881,37227,211617
7777,176916,37234,211649
7787,176889,37229,211642
7796,176900,37200,211645
7807,176888,37228,211646
7817,176905,37224,211655
7827,176894,37219,211656
7836,176919,37206,211661
7847,176896,37224,211657
7857,176898,37213,211651
7867,176907,37246,211657
7876,176908,37211,211631
7886,176902,37231,211656
7896,176891,37250,211654
7907,176895,37227,211633
7916,176903,37230,211630
7926,176908,37238,211658
7937,176897,37218,211631
7947,176902,37226,211638
7957,176887,37238,211655
7967,176902,37224,211627
7977,176893,37227,211642
7987,176894,37221,211629
7997,176892,37242,211630
8006,176900,37224,211627
8016,176870,37227,211612
8026,176893,37226,211616
8036,176895,37227,211581
8045,176885,37223,211610
8056,176882,37200,211599
8067,176860,37219,211590
8077,176863,37216,211606
8086,176879,37211,211609
8096,176874,37197,211620
8106,176868,37233,211626
8116,176876,37227,211623
8126,176868,37211,211633
8136,176888,37220,211628
8146,176902,37228,211624
8156,176890,37227,211637
8166,176869,37224,211659
8176,176880,37223,211642
8186,176888,37225,211636
8196,176877,37219,211618
8206,176888,37213,211633
8215,176883,37223,211638
8225,176889,37230,211654
8236,176893,37228,211630
8247,176893,37210,211661
8256,176889,37227,211649
8266,176892,37206,211651
8276,176898,37229,211636
8287,176881,37215,211652
8296,176878,37216,211649
8306,176895,37223,211651
8316,176900,37215,211656
8326,176885,37220,211673
8335,176891,37222,211648
8345,176880,37225,211666
8356,176890,37214,211657
8366,176878,37237,211666
8375,176889,37217,211667
8385,176897,37233,211660
8396,176893,37234,211686
8407,176913,37231,211683
8416,176902,37224,211697
8426,176926,37235,211685
8436,176946,37245,211701
8446,176951,37241,211724
8456,176965,37247,211758
8465,176980,37257,211762
8476,177001,37259,211793
8486,177020,37261,211836
8496,177059,37261,211870
8506,177062,37269,211865
8516,177101,37294,211942
8526,177093,37307,211973
8536,177149,37314,211995
8545,177182,37300,212009
8555,177195,37308,212059
8565,177185,37314,212030
8576,177207,37296,212034
8586,177190,37284,211988
8595,177204,37311,211976
8606,177222,37298,211949
8616,177224,37308,211939
8626,177228,37289,211905
8636,177227,37302,211882
8646,177244,37295,211847
8656,177238,37302,211834
8666,177252,37313,211822
8676,177227,37316,211833
8686,177247,37300,211793
8696,177210,37299,211826
8706,177253,37298,211840
8715,177268,37299,211842
8725,177272,37294,211837
8736,177290,37310,211837
8746,177288,37310,211808
8755,177311,37284,211823
8765,177318,37294,211835
8775,177318,37298,211824
8786,177323,37301,211821
8795,177332,37295,211807
8805,177312,37309,211808
8815,177345,37301,211808
8825,177356,37294,211788
8835,177350,37297,211815
8846,177371,37264,211812
8856,177362,37294,211816
8866,177364,37272,211814
8875,177355,37294,211823
8885,177350,37280,211810
8895,177373,37296,211797
8905,177384,37283,211809
8915,177369,37288,211810
8926,177368,37267,211803
8935,177390,37275,211780
8946,177381,37276,211820
8956,177379,37266,211821
8965,177395,37289,211803
8975,177415,37269,211798
8985,177401,37288,211810
8996,177415,37250,211794
9005,177415,37274,211815
9015,177402,37270,211803
9025,177404,37257,211813
9035,177414,37272,211789
9045,177402,37262,211801
9055,177402,37266,211803
9065,177393,37263,211835
9076,177434,37270,211825
9085,177439,37258,211817
9095,177427,37255,211823
9105,177427,37265,211813
9115,177442,37248,211821
9125,177451,37240,211832
9135,177437,37260,211829
9145,177437,37268,211838
9155,177453,37263,211845
9165,177445,37255,211846
9188,177450,37256,211829
9195,177454,37259,211832
9205,177454,37270,211821
9215,177451,37257,211827
9225,177452,37263,211806
9235,177464,37244,211810
9246,177445,37270,211815
9255,177453,37257,211777
9265,177448,37262,211810
9275,177454,37248,211798
9285,177456,37249,211786
9294,177468,37254,211797
9305,177439,37253,211799
9315,177457,37256,211813
9325,177449,37254,211807
9335,177458,37254,211819
9345,177461,37248,211817
9355,177472,37263,211774
9365,177485,37257,211804
9375,177441,37253,211820
9385,177462,37270,211799
9395,177484,37253,211770
9405,177466,37270,211766
9415,177470,37253,211789
9424,177486,37243,211776
9435,177480,37249,211808
9445,177485,37258,211783
9455,177459,37245,211808
9464,177484,37244,211801
9475,177496,37248,211805
9485,177488,37261,211823
9495,177477,37251,211819
9504,177484,37260,211827
9514,177486,37256,211813
9527,177503,37242,211834
9535,177484,37242,211819
9544,177477,37245,211826
9554,177498,37247,211804
9564,177489,37256,211801
9575,177489,37239,211808
9585,177477,37247,211811
9595,177497,37242,211794
9605,177500,37247,211812
9615,177498,37230,211811
9625,177492,37231,211820
9634,177506,37250,211810
9644,177497,37238,211810
9655,177497,37252,211814
9666,177504,37262,211836
9674,177521,37252,211829
9685,177495,37258,211809
9695,177518,37256,211817
9705,177520,37238,211816
9714,177513,37245,211811
9724,177493,37248,211817
9735,177514,37260,211834
9745,177507,37247,211842
9754,177502,37247,211857
9764,177521,37271,211828
9774,177531,37249,211833
9784,177528,37258,211851
9794,177525,37230,211843
9804,177529,37266,211836
9815,177517,37237,211845
9825,177508,37255,211861
9834,177520,37260,211840
9844,177522,37244,211837
9854,177536,37246,211852
9864,177532,37255,211834
9875,177531,37253,211842
9884,177540,37243,211853
9894,177520,37254,211845
9904,177530,37254,211829
9915,177538,37250,211853
9924,177525,37265,211827
9934,177551,37261,211851
9944,177515,37255,211866
9955,177538,37260,211839
9964,177559,37252,211845
9974,177538,37258,211850
9985,177521,37254,211862
9995,177518,37261,211849
10007,177519,37269,211860
10014,177538,37269,211877
10025,177549,37266,211856
10035,177540,37264,211879
10044,177548,37245,211870
10054,177539,37265,211881
10064,177526,37273,211866
10075,177540,37266,211876
10084,177543,37254,211882
10094,177545,37253,211881
10104,177543,37260,211879
10114,177557,37248,211897
10125,177553,37247,211891
10134,177558,37266,211882
10144,177563,37265,211893
10155,177556,37270,211886
10165,177534,37259,211884
10174,177544,37261,211891
10184,177551,37272,211892
10194,177561,37260,211886
10204,177564,37263,211872
10214,177543,37272,211876
10224,177554,37267,211888
10234,177549,37258,211914
10244,177560,37255,211877
10253,177551,37262,211877
10264,177553,37264,211884
10274,177552,37261,211891
10284,177560,37264,211871
10293,177570,37253,211881
10304,177567,37246,211882
10314,177561,37258,211884
10324,177565,37271,211899
10334,177562,37265,211884
10344,177544,37269,211872
10354,177559,37273,211876
10364,177564,37262,211893
10375,177558,37262,211880
10384,177544,37258,211893
10394,177565,37271,211881
10404,177566,37260,211888
10414,177579,37250,211883
10423,177554,37273,211881
10434,177569,37272,211885
10444,177580,37268,211898
10454,177567,37269,211902
10463,177561,37270,211916
10474,177577,37262,211904
10484,177559,37268,211886
10494,177581,37267,211908
10503,177578,37274,211895
10513,177579,37250,211908
10523,177603,37267,211891
10534,177592,37279,211914
10544,177560,37261,211896
10554,177586,37266,211883
10564,177591,37273,211903
10574,177585,37264,211901
10583,177591,37276,211914
10594,177591,37273,211924
10604,177582,37282,211904
10614,177605,37268,211886
10624,177593,37264,211861
10634,177572,37281,211919
10644,177599,37272,211905
10654,177597,37292,211905
10664,177599,37264,211873
10673,177576,37277,211901
10683,177572,37278,211890
10694,177604,37278,211875
10704,177602,37273,211876
10714,177580,37265,211894
10724,177597,37259,211893
10733,177597,37247,211879
10744,177595,37267,211873
10754,177603,37263,211888
10764,177591,37274,211868
10774,177610,37274,211892
10784,177586,37273,211904
10793,177587,37276,211887
10803,177597,37276,211885
10814,177598,37279,211876
10824,177607,37267,211890
10833,177600,37269,211897
10843,177621,37269,211889
10854,177596,37260,211885
10864,177600,37268,211889
10874,177604,37263,211869
10883,177606,37266,211881
10894,177600,37259,211892
10904,177579,37274,211890
10914,177600,37275,211873
10923,177606,37262,211896
10933,177589,37269,211893
10943,177601,37263,211886
10954,177601,37280,211884
10963,177603,37269,211885
10973,177598,37264,211893
10983,177589,37255,211878
10994,177601,37256,211889
11003,177600,37273,211878
11013,177610,37251,211875
11024,177591,37266,211867
11034,177607,37271,211858
11043,177597,37254,211874
11053,177582,37258,211881
11063,177607,37273,211875
11073,177612,37252,211882
11083,177590,37261,211889
11093,177599,37257,211870
11103,177601,37260,211900
11113,177598,37245,211892
11124,177581,37247,211891
11133,177593,37262,211866
11143,177600,37250,211889
11154,177599,37255,211884
11164,177605,37257,211901
11173,177601,37264,211877
11183,177592,37258,211875
11193,177596,37254,211893
11203,177598,37258,211906
11212,177613,37255,211873
11223,177584,37263,211904
11234,177587,37254,211862
11244,177592,37256,211837
11253,177582,37263,211885
11263,177600,37252,211888
11273,177590,37254,211886
11283,177604,37261,211854
11292,177585,37257,211871
11303,177576,37266,211872
11313,177588,37254,211874
11323,177597,37261,211893
11333,177604,37243,211892
11343,177574,37264,211892
11353,177591,37253,211874
11363,177596,37263,211889
11374,177597,37260,211879
11383,177586,37259,211881
11393,177582,37261,211875
11403,177594,37262,211884
11413,177587,37246,211882
11423,177595,37240,211885
11432,177599,37254,211874
11443,177599,37241,211856
11453,177592,37248,211861
11463,177601,37247,211850
11472,177608,37245,211854
11483,177602,37239,211856
11493,177597,37244,211877
11502,177579,37247,211881
11513,177586,37238,211877
11523,177603,37240,211863
11533,177582,37247,211886
11543,177577,37248,211859
11552,177598,37251,211837
11562,177588,37235,211867
11573,177602,37229,211884
11583,177564,37240,211864
11592,177592,37232,211863
11603,177574,37245,211873
11613,177576,37243,211864
11624,177573,37242,211868
11633,177588,37236,211863
11643,177575,37231,211846
11653,177599,37223,211871
11663,177585,37231,211848
11673,177587,37227,211846
11683,177592,37214,211865
11693,177588,37228,211865
11703,177578,37231,211854
11712,177600,37233,211868
11722,177606,37214,211859
11733,177594,37242,211842
11743,177595,37243,211852
11752,177595,37219,211849
11763,177594,37217,211867
11773,177593,37248,211869
11783,177599,37226,211842
11792,177587,37218,211863
11803,177592,37231,211843
11813,177572,37229,211868
11823,177584,37230,211865
11833,177585,37232,211858
11842,177589,37233,211877
11853,177600,37233,211893
11863,177597,37212,211872
11873,177602,37230,211850
11883,177589,37203,211868
11893,177586,37220,211860
11903,177580,37226,211841
11913,177580,37225,211869
11922,177606,37207,211867
11932,177590,37225,211887
11942,177596,37219,211859
11953,177588,37232,211866
11962,177597,37215,211862
11972,177594,37220,211878
11982,177583,37206,211881
11993,177584,37218,211868
12002,177583,37215,211894
12012,177602,37221,211862
12022,177578,37222,211885
12033,177583,37226,211853
12042,177593,37229,211869
12052,177568,37218,211877
12062,177588,37215,211894
12072,177599,37209,211894
12083,177574,37208,211880
12092,177598,37226,211894
12103,177572,37219,211901
12113,177597,37216,211890
12123,177591,37210,211880
12132,177587,37208,211886
12142,177593,37208,211883
12153,177586,37223,211882
12163,177603,37208,211878
12172,177582,37224,211884
12182,177586,37215,211860
12192,177570,37212,211879
12202,177581,37222,211859
12212,177592,37204,211891
12222,177575,37216,211874
12233,177593,37213,211878
12243,177588,37208,211861
12252,177582,37228,211873
12262,177598,37212,211878
12272,177600,37213,211887
12282,177588,37210,211874
12292,177565,37206,211881
12302,177576,37201,211855
12312,177589,37197,211866
12322,177578,37203,211897
12332,177584,37193,211894
12342,177582,37206,211873
12352,177580,37176,211887
12363,177591,37190,211871
12373,177573,37200,211873
12382,177587,37191,211868
12392,177575,37188,211861
12402,177577,37198,211852
12412,177563,37192,211859
12422,177574,37172,211851
12431,177569,37178,211855
12442,177590,37184,211881
12453,177570,37183,211857
12462,177563,37192,211846
12472,177565,37191,211885
12482,177578,37189,211874
12492,177574,37194,211872
12502,177543,37195,211869
12511,177577,37194,211850
12522,177537,37188,211869
12533,177568,37195,211852
12542,177570,37185,211844
12552,177546,37180,211860
12562,177568,37178,211866
12572,177567,37186,211856
12582,177553,37187,211852
12592,177560,37188,211847
12602,177555,37184,211870
12612,177557,37189,211857
12622,177555,37171,211864
12631,177553,37176,211853
12641,177550,37182,211852
12652,177560,37178,211865
12662,177564,37179,211838
12672,177558,37150,211854
12682,177558,37167,211837
12692,177536,37170,211860
12702,177549,37170,211847
12712,177532,37181,211853
12722,177539,37182,211823
12732,177543,37160,211850
12742,177549,37172,211823
12752,177533,37168,211847
12762,177564,37167,211841
12772,177545,37165,211856
12782,177532,37161,211845
12791,177531,37182,211842
12801,177526,37163,211868
12812,177535,37162,211849
12822,177530,37188,211853
12832,177537,37172,211859
12842,177559,37174,211858
12851,177542,37170,211846
12862,177534,37150,211837
12872,177534,37170,211838
12882,177542,37161,211837
12892,177552,37170,211859
12902,177538,37171,211829
12912,177529,37169,211876
12921,177525,37166,211840
12932,177545,37159,211858
12942,177531,37173,211867
12952,177545,37164,211845
12961,177532,37151,211844
12971,177542,37164,211812
12981,177530,37167,211846
12992,177553,37145,211827
13001,177536,37148,211824
13011,177546,37145,211835
13021,177537,37155,211841
13032,177551,37145,211836
13041,177545,37133,211829
13051,177559,37144,211855
13061,177558,37127,211860
13071,177556,37128,211851
13081,177555,37137,211860
13091,177553,37139,211863
13102,177549,37129,211870
13111,177565,37130,211847
13122,177553,37129,211847
13131,177557,37146,211869
13142,177559,37124,211863
13152,177566,37136,211842
13162,177551,37124,211840
13171,177554,37142,211869
13181,177539,37138,211861
13191,177561,37133,211882
13201,177561,37131,211881
13211,177570,37132,211889
13221,177550,37140,211846
13231,177556,37139,211891
13242,177549,37152,211874
13251,177557,37130,211873
13261,177565,37129,211881
13272,177565,37134,211884
13282,177572,37129,211883
13291,177569,37129,211889
13301,177548,37139,211875
13311,177570,37127,211867
13321,177585,37142,211893
13331,177587,37150,211890
13341,177579,37139,211876
13351,177571,37131,211883
13362,177573,37122,211914
13371,177579,37132,211900
13381,177591,37127,211907
13391,177579,37143,211909
13402,177581,37136,211923
13412,177581,37133,211911
13421,177568,37147,211919
13431,177582,37143,211933
13441,177599,37136,211922
13451,177592,37142,211928
13460,177613,37143,211903
13471,177584,37135,211939
13482,177587,37144,211943
13491,177606,37142,211933
13501,177571,37143,211929
13510,177601,37148,211922
13521,177595,37154,211946
13531,177612,37149,211923
13541,177616,37159,211942
13550,177595,37140,211923
13560,177616,37148,211951
13571,177636,37147,211944
13582,177622,37145,211948
13591,177622,37148,211951
13601,177622,37145,211930
13611,177634,37141,211946
13621,177617,37149,211937
13631,177610,37148,211939
13641,177632,37158,211962
13651,177634,37142,211960
13661,177614,37148,211965
13671,177634,37155,211921
13681,177615,37153,211947
13691,177618,37153,211966
13701,177628,37160,211946
13710,177616,37149,211964
13721,177650,37151,211944
13731,177634,37158,211946
13741,177643,37153,211927
13751,177636,37148,211953
13761,177649,37150,211956
13771,177645,37157,211958
13781,177651,37133,211942
13791,177654,37156,211969
13801,177621,37141,211962
13810,177647,37149,211943
13821,177662,37130,211947
13832,177656,37159,211972
13841,177660,37142,211971
13851,177645,37128,211973
13861,177633,37154,211970
13871,177655,37151,211944
13880,177643,37145,211971
13890,177659,37128,211980
13901,177662,37147,211971
13911,177667,37152,211936
13921,177677,37137,211958
13930,177660,37144,211954
13941,177675,37147,211968
13951,177670,37142,211981
13960,177676,37146,211955
13971,177642,37144,211970
13981,177671,37139,211988
13991,177677,37156,211970
14000,177650,37154,211967
14011,177676,37151,211957
14021,177676,37150,211958
14031,177690,37158,211977
14041,177676,37143,211970
14050,177688,37146,211956
14060,177673,37154,211961
14071,177698,37134,211953
14081,177678,37160,211971
14090,177674,37144,211974
14100,177690,37149,211945
14110,177699,37129,211967
14120,177690,37139,211967
14130,177682,37132,211972
14141,177684,37152,211960
14150,177708,37149,211977
14161,177687,37147,211966
14170,177698,37145,211943
14181,177686,37160,211958
14191,177709,37153,211930
14201,177695,37143,211954
14210,177666,37154,211962
14220,177705,37151,211952
14230,177711,37162,211958
14240,177690,37137,211955
14250,177705,37132,211950
14260,177699,37153,211960
14270,177681,37158,211958
14281,177713,37143,211962
14290,177717,37144,211956
14300,177726,37164,211976
14310,177709,37148,211971
14321,177713,37153,211958
14331,177714,37152,211961
14340,177686,37168,211966
14350,177708,37155,211961
14360,177722,37152,211973
14371,177727,37159,211956
14380,177722,37145,211950
14390,177712,37163,211976
14400,177703,37149,211979
14410,177713,37145,211963
14419,177724,37164,211942
14430,177703,37162,211976
14441,177714,37139,211975
14451,177735,37152,211947
14460,177713,37158,211951
14470,177720,37147,211978
14480,177722,37146,211967
14490,177691,37133,211966
14500,177699,37152,211959
14510,177735,37153,211949
14521,177713,37145,211964
14530,177717,37153,211953
14541,177708,37152,211952
14550,177734,37153,211936
14560,177727,37142,211959
14570,177728,37145,211949
14580,177743,37141,211949
14590,177729,37130,211933
14600,177730,37143,211960
14610,177721,37113,211957
14621,177731,37146,211934
14630,177715,37127,211950
14640,177713,37144,211929
14650,177705,37137,211942
14660,177686,37130,211947
14670,177718,37122,211946
14680,177749,37130,211923
14690,177711,37120,211944
14700,177734,37132,211912
14710,177724,37132,211936
14720,177708,37124,211940
14730,177728,37122,211935
14740,177712,37134,211928
14750,177713,37116,211964
14760,177706,37109,211950
14770,177709,37129,211912
14781,177737,37123,211939
14790,177724,37138,211927
14800,177715,37109,211927
14809,177730,37122,211907
14820,177730,37115,211914
14831,177726,37129,211941
14840,177737,37137,211923
14850,177707,37136,211951
14860,177699,37125,211931
14870,177725,37124,211922
14879,177699,37128,211946
14889,177720,37100,211930
14900,177716,37115,211916
14910,177717,37116,211914
14920,177734,37113,211946
14929,177719,37106,211919
14940,177736,37127,211919
14950,177709,37122,211949
14959,177704,37121,211912
14970,177720,37138,211927
14980,177699,37124,211939
14990,177707,37116,211924
15000,177695,37132,211942
15010,177711,37124,211937
15020,177710,37121,211937
15030,177722,37120,211919
15040,177675,37116,211931
15050,177733,37117,211928
15060,177686,37138,211937
15070,177738,37108,211938
15080,177699,37139,211934
15089,177730,37109,211931
15099,177722,37109,211946
15110,177718,37119,211920
15120,177704,37132,211930
15129,177695,37122,211938
15139,177701,37112,211921
15150,177722,37111,211939
15160,177689,37126,211921
15169,177731,37107,211936
15179,177742,37115,211945
15189,177715,37115,211950
15199,177683,37125,211925
15209,177706,37120,211945
15219,177678,37129,211918
15229,177717,37117,211928
15240,177714,37115,211949
15250,177722,37106,211937
15259,177732,37117,211936
15269,177737,37097,211948
15280,177725,37114,211936
15290,177710,37107,211946
15299,177718,37120,211922
15309,177736,37102,211916
15319,177749,37117,211903
15330,177719,37123,211918
15339,177716,37098,211907
15349,177732,37111,211904
15359,177717,37110,211925
15369,177735,37088,211915
15379,177731,37088,211912
15389,177717,37103,211884
15400,177721,37092,211900
15410,177725,37105,211883
15419,177721,37102,211893
15429,177708,37113,211912
15439,177686,37102,211911
15450,177721,37094,211907
15459,177709,37094,211915
15469,177718,37107,211895
15479,177712,37093,211898
15489,177731,37078,211923
15500,177728,37085,211893
15509,177715,37092,211897
15519,177732,37091,211897
15529,177717,37079,211894
15539,177752,37090,211927
15549,177718,37085,211891
15559,177729,37098,211904
15570,177729,37099,211904
15580,177712,37084,211878
15589,177694,37090,211903
15599,177672,37092,211889
15610,177704,37070,211890
15620,177727,37084,211877
15629,177712,37071,211905
15639,177721,37079,211889
15649,177726,37087,211892
15659,177723,37095,211893
15668,177699,37088,211887
15679,177711,37066,211887
15689,177700,37084,211895
15700,177677,37061,211899
15708,177709,37089,211899
15719,177689,37077,211888
15729,177703,37093,211879
15740,177681,37071,211897
15750,177693,37077,211852
15759,177696,37083,211889
15769,177700,37079,211905
15779,177699,37081,211886
15789,177704,37081,211874
15798,177691,37078,211878
15809,177718,37076,211903
15819,177720,37081,211877
15829,177721,37081,211901
15839,177709,37071,211877
15848,177702,37084,211885
15859,177711,37065,211889
15869,177688,37063,211855
15879,177690,37073,211888
15889,177714,37070,211898
15899,177704,37070,211888
15909,177712,37075,211875
15918,177674,37085,211869
15928,177680,37089,211895
15939,177718,37080,211909
15949,177691,37091,211889
15959,177684,37087,211916
15969,177690,37087,211876
15979,177708,37074,211885
15989,177673,37090,211902
15999,177712,37068,211890
16009,177694,37081,211901
16019,177702,37089,211879
16029,177699,37073,211916
16039,177679,37078,211895
16049,177709,37081,211893
16059,177704,37075,211885
16069,177718,37064,211885
16079,177702,37087,211876
16089,177706,37051,211889
16099,177696,37071,211878
16109,177696,37058,211881
16119,177690,37082,211870
16129,177694,37066,211874
16139,177702,37070,211861
16149,177717,37069,211868
16159,177683,37069,211878
16168,177694,37068,211853
16178,177689,37078,211871
16189,177699,37062,211877
16199,177698,37065,211889
16208,177673,37073,211866
16218,177704,37059,211840
16228,177684,37064,211876
16239,177692,37054,211894
16249,177690,37056,211884
16258,177679,37055,211889
16268,177699,37050,211881
16279,177689,37049,211894
16289,177691,37055,211868
16298,177696,37064,211876
16308,177693,37057,211865
16318,177689,37050,211860
16329,177692,37051,211872
16338,177696,37047,211874
16348,177692,37035,211868
16359,177681,37041,211897
16369,177691,37048,211827
16378,177681,37061,211857
16388,177681,37058,211871
16398,177678,37067,211820
16409,177680,37049,211875
16418,177682,37057,211859
16428,177661,37055,211853
16439,177678,37056,211866
16448,177669,37051,211849
16458,177658,37055,211817
16469,177679,37051,211829
16479,177655,37046,211850
16489,177669,37062,211855
16499,177669,37042,211856
16508,177684,37043,211857
16518,177667,37055,211872
16529,177660,37046,211849
16539,177677,37040,211841
16548,177659,37038,211843
16558,177661,37056,211841
16568,177660,37044,211846
16578,177657,37050,211873
16588,177654,37022,211854
16598,177665,37048,211848
16608,177671,37036,211839
16618,177663,37056,211875
16628,177671,37044,211857
16638,177651,37044,211862
16648,177668,37021,211833
16659,177664,37022,211851
16668,177660,37053,211848
16678,177646,37054,211852
16689,177640,37054,211864
16699,177655,37056,211851
16708,177640,37064,211865
16718,177645,37047,211848
16728,177662,37054,211854
16738,177663,37056,211848
16749,177659,37055,211852
16758,177664,37056,211841
16768,177665,37048,211842
16778,177655,37046,211795
16788,177657,37044,211858
16798,177670,37052,211848
16808,177660,37060,211853
16819,177664,37038,211793
16828,177653,37055,211846
16838,177646,37050,211839
16847,177674,37063,211851
16858,177689,37041,211862
16868,177667,37065,211826
16878,177652,37045,211841
16888,177656,37062,211850
16898,177668,37065,211862
16908,177646,37073,211837
16917,177669,37065,211845
16928,177659,37070,211834
16938,177660,37069,211850
16948,177662,37065,211813
16958,177657,37066,211828
16967,177664,37057,211823
16977,177675,37054,211828
16988,177669,37060,211848
16999,177671,37043,211814
17007,177665,37055,211817
17018,177678,37051,211817
17028,177679,37054,211819
17039,177671,37040,211854
17048,177670,37048,211836
17058,177657,37048,211840
17068,177657,37068,211838
17078,177669,37069,211824
17087,177667,37062,211840
17098,177687,37057,211845
17108,177661,37048,211839
17118,177657,37055,211846
17128,177675,37066,211836
17138,177665,37063,211847
17148,177651,37058,211845
17158,177669,37052,211842
17168,177652,37055,211850
17178,177662,37065,211851
17188,177658,37062,211872
17198,177668,37061,211845
17208,177668,37078,211826
17217,177677,37054,211841
17228,177673,37059,211836
17238,177676,37081,211857
17248,177682,37057,211862
17257,177685,37088,211862
17268,177678,37067,211861
17278,177688,37092,211861
17288,177684,37062,211855
17297,177663,37056,211852
17307,177678,37064,211866
17318,177672,37059,211852
17328,177689,37062,211837
17337,177669,37076,211855
17347,177687,37069,211857
17357,177696,37053,211875
17368,177696,37080,211848
17377,177690,37070,211891
17387,177696,37074,211860
17397,177687,37049,211904
17408,177688,37083,211878
17417,177694,37067,211881
17427,177703,37070,211895
17438,177698,37067,211886
17448,177711,37084,211894
17458,177689,37085,211906
17467,177698,37073,211892
17477,177715,37073,211911
17488,177712,37087,211902
17498,177714,37056,211908
17507,177727,37085,211926
17517,177709,37054,211909
17528,177708,37087,211903
17538,177694,37096,211906
17547,177711,37092,211917
17557,177730,37100,211920
17567,177716,37091,211917
17577,177723,37073,211894
17587,177728,37077,211916
17597,177716,37090,211906
17607,177724,37093,211925
17617,177736,37100,211898
17627,177710,37094,211942
17637,177742,37086,211907
17647,177715,37096,211939
17657,177742,37114,211909
17667,177720,37110,211934
17677,177730,37099,211945
17687,177726,37101,211946
17698,177750,37080,211936
17707,177751,37116,211918
17717,177728,37124,211932
17728,177750,37114,211917
17738,177747,37093,211920
17748,177746,37101,211930
17757,177744,37100,211917
17767,177753,37099,211935
17778,177758,37113,211909
17788,177745,37108,211918
17797,177754,37112,211928
17808,177741,37104,211942
17818,177760,37108,211936
17828,177759,37106,211922
17837,177754,37103,211951
17847,177742,37111,211945
17857,177757,37075,211943
17867,177748,37100,211918
17876,177742,37102,211950
17887,177766,37106,211958
17897,177767,37086,211945
17908,177767,37102,211938
17917,177757,37111,211932
17927,177754,37105,211916
17937,177744,37126,211956
17947,177756,37090,211921
17957,177769,37087,211916
17967,177783,37102,211930
17977,177761,37126,211948
17987,177776,37091,211941
17997,177780,37103,211942
18006,177782,37114,211946
18016,177792,37084,211933
18027,177781,37104,211941
18037,177767,37115,211942
18046,177788,37087,211943
18057,177782,37086,211957
18068,177777,37105,211970
18078,177780,37106,211959
18087,177783,37103,211936
18097,177761,37120,211953
18107,177768,37115,211957
18117,177762,37091,211957
18127,177769,37127,211950
18137,177764,37113,211935
18147,177754,37120,211952
18157,177765,37081,211963
18167,177763,37114,211949
18177,177775,37103,211942
18187,177767,37113,211961
18197,177776,37099,211924
18207,177770,37117,211937
18216,177775,37124,211936
18227,177777,37124,211953
18237,177766,37108,211933
18247,177762,37117,211938
18256,177778,37101,211938
18267,177782,37110,211936
18277,177774,37111,211930
18288,177775,37119,211950
18297,177784,37122,211945
18307,177794,37122,211949
18317,177786,37124,211956
18328,177779,37118,211949
18337,177777,37117,211965
18347,177798,37126,211945
18357,177782,37125,211958
18367,177794,37134,211949
18376,177779,37127,211968
18387,177806,37128,211975
18397,177788,37133,211948
18407,177769,37136,211982
18416,177786,37133,211978
18426,177796,37128,211983
18436,177783,37136,211993
18447,177803,37149,211993
18457,177798,37124,211960
18466,177787,37126,211964
18477,177784,37135,211963
18487,177787,37136,211948
18496,177799,37115,211983
18507,177809,37122,211958
18516,177807,37128,211967
18526,177814,37116,211954
18537,177785,37134,211943
18546,177791,37125,211935
18556,177791,37131,211928
18566,177808,37130,211926
18576,177782,37133,211944
18587,177777,37133,211943
18596,177814,37127,211942
18606,177784,37128,211959
18617,177800,37130,211941
18626,177804,37140,211954
18636,177813,37132,211961
18647,177805,37125,211973
18657,177808,37120,211952
18666,177813,37122,211967
18676,177802,37129,211938
18687,177799,37114,211964
18697,177803,37121,211943
18707,177802,37124,211940
18716,177786,37122,211947
18727,177810,37122,211963
18737,177818,37118,211938
18747,177810,37116,211944
18756,177813,37112,211929
18766,177813,37134,211917
18776,177797,37138,211946
18787,177815,37114,211949
18796,177819,37119,211939
18806,177780,37116,211945
18816,177804,37130,211951
18826,177817,37124,211942
18835,177796,37128,211930
18846,177794,37120,211948
18856,177829,37126,211940
18866,177801,37125,211940
18875,177815,37127,211947
18885,177830,37122,211938
18896,177811,37103,211916
18906,177806,37117,211926
18916,177804,37099,211942
18925,177792,37128,211942
18936,177821,37111,211949
18947,177802,37113,211925
18957,177791,37137,211938
18966,177796,37119,211944
18976,177809,37127,211926
18986,177806,37118,211953
18997,177795,37114,211950
19006,177832,37132,211933
19016,177790,37134,211949
19026,177807,37128,211933
19036,177804,37128,211917
19045,177812,37118,211960
19056,177811,37114,211933
19067,177812,37122,211910
19077,177822,37120,211944
19086,177809,37128,211936
19096,177792,37137,211924
19106,177775,37140,211943
19116,177820,37128,211948
19125,177828,37133,211949
19136,177816,37113,211925
19146,177813,37116,211928
19156,177818,37128,211951
19166,177810,37108,211935
19175,177821,37132,211939
19186,177818,37116,211938
19196,177811,37122,211924
19206,177809,37133,211934
19215,177806,37124,211920
19226,177787,37138,211916
19236,177813,37134,211916
19247,177795,37133,211934
19256,177801,37111,211932
19266,177817,37120,211921
19276,177802,37130,211943
19286,177811,37128,211920
19295,177825,37132,211930
19306,177806,37127,211931
19315,177819,37123,211928
19327,177792,37125,211925
19335,177811,37132,211912
19346,177811,37102,211910
19356,177802,37128,211921
19366,177811,37109,211912
19375,177810,37127,211922
19385,177824,37115,211902
19395,177804,37133,211923
19406,177810,37097,211923
19416,177810,37103,211895
19425,177806,37103,211910
19435,177804,37118,211902
19446,177818,37102,211919
19456,177790,37116,211897
19465,177796,37108,211918
19475,177790,37118,211919
19486,177795,37107,211902
19496,177805,37111,211910
19505,177771,37115,211918
19515,177777,37116,211905
19525,177795,37117,211921
19536,177799,37094,211906
19546,177798,37102,211913
19556,177800,37100,211926
19566,177792,37102,211887
19576,177794,37100,211917
19585,177775,37112,211892
19595,177783,37102,211919
19606,177772,37106,211909
19616,177811,37109,211900
19625,177809,37111,211917
19635,177799,37086,211903
19645,177771,37105,211913
19655,177796,37102,211906
19665,177793,37099,211898
19675,177793,37095,211906
19685,177797,37106,211921
19695,177799,37108,211896
19706,177790,37090,211907
19715,177795,37114,211926
19725,177785,37098,211915
19735,177788,37105,211923
19745,177788,37108,211937
19755,177799,37091,211895
19766,177767,37108,211921
19776,177776,37098,211892
19786,177783,37112,211923
19795,177771,37091,211900
19805,177787,37111,211915
19815,177772,37108,211911
19826,177758,37101,211920
19835,177777,37103,211910
19845,177794,37093,211922
19855,177775,37109,211915
19865,177786,37096,211916
19875,177794,37099,211929
19884,177793,37108,211930
19895,177798,37092,211917
19906,177780,37104,211921
19915,177800,37100,211934
19925,177781,37095,211924
19935,177778,37108,211920
19945,177784,37083,211934
19955,177775,37096,211911
19964,177787,37098,211926
19975,177783,37100,211937
19985,177777,37104,211922
19995,177765,37090,211907
20005,177768,37102,211920
20015,177767,37098,211901
20025,177757,37098,211919
20035,177776,37092,211915
20044,177769,37100,211923
20055,177749,37086,211917
20065,177770,37098,211919
20075,177781,37091,211939
20085,177770,37084,211921
20095,177764,37105,211904
20105,177763,37102,211897
20116,177774,37092,211919
20125,177764,37102,211910
20135,177790,37091,211896
20145,177781,37105,211902
20155,177772,37086,211887
20165,177753,37093,211897
20174,177763,37104,211920
20184,177774,37091,211914
20195,177770,37089,211907
20206,177752,37098,211907
20215,177769,37088,211911
20225,177743,37091,211903
20235,177747,37089,211905
20245,177750,37077,211910
20255,177771,37078,211911
20265,177742,37079,211897
20275,177773,37084,211891
20285,177753,37079,211906
20294,177754,37085,211898
20304,177760,37078,211893
20315,177770,37058,211899
20325,177761,37078,211892
20334,177760,37057,211888
20344,177758,37091,211888
20354,177763,37063,211896
20366,177750,37069,211900
20375,177764,37074,211859
20385,177762,37083,211882
20395,177751,37079,211909
20405,177745,37082,211912
20415,177745,37070,211903
20424,177734,37089,211900
20435,177749,37072,211886
20445,177746,37070,211897
20455,177751,37082,211907
20464,177745,37084,211896
20475,177737,37081,211903
20485,177764,37080,211894
20495,177744,37077,211894
20504,177737,37076,211870
20514,177744,37089,211872
20525,177724,37080,211898
20535,177740,37080,211883
20544,177742,37085,211874
20555,177716,37093,211878
20565,177744,37077,211840
20575,177724,37076,211858
20584,177734,37066,211888
20594,177721,37076,211876
20604,177742,37063,211872
20615,177735,37078,211847
20625,177742,37068,211868
20634,177734,37073,211856
20644,177749,37068,211852
20655,177741,37083,211852
20665,177717,37084,211873
20674,177740,37078,211851
20684,177699,37079,211866
20695,177731,37080,211879
20705,177713,37077,211877
20714,177731,37078,211890
20724,177721,37085,211885
20735,177726,37085,211880
20745,177717,37081,211886
20754,177717,37090,211861
20764,177731,37078,211874
20775,177740,37087,211879
20785,177748,37087,211862
20794,177736,37071,211871
20804,177741,37092,211888
20815,177749,37079,211877
20825,177728,37076,211880
20834,177749,37084,211878
20844,177751,37096,211889
20854,177745,37064,211890
20865,177739,37079,211884
20875,177749,37086,211868
20884,177758,37088,211900
20894,177759,37083,211881
20904,177753,37077,211887
20915,177744,37098,211884
20924,177741,37088,211881
20934,177755,37088,211874
20944,177751,37084,211883
20955,177744,37088,211880
20964,177747,37094,211862
20974,177742,37096,211855
20984,177762,37088,211888
20995,177764,37094,211872
21004,177743,37100,211868
21014,177756,37083,211919
21024,177738,37093,211885
21035,177753,37077,211873
21044,177719,37094,211901
21054,177741,37081,211902
21064,177748,37094,211904
21075,177730,37082,211918
21084,177743,37090,211889
21094,177754,37084,211897
21104,177737,37069,211906
21115,177760,37091,211891
21125,177756,37101,211908
21134,177756,37080,211914
21144,177773,37094,211906
21154,177766,37099,211917
21164,177757,37095,211902
21174,177764,37092,211921
21184,177769,37097,211906
21194,177755,37106,211901
21205,177762,37086,211915
21214,177754,37093,211912
21224,177764,37094,211905
21235,177746,37099,211934
21245,177771,37104,211902
21254,177743,37106,211919
21264,177761,37091,211925
21274,177769,37111,211915
21285,177769,37086,211928
21294,177760,37104,211940
21304,177771,37111,211919
21314,177779,37084,211919
21324,177767,37121,211914
21334,177754,37103,211938
21344,177764,37115,211928
21354,177778,37099,211928
21365,177786,37107,211955
21375,177777,37098,211943
21384,177781,37104,211917
21393,177769,37120,211948
21404,177798,37097,211925
21415,177796,37109,211934
21424,177788,37116,211918
21433,177785,37116,211948
21444,177792,37109,211952
21455,177796,37116,211953
21464,177787,37104,211935
21473,177799,37092,211934
21484,177803,37094,211955
21494,177794,37116,211903
21504,177801,37120,211957
21513,177782,37114,211975
21524,177799,37116,211947
21534,177803,37115,211935
21544,177772,37126,211944
21553,177791,37112,211921
21564,177776,37107,211948
21574,177806,37103,211940
21584,177794,37117,211919
21593,177809,37130,211940
21604,177793,37112,211958
21614,177805,37122,211967
21625,177809,37115,211963
21633,177797,37115,211924
21643,177820,37118,211966
21653,177808,37127,211944
21664,177826,37121,211973
21674,177813,37122,211974
21684,177810,37126,211939
21694,177809,37118,211955
21704,177797,37107,211953
21713,177809,37122,211926
21723,177794,37111,211948
21734,177817,37117,211917
21744,177797,37125,211914
21753,177798,37123,211909
21763,177817,37133,211939
21774,177808,37122,211927
21784,177789,37123,211940
21793,177815,37114,211917
21803,177789,37117,211941
21813,177814,37125,211943
21823,177809,37121,211904
21833,177787,37123,211922
21844,177811,37097,211948
21854,177806,37121,211911
21864,177793,37114,211939
21874,177824,37114,211924
21883,177815,37115,211942
21894,177814,37105,211936
21904,177792,37120,211939
21914,177816,37113,211927
21923,177801,37116,211930
21934,177795,37095,211911
21944,177801,37100,211919
21954,177806,37106,211944
21963,177804,37126,211921
21973,177801,37118,211964
21983,177808,37122,211932
21994,177811,37112,211937
22003,177800,37123,211903
22013,177780,37120,211926
22024,177787,37107,211922
22033,177801,37109,211920
22042,177805,37102,211922
22054,177799,37117,211927
22064,177818,37106,211932
22074,177805,37097,211921
22083,177798,37099,211923
22093,177809,37120,211908
22103,177812,37101,211919
22113,177803,37109,211952
22124,177791,37099,211924
22133,177807,37115,211945
22144,177785,37093,211932
22153,177813,37100,211908
22164,177804,37085,211934
22173,177802,37106,211920
22183,177815,37089,211933
22194,177810,37111,211912
22204,177797,37117,211926
22213,177809,37116,211926
22223,177813,37096,211940
22233,177821,37110,211941
22243,177805,37115,211926
22253,177804,37098,211949
22263,177807,37099,211942
22273,177830,37098,211928
22284,177790,37106,211944
22292,177796,37111,211936
22302,177810,37109,211934
22313,177803,37103,211925
22323,177805,37106,211933
22333,177814,37090,211921
22342,177806,37098,211926
22353,177800,37101,211914
22364,177790,37108,211929
22374,177800,37103,211931
22383,177818,37087,211918
22393,177815,37112,211942
22403,177796,37108,211943
22414,177797,37099,211926
22423,177794,37107,211920
22433,177808,37118,211912
22443,177810,37107,211925
22453,177807,37074,211928
22462,177810,37117,211908
22473,177797,37102,211930
22483,177800,37096,211898
22493,177782,37100,211917
22503,177817,37091,211920
22513,177801,37103,211899
22523,177822,37101,211891
22533,177797,37105,211904
22542,177818,37096,211907
22553,177806,37089,211913
22563,177798,37091,211915
22573,177801,37091,211926
22583,177785,37096,211908
22593,177821,37101,211888
22603,177809,37084,211911
22613,177791,37078,211902
22623,177793,37090,211910
22633,177804,37074,211916
22643,177792,37079,211922
22653,177799,37080,211892
22663,177799,37077,211916
22673,177804,37083,211916
22683,177802,37077,211905
22693,177783,37081,211903
22703,177804,37093,211878
22712,177800,37077,211900
22723,177802,37066,211892
22733,177804,37087,211913
22743,177758,37071,211894
22752,177780,37090,211882
22762,177771,37075,211916
22773,177794,37073,211909
22783,177788,37090,211895
22792,177784,37072,211914
22802,177800,37069,211928
22813,177796,37062,211899
22828,177783,37073,211890
22833,177790,37070,211913
22842,177787,37072,211903
22853,177777,37066,211904
22863,177802,37075,211896
22873,177781,37066,211919
22882,177790,37053,211896
22892,177781,37076,211871
22902,177783,37078,211896
22913,177780,37068,211906
22922,177769,37071,211902
22932,177762,37071,211902
22942,177780,37080,211898
22953,177771,37074,211899
22962,177772,37076,211894
22972,177761,37076,211881
22983,177768,37070,211904
22993,177779,37065,211898
23002,177794,37060,211905
23013,177771,37061,211907
23023,177800,37068,211889
23033,177796,37060,211901
23042,177787,37058,211885
23052,177780,37071,211886
23062,177794,37051,211894
23073,177792,37064,211892
23083,177776,37057,211889
23092,177775,37076,211904
23102,177771,37066,211905
23112,177778,37039,211884
23123,177777,37049,211870
23132,177769,37049,211865
23142,177765,37055,211869
23152,177767,37056,211896
23163,177774,37060,211885
23172,177764,37069,211896
23182,177777,37074,211882
23192,177766,37082,211888
23202,177776,37067,211876
23212,177757,37043,211889
23222,177789,37051,211884
23232,177771,37049,211890
23243,177765,37067,211897
23251,177772,37057,211887
23262,177758,37062,211903
23272,177773,37074,211892
23282,177759,37047,211907
23292,177775,37043,211894
23302,177779,37052,211896
23313,177772,37056,211875
23323,177778,37054,211871
23333,177770,37072,211907
23342,177769,37047,211884
23352,177791,37045,211904
23362,177760,37049,211894
23373,177753,37039,211890
23382,177786,37063,211854
23392,177738,37057,211875
23402,177771,37053,211830
23413,177732,37049,211883
23422,177769,37063,211882
23432,177773,37038,211857
23442,177746,37049,211866
23453,177758,37054,211853
23462,177758,37050,211874
23472,177765,37045,211901
23482,177757,37046,211888
23492,177767,37034,211902
23501,177739,37047,211883
23512,177769,37025,211873
23522,177763,37028,211874
23532,177759,37032,211892
23542,177752,37039,211858
23551,177751,37034,211840
23562,177745,37022,211847
23572,177746,37022,211852
23583,177755,37025,211852
23591,177747,37022,211859
23602,177758,37008,211846
23612,177763,37030,211834
23623,177750,37022,211872
23632,177749,37031,211866
23642,177728,37042,211885
23652,177751,37019,211869
23662,177761,37013,211880
23671,177754,37030,211854
23681,177746,37019,211858
23692,177722,37030,211864
23702,177752,37024,211824
23711,177720,37038,211857
23722,177729,37018,211858
23732,177739,37022,211842
23743,177731,37015,211863
23751,177745,37031,211861
23762,177752,37013,211866
23771,177746,37025,211838
23782,177728,37018,211868
23792,177721,37024,211837
23802,177740,37026,211842
23812,177730,37010,211862
23822,177733,37026,211838
23832,177743,37019,211863
23841,177720,37024,211853
23852,177729,37014,211868
23862,177734,37017,211851
23872,177740,37008,211846
23881,177719,37020,211826
23892,177711,37029,211849
23902,177726,37037,211849
23912,177744,37022,211842
23921,177722,37026,211856
23931,177715,37013,211872
23941,177715,37033,211834
23952,177703,37018,211863
23961,177732,37021,211846
23971,177715,37024,211845
23981,177719,37011,211838
23992,177712,37022,211845
24001,177726,37013,211843
24011,177719,37023,211851
24021,177730,37037,211842
24032,177714,37025,211836
24041,177720,37029,211846
24051,177721,37029,211840
24061,177728,37026,211844
24071,177723,36997,211866
24082,177720,37004,211858
24091,177725,37028,211827
24102,177728,37000,211868
24112,177735,37005,211830
24122,177706,37013,211841
24131,177714,37020,211838
24141,177706,37023,211855
24152,177725,37034,211849
24162,177719,37002,211849
24171,177719,37021,211836
24181,177730,37027,211865
24192,177715,37027,211853
24202,177715,37024,211847
24211,177699,37018,211841
24221,177711,37022,211847
24232,177728,37018,211851
24242,177720,37019,211840
24251,177728,37013,211839
24261,177691,37013,211859
24271,177729,37017,211826
24281,177712,37006,211847
24291,177715,37013,211837
24301,177711,37017,211844
24311,177721,37023,211847
24321,177725,37019,211827
24332,177695,37035,211846
24341,177717,37017,211842
24351,177705,37014,211855
24361,177707,37022,211839
24371,177698,37018,211841
24380,177716,37025,211829
24391,177697,37022,211850
24402,177721,37004,211855
24412,177720,37025,211819
24421,177729,37026,211844
24431,177715,37001,211846
24441,177718,37014,211845
24452,177717,37013,211869
24461,177704,37023,211841
24471,177729,37025,211836
24481,177723,37008,211848
24491,177720,37014,211831
24500,177734,37006,211844
24511,177726,37029,211838
24521,177720,37013,211848
24531,177735,37003,211836
24541,177718,37008,211835
24551,177715,37022,211827
24561,177711,37012,211839
24571,177698,37030,211825
24581,177719,37044,211833
24591,177729,37016,211835
24601,177707,37034,211836
24611,177731,37033,211833
24621,177711,37028,211851
24630,177728,37012,211842
24641,177722,37026,211853
24651,177739,37033,211853
24662,177707,37018,211843
24671,177731,37030,211820
24681,177717,37027,211867
24691,177704,37019,211828
24701,177732,37029,211839
24710,177726,37027,211852
24720,177722,37019,211833
24731,177749,37009,211835
24741,177731,37031,211849
24750,177725,37005,211837
24761,177737,37014,211829
24770,177719,37017,211839
24781,177716,37038,211860
24791,177721,37025,211833
24801,177726,37025,211857
24811,177722,37033,211849
24821,177743,37032,211844
24832,177718,37040,211850
24841,177744,37043,211862
24851,177717,37038,211857
24861,177746,37033,211839
24871,177734,37033,211854
24881,177737,37030,211858
24890,177734,37031,211875
24901,177750,37034,211851
24910,177750,37037,211875
24920,177756,37038,211876
24931,177740,37034,211853
24941,177739,37031,211870
24951,177748,37042,211869
24960,177759,37040,211868
24970,177744,37043,211850
24980,177751,37032,211893
24991,177750,37043,211873
25000,177761,37017,211879
25010,177753,37048,211862
25020,177754,37054,211876
25031,177748,37051,211875
25041,177764,37044,211884
25050,177750,37054,211883
25061,177754,37041,211865
25071,177757,37051,211873
25081,177760,37051,211874
25090,177759,37047,211876
25100,177743,37057,211879
25110,177772,37052,211901
25120,177771,37054,211875
25130,177756,37058,211901
25140,177778,37044,211905
25151,177772,37038,211902
25161,177768,37045,211894
25170,177770,37059,211911
25180,177778,37050,211903
25191,177783,37036,211915
25201,177776,37046,211920
25210,177788,37040,211911
25220,177769,37058,211897
25230,177798,37048,211916
25240,177773,37042,211890
25250,177771,37050,211909
25260,177779,37062,211901
25270,177763,37050,211908
25281,177762,37057,211917
25291,177780,37060,211898
25300,177789,37063,211917
25310,177795,37044,211904
25320,177779,37072,211916
25331,177799,37048,211920
25340,177767,37064,211901
25350,177788,37072,211919
25360,177804,37060,211906
25371,177808,37047,211913
25380,177788,37055,211891
25390,177777,37065,211907
25400,177788,37072,211916
25411,177801,37037,211908
25420,177808,37038,211909
25430,177788,37047,211911
25440,177804,37068,211927
25451,177803,37047,211916
25460,177816,37063,211909
25470,177788,37075,211930
25480,177780,37066,211924
25490,177806,37078,211931
25500,177780,37077,211943
25510,177793,37075,211931
25520,177796,37069,211916
25530,177800,37078,211932
25540,177828,37074,211908
25549,177811,37069,211944
25559,177817,37078,211937
25570,177840,37056,211918
25581,177790,37071,211930
25589,177825,37071,211940
25600,177814,37074,211943
25611,177809,37069,211930
25621,177795,37079,211912
25630,177811,37072,211933
25640,177810,37074,211918
25650,177813,37066,211934
25660,177825,37072,211933
25669,177838,37082,211937
25679,177836,37073,211904
25690,177810,37075,211946
25700,177784,37087,211938
25710,177839,37058,211926
25720,177817,37086,211911
25730,177816,37087,211932
25740,177835,37091,211930
25750,177834,37088,211936
25759,177827,37085,211919
25770,177832,37085,211944
25780,177798,37080,211932
25790,177829,37080,211939
25799,177819,37083,211924
25809,177811,37090,211938
25820,177832,37085,211954
25830,177826,37079,211921
25840,177828,37063,211949
25849,177826,37065,211893
25860,177850,37072,211915
25870,177832,37078,211925
25880,177815,37073,211920
25889,177832,37085,211898
25900,177856,37055,211927
25910,177835,37066,211892
25920,177828,37062,211905
25929,177843,37081,211883
25940,177863,37074,211931
25950,177835,37074,211893
25960,177847,37076,211936
25970,177845,37082,211922
25980,177825,37072,211913
25990,177828,37075,211923
26000,177817,37080,211916
26009,177845,37074,211934
26019,177837,37069,211901
26030,177839,37063,211922
26040,177834,37070,211923
26049,177840,37076,211916
26059,177839,37064,211905
26070,177827,37077,211910
26080,177837,37061,211919
26089,177824,37066,211881
26099,177783,37063,211901
26110,177835,37077,211922
26120,177820,37072,211915
26129,177823,37052,211930
26139,177790,37071,211890
26150,177819,37069,211904
26160,177826,37070,211905
26169,177816,37088,211911
26179,177845,37077,211926
26190,177828,37066,211898
26200,177846,37062,211922
26209,177834,37075,211904
26219,177848,37076,211908
26229,177838,37067,211915
26239,177832,37072,211920
26249,177812,37063,211928
26259,177848,37073,211890
26269,177826,37072,211905
26279,177813,37078,211917
26308,177843,37063,211915
26311,177834,37066,211909
26319,177831,37062,211933
26330,177818,37054,211913
26339,177820,37069,211885
26349,177806,37069,211905
26359,177811,37063,211903
26370,177819,37082,211890
26379,177799,37056,211894
26389,177798,37067,211875
26399,177788,37066,211899
26410,177817,37070,211892
26419,177811,37069,211893
26429,177820,37070,211907
26439,177793,37076,211906
26450,177818,37079,211907
26459,177828,37075,211912
26469,177801,37063,211919
26479,177808,37073,211892
26489,177822,37066,211897
26499,177825,37074,211896
26509,177817,37052,211909
26519,177824,37065,211919
26529,177815,37053,211903
26539,177822,37068,211916
26548,177823,37052,211899
26559,177823,37062,211914
26569,177825,37069,211871
26580,177808,37063,211905
26589,177828,37069,211887
26599,177791,37074,211887
26609,177800,37079,211907
26619,177820,37063,211907
26629,177830,37069,211889
26639,177806,37065,211869
26649,177812,37061,211877
26659,177790,37072,211839
26668,177802,37074,211906
26678,177813,37075,211885
26689,177827,37070,211901
26699,177820,37065,211844
26708,177817,37068,211897
26718,177822,37068,211878
26729,177828,37064,211889
26739,177814,37073,211831
26749,177817,37059,211872
26759,177813,37070,211872
26769,177807,37063,211867
26779,177780,37037,211885
26789,177796,37059,211878
26798,177806,37062,211878
26809,177803,37066,211870
26819,177786,37027,211875
26829,177813,37061,211891
26838,177802,37057,211870
26848,177787,37048,211885
26859,177819,37045,211878
26869,177802,37055,211867
26879,177788,37045,211863
26889,177801,37059,211862
26899,177801,37042,211866
26909,177797,37032,211879
26918,177819,37044,211877
26928,177791,37054,211872
26938,177806,37052,211901
26949,177795,37043,211878
26958,177812,37042,211894
26969,177795,37031,211871
26979,177792,37051,211858
26989,177803,37048,211859
26999,177811,37059,211872
27008,177804,37040,211852
27018,177789,37054,211854
27029,177793,37049,211865
27039,177784,37051,211876
27048,177764,37048,211864
27058,177790,37039,211879
27069,177787,37052,211852
27079,177788,37045,211880
27088,177773,37050,211872
27098,177787,37051,211884
27108,177790,37048,211872
27119,177774,37057,211869
27128,177800,37040,211883
27138,177788,37041,211883
27148,177784,37037,211874
27159,177787,37043,211880
27167,177784,37046,211834
27178,177791,37035,211829
27188,177788,37045,211852
27199,177784,37040,211870
27208,177792,37051,211839
27218,177796,37043,211873
27229,177791,37050,211854
27239,177795,37048,211886
27249,177748,37046,211866
27258,177784,36996,211858
27268,177789,37030,211865
27278,177780,37053,211831
27289,177777,37047,211864
27298,177777,37042,211886
27308,177790,37043,211854
27318,177780,37040,211858
27329,177777,37032,211853
27338,177783,37036,211857
27348,177790,37052,211847
27358,177792,37044,211860
27368,177786,37034,211869
27378,177780,37045,211838
27388,177784,37057,211841
27399,177773,37028,211865
27409,177775,37032,211817
27418,177783,37035,211853
27428,177767,37043,211855
27438,177779,37033,211812
27449,177779,37043,211846
27458,177788,37036,211833
27468,177789,37049,211865
27478,177770,37039,211825
27488,177777,37056,211847
27498,177785,37036,211865
27508,177776,37050,211856
27518,177768,37027,211864
27528,177780,37041,211822
27538,177772,37046,211866
27548,177788,37047,211844
27558,177786,37064,211852
27568,177778,37031,211845
27578,177769,37053,211851
27587,177773,37020,211825
27598,177770,37018,211816
27608,177781,37039,211814
27619,177778,37038,211854
27627,177765,37044,211828
27638,177779,37025,211840
27648,177775,37034,211841
27658,177765,37036,211839
27667,177783,37029,211839
27677,177770,37049,211838
27688,177765,37039,211833
27698,177741,37030,211854
27708,177771,37037,211821
27717,177776,37020,211836
27728,177778,37045,211818
27738,177762,37038,211851
27748,177772,37043,211825
27758,177777,37018,211838
27768,177772,37038,211815
27778,177752,37028,211826
27788,177743,37018,211830
27797,177767,37042,211826
27808,177758,37024,211830
27818,177770,37013,211853
27828,177759,37047,211844
27837,177762,37046,211834
27848,177773,37041,211828
27858,177771,37017,211835
27868,177750,37022,211813
27877,177755,37033,211824
27888,177734,37031,211809
27898,177740,37023,211804
27908,177756,37027,211834
27917,177739,37026,211790
27927,177761,37022,211810
27937,177735,37036,211817
27948,177729,37028,211809
27958,177748,37040,211807
27968,177752,37032,211785
27978,177724,37027,211817
27988,177730,37029,211809
27998,177737,37031,211817
28007,177737,37033,211812
28017,177749,37026,211835
28028,177743,37017,211821
28038,177745,37031,211807
28047,177741,37032,211792
28057,177734,37024,211817
28067,177755,37042,211815
28078,177729,37014,211786
28088,177744,37035,211773
28098,177720,37039,211827
28108,177730,37031,211806
28118,177740,37041,211818
28128,177732,37037,211810
28138,177733,37035,211829
28148,177739,37023,211813
28158,177742,37028,211802
28167,177755,37040,211779
28177,177736,37030,211809
28188,177742,37042,211796
28198,177714,37043,211844
28208,177740,37042,211800
28217,177716,37035,211822
28227,177736,37034,211824
28238,177739,37043,211829
28248,177741,37045,211808
28257,177726,37051,211833
28267,177733,37048,211823
28277,177752,37027,211848
28288,177747,37033,211834
28297,177761,37051,211860
28307,177735,37037,211821
28317,177750,37035,211833
28327,177758,37040,211832
28336,177760,37057,211823
28347,177753,37044,211838
28357,177747,37024,211788
28368,177751,37031,211802
28377,177750,37048,211809
28387,177745,37046,211825
28397,177754,37021,211819
28408,177736,37055,211814
28417,177763,37056,211827
28427,177732,37041,211837
28437,177741,37036,211824
28448,177724,37044,211847
28458,177744,37048,211844
28467,177737,37040,211845
28477,177749,37020,211838
28487,177755,37048,211844
28497,177772,37036,211837
28507,177773,37055,211833
28517,177756,37064,211849
28527,177758,37049,211846
28537,177771,37041,211843
28547,177775,37043,211839
28557,177756,37053,211849
28568,177744,37043,211833
28578,177771,37049,211853
28587,177771,37047,211838
28597,177756,37055,211848
28608,177766,37048,211850
28618,177770,37052,211843
28627,177769,37058,211835
28637,177765,37059,211852
28647,177783,37067,211847
28657,177749,37055,211859
28666,177764,37077,211857
28676,177763,37065,211857
28687,177779,37075,211855
28697,177770,37059,211849
28708,177782,37049,211866
28716,177765,37073,211869
28727,177774,37063,211865
28737,177768,37044,211864
28747,177773,37063,211862
28757,177768,37068,211870
28767,177797,37055,211880
28777,177773,37074,211861
28787,177775,37061,211883
28796,177778,37063,211869
28807,177803,37060,211875
28817,177777,37085,211865
28827,177779,37073,211852
28836,177795,37074,211879
28847,177779,37075,211889
28857,177781,37079,211897
28867,177810,37081,211896
28876,177797,37078,211860
28886,177796,37069,211902
28897,177794,37083,211882
28908,177802,37084,211885
28917,177810,37103,211905
28927,177805,37076,211905
28937,177806,37086,211906
28947,177812,37084,211923
28957,177820,37092,211905
28966,177828,37066,211915
28976,177819,37095,211906
28987,177812,37079,211912
28997,177822,37085,211898
29007,177823,37090,211878
29017,177810,37100,211910
29027,177794,37100,211910
29037,177831,37094,211909
29046,177829,37091,211916
29056,177813,37077,211911
29067,177818,37095,211921
29077,177826,37086,211898
29086,177808,37108,211913
29096,177837,37099,211909
29106,177836,37098,211900
29116,177852,37109,211920
29126,177833,37101,211938
29136,177847,37101,211913
29147,177860,37070,211923
29157,177843,37096,211878
29166,177846,37096,211915
29176,177821,37112,211918
29187,177847,37087,211887
29197,177848,37110,211889
29207,177846,37078,211920
29216,177847,37104,211912
29227,177857,37106,211926
29237,177856,37101,211921
29247,177857,37091,211908
29256,177866,37109,211940
29266,177880,37096,211942
29276,177853,37100,211926
29287,177841,37108,211930
29296,177862,37099,211931
29307,177859,37088,211957
29316,177867,37108,211920
29327,177871,37092,211930
29336,177866,37090,211919
29346,177867,37088,211925
29356,177871,37095,211908
29366,177878,37106,211921
29376,177873,37090,211922
29386,177867,37112,211906
29396,177855,37100,211918
29406,177865,37097,211927
29416,177856,37107,211941
29426,177870,37089,211926
29436,177867,37108,211942
29446,177875,37094,211921
29456,177865,37109,211906
29466,177883,37089,211910
29476,177870,37096,211883
29486,177850,37091,211923
29496,177878,37103,211898
29506,177858,37102,211930
29516,177879,37110,211895
29526,177838,37109,211931
29536,177859,37104,211916
29546,177863,37104,211936
29556,177861,37105,211914
29566,177857,37114,211946
29576,177861,37112,211920
29586,177862,37098,211924
29596,177873,37099,211920
29606,177868,37116,211908
29617,177855,37109,211931
29626,177870,37103,211932
29636,177859,37101,211918
29646,177875,37093,211919
29656,177873,37093,211905
29666,177874,37103,211934
29675,177870,37109,211920
29686,177860,37095,211909
29696,177877,37110,211928
29706,177881,37097,211932
29715,177877,37115,211931
29725,177861,37113,211907
29736,177875,37103,211932
29746,177876,37107,211934
29755,177877,37116,211924
29766,177864,37085,211925
29776,177878,37108,211927
29786,177843,37113,211923
29795,177865,37110,211913
29806,177842,37118,211938
29816,177881,37112,211914
29826,177880,37119,211910
29835,177877,37108,211928
29845,177870,37110,211905
29856,177853,37109,211914
29866,177861,37110,211910
29875,177868,37095,211926
29886,177865,37105,211930
29896,177881,37103,211921
29906,177877,37115,211925
29916,177868,37102,211916
29925,177861,37100,211903
29935,177856,37099,211930
29946,177877,37106,211922
29956,177887,37106,211889
29965,177867,37116,211913
29976,177866,37112,211891
29986,177876,37113,211894
29996,177874,37101,211919
30005,177870,37115,211921
30015,177853,37114,211908
30025,177862,37112,211900
30036,177873,37096,211918
30046,177852,37090,211901
30056,177868,37107,211893
30066,177866,37084,211902
30076,177853,37096,211914
30085,177859,37076,211909
30095,177861,37104,211903
30105,177858,37085,211915
30116,177858,37094,211886
30125,177867,37101,211909
30135,177834,37087,211890
30146,177873,37080,211889
30156,177856,37090,211878
30166,177852,37099,211873
30175,177852,37081,211898
30185,177858,37097,211903
30195,177865,37095,211909
30205,177846,37099,211900
30215,177863,37078,211888
30226,177855,37077,211905
30236,177845,37087,211888
30246,177858,37090,211910
30255,177859,37074,211889
30265,177845,37072,211886
30275,177847,37086,211920
30285,177870,37096,211871
30295,177840,37090,211891
30305,177848,37098,211904
30315,177853,37090,211905
30326,177853,37100,211900
30335,177846,37090,211875
30345,177831,37089,211893
30355,177845,37090,211898
30365,177867,37090,211897
30375,177863,37085,211905
30385,177859,37082,211908
30395,177851,37077,211886
30406,177845,37091,211904
30416,177853,37084,211886
30425,177858,37078,211898
30435,177861,37094,211889
30445,177863,37080,211889
30456,177860,37092,211887
30465,177849,37091,211888
30475,177857,37094,211910
30485,177848,37084,211871
30495,177848,37085,211900
30504,177846,37076,211890
30515,177856,37067,211901
30525,177847,37094,211875
30535,177854,37076,211898
30544,177844,37080,211878
30555,177847,37082,211885
30565,177849,37080,211877
30575,177848,37087,211885
30584,177861,37091,211886
30595,177840,37086,211882
30605,177851,37092,211895
30615,177853,37097,211912
30625,177841,37072,211888
30635,177856,37082,211875
30645,177863,37087,211878
30655,177848,37092,211879
30665,177852,37087,211883
30675,177845,37094,211897
30685,177835,37079,211895
30695,177845,37073,211901
30705,177854,37090,211898
30715,177838,37083,211899
30725,177852,37076,211869
30735,177856,37090,211891
30745,177853,37096,211893
30755,177881,37079,211888
30765,177864,37098,211889
30775,177855,37089,211891
30785,177852,37094,211877
30794,177881,37072,211871
30805,177841,37090,211889
30814,177868,37091,211881
30825,177873,37063,211888
30834,177837,37076,211848
30845,177858,37078,211877
30855,177855,37083,211866
30865,177852,37073,211878
30875,177845,37080,211881
30884,177816,37087,211869
30895,177843,37085,211877
30905,177843,37076,211906
30916,177843,37088,211875
30925,177850,37073,211844
30935,177834,37082,211883
30945,177837,37062,211871
30955,177854,37067,211864
30964,177841,37066,211885
30975,177841,37057,211867
30985,177841,37067,211866
30995,177854,37068,211853
31007,177852,37076,211860
31015,177839,37056,211874
31025,177853,37052,211876
31035,177835,37074,211879
31044,177840,37054,211853
31054,177846,37065,211855
31064,177838,37059,211878
31075,177845,37040,211850
31084,177833,37053,211850
31094,177844,37055,211848
31104,177839,37066,211862
31114,177851,37050,211856
31125,177847,37049,211845
31135,177830,37070,211863
31145,177834,37074,211848
31155,177847,37066,211843
31165,177819,37053,211858
31174,177833,37068,211857
31184,177823,37052,211857
31195,177816,37062,211848
31205,177818,37051,211869
31214,177831,37073,211880
31224,177811,37059,211850
31235,177837,37046,211859
31245,177829,37069,211855
31254,177830,37057,211871
31264,177835,37058,211866
31274,177834,37043,211864
31284,177840,37061,211866
31294,177841,37052,211847
31305,177814,37054,211846
31315,177836,37060,211840
31325,177849,37064,211825
31334,177845,37057,211866
31345,177830,37061,211849
31355,177832,37059,211848
31365,177820,37062,211827
31375,177811,37078,211837
31385,177794,37056,211847
31395,177813,37065,211840
31405,177809,37068,211854
31415,177807,37053,211862
31424,177818,37052,211849
31435,177804,37067,211862
31445,177806,37064,211825
31455,177818,37059,211835
31464,177811,37066,211859
31474,177813,37062,211854
31484,177804,37045,211845
31495,177815,37062,211845
31504,177802,37057,211843
31514,177795,37053,211839
31524,177805,37058,211858
31534,177810,37059,211832
31543,177814,37077,211839
31554,177807,37068,211856
31564,177822,37070,211849
31574,177819,37054,211843
31583,177810,37077,211822
31594,177817,37056,211834
31604,177820,37064,211826
31614,177809,37081,211827
31624,177822,37057,211827
31633,177789,37061,211814
31645,177796,37030,211807
31654,177802,37067,211809
31665,177831,37046,211810
31673,177814,37055,211829
31685,177791,37064,211834
31694,177809,37056,211831
31705,177817,37042,211822
31713,177799,37048,211812
31725,177798,37046,211850
31734,177799,37043,211833
31745,177782,37050,211840
31754,177794,37044,211823
31764,177764,37058,211830
31774,177793,37055,211812
31785,177780,37043,211844
31794,177809,37043,211813
31804,177777,37058,211806
31814,177773,37061,211824
31824,177794,37048,211806
31833,177794,37034,211804
31844,177764,37043,211807
31854,177782,37052,211795
31864,177781,37058,211829
31874,177788,37058,211827
31883,177775,37046,211787
31893,177783,37049,211817
31904,177781,37030,211818
31915,177786,37047,211801
31924,177782,37048,211808
31934,177771,37042,211809
31944,177767,37042,211813
31954,177780,37038,211808
31964,177777,37041,211814
31974,177776,37043,211780
31984,177782,37047,211813
31994,177785,37052,211802
32003,177768,37048,211820
32014,177762,37034,211807
32024,177776,37050,211780
32035,177769,37048,211821
32044,177771,37045,211813
32054,177767,37057,211821
32064,177780,37029,211791
32074,177777,37052,211816
32083,177761,37047,211786
32094,177788,37050,211814
32104,177787,37057,211789
32114,177778,37048,211826
32124,177771,37045,211802
32134,177775,37052,211815
32144,177784,37042,211822
32154,177760,37064,211825
32164,177780,37059,211824
32174,177757,37053,211820
32184,177771,37042,211823
32194,177790,37059,211812
32204,177785,37060,211805
32213,177786,37061,211820
32223,177784,37060,211825
32234,177804,37051,211841
32244,177779,37060,211818
32253,177780,37045,211847
32263,177790,37070,211828
32274,177792,37052,211826
32284,177779,37070,211829
32293,177788,37045,211836
32304,177780,37044,211833
32314,177792,37072,211831
32324,177767,37069,211842
32333,177808,37067,211846
32343,177777,37059,211856
32354,177800,37063,211834
32364,177793,37061,211825
32374,177811,37075,211823
32383,177784,37070,211855
32393,177810,37069,211826
32403,177807,37063,211839
32414,177812,37072,211828
32423,177821,37073,211846
32434,177812,37067,211820
32444,177812,37070,211832
32454,177799,37068,211843
32463,177802,37087,211834
32473,177807,37076,211835
32483,177792,37077,211832
32494,177828,37077,211845
32503,177793,37077,211838
32513,177805,37073,211821
32523,177804,37052,211842
32534,177786,37068,211846
32543,177821,37074,211835
32553,177820,37083,211836
32563,177799,37083,211834
32573,177823,37050,211848
32583,177808,37074,211857
32593,177825,37063,211854
32603,177811,37072,211826
32613,177813,37065,211845
32623,177817,37093,211846
32633,177815,37081,211859
32643,177814,37092,211850
32653,177798,37079,211846
32663,177820,37076,211850
32673,177829,37085,211876
32684,177793,37102,211853
32693,177816,37091,211868
32704,177840,37077,211862
32713,177818,37081,211875
32723,177823,37090,211858
32734,177822,37070,211869
32744,177828,37091,211861
32753,177833,37091,211873
32763,177836,37088,211874
32774,177834,37084,211884
32784,177826,37090,211863
32793,177832,37073,211895
32803,177807,37088,211883
32813,177817,37094,211857
32824,177819,37100,211896
32833,177842,37089,211890
32843,177834,37084,211878
32853,177827,37094,211889
32863,177846,37096,211874
32874,177839,37102,211885
32883,177826,37100,211882
32893,177841,37106,211883
32903,177832,37092,211894
32913,177864,37079,211899
32923,177850,37100,211904
32933,177850,37107,211903
32943,177848,37101,211909
32954,177849,37112,211878
32963,177837,37131,211892
32973,177862,37115,211931
32983,177851,37103,211930
32994,177852,37109,211918
33003,177864,37102,211920
33013,177858,37109,211925
33023,177856,37123,211917
33033,177869,37108,211914
33043,177852,37116,211915
33053,177879,37102,211912
33063,177881,37117,211924
33073,177873,37114,211926
33083,177865,37113,211935
33093,177865,37129,211917
33103,177870,37125,211909
33113,177874,37109,211915
33123,177858,37134,211894
33133,177868,37128,211934
33143,177873,37118,211919
33153,177870,37127,211930
33163,177883,37121,211905
33173,177858,37118,211920
33183,177888,37117,211914
33193,177886,37112,211893
33204,177895,37119,211922
33213,177894,37119,211928
33223,177897,37124,211914
33232,177873,37110,211911
33243,177893,37119,211913
33252,177892,37143,211921
33263,177904,37110,211905
33272,177896,37127,211931
33283,177899,37110,211914
33292,177909,37137,211933
33303,177913,37107,211906
33313,177906,37125,211943
33323,177872,37136,211943
33333,177896,37121,211931
33342,177890,37128,211939
33353,177912,37138,211926
33363,177900,37111,211929
33373,177905,37122,211933
33382,177891,37132,211897
33392,177898,37140,211915
33402,177904,37127,211925
33413,177891,37128,211922
33423,177882,37130,211926
33433,177903,37127,211914
33443,177882,37125,211913
33453,177894,37122,211943
33462,177900,37136,211936
33473,177906,37145,211910
33483,177898,37134,211941
33493,177896,37127,211932
33502,177886,37138,211924
33512,177911,37115,211919
33523,177907,37119,211922
33533,177907,37130,211942
33542,177898,37131,211917
33553,177910,37128,211945
33563,177900,37133,211920
33573,177915,37129,211943
33583,177899,37132,211942
33592,177916,37139,211930
33602,177910,37142,211898
33612,177918,37120,211916
33623,177893,37142,211909
33632,177928,37123,211927
33642,177916,37134,211903
33652,177907,37140,211934
33662,177929,37135,211901
33672,177913,37136,211923
33682,177936,37135,211908
33692,177902,37141,211932
33702,177922,37130,211917
33712,177902,37140,211939
33723,177910,37146,211941
33732,177915,37143,211946
33743,177897,37142,211932
33752,177917,37136,211935
33762,177914,37152,211915
33772,177909,37140,211911
33783,177912,37134,211937
33791,177904,37134,211911
33802,177926,37121,211934
33812,177911,37147,211931
33823,177922,37132,211934
33833,177927,37145,211936
33842,177910,37139,211924
33852,177919,37132,211926
33862,177922,37131,211929
33873,177925,37146,211915
33882,177917,37133,211917
33892,177917,37136,211918
33902,177908,37141,211941
33912,177927,37139,211937
33922,177896,37150,211946
33932,177921,37155,211919
33943,177919,37127,211927
33953,177921,37138,211913
33962,177904,37151,211939
33972,177919,37129,211929
33982,177908,37137,211919
33992,177923,37143,211929
34001,177926,37132,211937
34012,177915,37124,211926
34023,177929,37117,211930
34032,177927,37121,211908
34042,177920,37120,211915
34051,177935,37143,211912
34062,177916,37109,211908
34073,177909,37117,211905
34083,177917,37126,211884
34092,177890,37135,211924
34102,177919,37123,211907
34112,177905,37125,211921
34123,177915,37137,211920
34132,177903,37124,211910
34142,177923,37124,211898
34152,177902,37122,211923
34162,177914,37108,211923
34172,177896,37127,211894
34182,177898,37114,211897
34192,177904,37134,211893
34203,177900,37125,211901
34212,177901,37115,211893
34222,177900,37115,211904
34232,177879,37141,211891
34242,177908,37122,211895
34252,177895,37133,211918
34262,177894,37115,211893
34272,177907,37109,211910
34282,177897,37115,211894
34291,177897,37116,211885
34301,177892,37111,211896
34312,177905,37108,211885
34322,177877,37136,211873
34332,177888,37111,211896
34342,177891,37125,211891
34352,177913,37117,211859
34362,177895,37115,211895
34372,177919,37108,211900
34381,177924,37114,211884
34392,177893,37111,211911
34402,177896,37119,211897
34412,177878,37121,211896
34422,177884,37117,211917
34432,177894,37112,211882
34442,177912,37123,211886
34452,177906,37106,211895
34461,177900,37114,211889
34472,177896,37113,211893
34482,177892,37104,211891
34492,177903,37120,211869
34501,177918,37116,211914
34511,177908,37119,211891
34522,177907,37112,211894
34532,177906,37104,211907
34541,177905,37112,211908
34552,177908,37111,211896
34562,177916,37118,211903
34572,177905,37104,211903
34582,177898,37103,211876
34591,177910,37128,211903
34601,177881,37111,211898
34612,177895,37119,211883
34622,177893,37121,211893
34631,177912,37128,211864
34641,177893,37126,211871
34652,177894,37111,211873
34662,177919,37113,211870
34671,177884,37119,211892
34681,177900,37108,211881
34691,177903,37110,211874
34701,177901,37115,211895
34711,177901,37115,211893
34721,177895,37116,211887
34731,177885,37113,211896
34741,177898,37115,211892
34751,177901,37116,211888
34762,177882,37115,211898
34772,177914,37111,211887
34782,177898,37119,211855
34791,177884,37119,211890
34801,177899,37101,211902
34811,177893,37119,211874
34821,177889,37109,211864
34832,177904,37106,211874
34841,177898,37120,211874
34851,177879,37120,211878
34861,177916,37116,211890
34871,177907,37108,211866
34881,177907,37099,211868
34892,177892,37107,211872
34902,177895,37111,211841
34912,177871,37114,211878
34921,177866,37092,211866
34931,177911,37106,211861
34941,177902,37122,211886
34951,177900,37103,211869
34961,177870,37100,211901
34971,177885,37100,211887
34982,177904,37100,211870
34992,177887,37098,211871
35001,177873,37107,211886
35011,177886,37102,211876
35021,177903,37100,211880
35031,177895,37100,211851
35041,177909,37106,211873
35050,177873,37105,211839
35061,177897,37079,211863
35072,177882,37116,211877
35082,177880,37090,211845
35091,177887,37088,211872
35101,177907,37094,211857
35111,177883,37108,211871
35122,177865,37098,211876
35130,177887,37107,211860
35141,177887,37095,211870
35152,177872,37099,211847
35162,177876,37097,211851
35171,177886,37102,211867
35181,177884,37099,211846
35192,177878,37097,211859
35202,177891,37102,211836
35211,177851,37107,211858
35221,177879,37109,211830
35231,177860,37100,211872
35241,177867,37103,211860
35251,177859,37096,211857
35261,177832,37107,211865
35271,177880,37100,211864
35281,177868,37095,211857
35291,177870,37118,211872
35300,177884,37113,211860
35311,177888,37085,211870
35321,177870,37110,211862
35331,177883,37107,211870
35340,177865,37101,211859
35351,177875,37087,211851
35361,177869,37096,211841
35371,177863,37082,211852
35381,177866,37086,211871
35391,177886,37105,211843
35401,177848,37099,211862
35411,177873,37088,211881
35420,177836,37094,211854
35431,177865,37101,211874
35441,177882,37102,211858
35451,177866,37099,211863
35460,177864,37097,211836
35471,177854,37103,211845
35481,177862,37107,211866
35491,177875,37102,211862
35501,177859,37102,211855
35511,177865,37100,211830
35521,177893,37096,211817
35531,177836,37116,211849
35541,177842,37098,211854
35551,177874,37110,211864
35561,177831,37101,211857
35571,177858,37093,211858
35581,177878,37100,211834
35590,177859,37107,211851
35600,177860,37113,211856
35611,177884,37093,211838
35621,177872,37097,211798
35630,177853,37104,211852
35640,177856,37105,211855
35651,177875,37089,211844
35661,177864,37107,211856
35670,177871,37080,211866
35680,177868,37101,211831
35690,177875,37084,211846
35701,177880,37082,211837
35710,177855,37107,211840
35721,177873,37085,211822
35731,177870,37092,211815
35741,177866,37100,211801
35750,177868,37103,211831
35760,177889,37087,211809
35771,177855,37100,211819
35781,177883,37096,211836
35791,177876,37100,211827
35800,177851,37095,211832
35810,177847,37089,211834
35820,177864,37093,211857
35831,177872,37087,211844
35840,177860,37099,211837
35850,177855,37093,211854
35860,177840,37088,211826
35871,177875,37094,211824
35880,177847,37083,211826
35890,177853,37088,211840
35900,177868,37099,211811
35911,177861,37096,211830
35920,177859,37092,211834
35930,177846,37095,211817
35941,177829,37109,211814
35950,177858,37085,211821
35960,177848,37074,211838
35971,177835,37089,211804
35981,177841,37101,211812
35991,177833,37088,211834
36000,177818,37104,211835
36010,177855,37101,211810
36020,177856,37096,211812
36030,177860,37084,211814
36041,177838,37091,211829
36050,177845,37095,211819
36061,177836,37093,211801
36071,177849,37101,211831
36081,177820,37088,211821
36090,177851,37099,211811
36100,177835,37096,211841
36111,177846,37096,211834
36121,177821,37093,211827
36130,177842,37096,211837
36140,177844,37097,211818
36150,177831,37074,211832
36161,177849,37082,211811
36170,177830,37094,211809
36181,177873,37091,211834
36190,177848,37090,211831
36201,177869,37083,211831
36210,177839,37098,211792
36220,177834,37098,211830
36231,177845,37093,211830
36241,177837,37094,211813
36250,177844,37087,211818
36260,177828,37105,211802
36271,177851,37095,211837
36281,177842,37097,211822
36291,177833,37104,211826
36300,177851,37111,211820
36310,177855,37094,211806
36320,177846,37091,211842
36330,177828,37112,211841
36339,177802,37111,211809
36350,177838,37103,211832
36360,177804,37099,211831
36370,177827,37105,211824
36379,177837,37111,211831
36390,177856,37092,211851
36400,177824,37104,211840
36410,177854,37117,211844
36419,177841,37113,211848
36429,177854,37102,211837
36440,177849,37092,211849
36450,177865,37100,211863
36460,177849,37107,211843
36470,177848,37111,211854
36480,177843,37118,211851
36490,177856,37125,211855
36500,177872,37103,211848
36510,177877,37116,211832
36520,177863,37114,211866
36530,177869,37130,211868
36541,177869,37111,211851
36550,177873,37115,211825
36560,177870,37111,211844
36570,177860,37107,211859
36580,177890,37120,211824
36590,177868,37110,211854
36600,177882,37124,211852
36610,177888,37124,211844
36620,177826,37119,211865
36629,177860,37123,211874
36639,177849,37129,211870
36650,177876,37124,211885
36660,177883,37122,211876
36670,177895,37113,211876
36680,177858,37118,211856
36690,177836,37126,211871
36700,177876,37111,211887
36710,177878,37112,211876
36720,177894,37132,211861
36730,177879,37121,211860
36740,177893,37129,211864
36750,177892,37124,211846
36759,177872,37127,211866
36770,177894,37121,211858
36780,177890,37119,211875
36790,177893,37092,211880
36800,177895,37114,211873
36810,177882,37137,211900
36820,177859,37127,211864
36830,177858,37148,211894
36840,177881,37128,211864
36850,177894,37148,211893
36860,177888,37140,211887
36870,177900,37127,211887
36879,177917,37142,211879
36890,177873,37145,211886
36900,177899,37133,211901
36910,177871,37136,211893
36919,177873,37137,211880
36929,177894,37123,211896
36940,177903,37128,211905
36950,177877,37124,211892
36960,177873,37134,211902
36970,177892,37141,211874
36980,177891,37139,211910
36990,177883,37131,211903
37000,177916,37142,211897
37010,177906,37118,211899
37020,177919,37143,211894
37030,177900,37138,211899
37040,177906,37134,211888
37049,177896,37143,211896
37059,177885,37143,211896
37069,177920,37141,211891
37080,177911,37140,211901
37089,177898,37151,211883
37100,177918,37142,211923
37110,177904,37143,211912
37120,177920,37161,211877
37130,177880,37149,211918
37140,177909,37141,211879
37150,177905,37156,211901
37160,177896,37151,211912
37169,177899,37151,211901
37179,177910,37137,211920
37189,177912,37155,211911
37200,177905,37138,211926
37209,177911,37148,211887
37219,177920,37154,211908
37230,177914,37162,211907
37240,177905,37155,211917
37250,177924,37146,211917
37259,177913,37140,211922
37269,177901,37168,211892
37279,177899,37155,211900
37290,177910,37154,211905
37299,177936,37171,211952
37309,177919,37153,211910
37320,177913,37166,211907
37330,177918,37147,211907
37339,177912,37157,211912
37349,177935,37137,211900
37359,177904,37143,211884
37370,177939,37162,211911
37379,177935,37144,211883
37389,177931,37150,211924
37399,177915,37150,211881
37409,177928,37152,211903
37418,177941,37154,211924
37429,177926,37154,211906
37439,177949,37150,211871
37449,177912,37160,211889
37459,177914,37161,211911
37469,177919,37157,211884
37479,177924,37151,211864
37490,177926,37146,211906
37500,177930,37150,211905
37509,177921,37150,211905
37519,177925,37150,211901
37529,177922,37144,211875
37539,177914,37149,211917
37549,177920,37145,211909
37559,177930,37157,211881
37569,177913,37149,211898
37580,177917,37134,211886
37589,177926,37145,211902
37599,177935,37142,211906
37609,177921,37147,211898
37619,177939,37163,211884
37629,177927,37148,211873
37639,177910,37144,211848
37649,177921,37152,211883
37659,177923,37140,211847
37669,177912,37148,211905
37679,177925,37147,211917
37689,177904,37154,211902
37700,177918,37152,211920
37708,177919,37151,211889
37719,177907,37136,211887
37729,177913,37145,211891
37740,177910,37152,211902
37749,177927,37149,211887
37759,177894,37154,211894
37769,177910,37151,211886
37780,177914,37141,211878
37789,177915,37136,211872
37798,177915,37148,211906
37809,177911,37138,211877
37819,177917,37149,211884
37829,177911,37133,211893
37839,177888,37136,211857
37849,177903,37149,211901
37859,177912,37151,211875
37870,177905,37150,211889
37879,177894,37153,211878
37889,177912,37134,211869
37899,177923,37151,211877
37910,177913,37133,211875
37919,177895,37140,211901
37929,177901,37145,211873
37939,177923,37135,211875
37949,177900,37136,211890
37958,177892,37152,211856
37968,177903,37147,211910
37979,177916,37132,211887
37989,177915,37146,211883
37999,177922,37149,211884
38009,177898,37152,211885
38019,177912,37148,211897
38029,177911,37146,211882
38039,177902,37144,211831
38048,177906,37137,211897
38059,177900,37142,211892
38068,177916,37159,211869
38079,177881,37117,211827
38089,177926,37152,211893
38099,177908,37148,211891
38109,177896,37151,211896
38119,177913,37149,211867
38128,177902,37155,211863
38138,177892,37147,211883
38148,177890,37138,211870
38159,177893,37150,211884
38168,177897,37139,211865
38179,177875,37130,211872
38189,177906,37148,211859
38199,177887,37135,211844
38209,177900,37143,211869
38219,177910,37155,211869
38229,177915,37127,211884
38239,177914,37143,211871
38249,177892,37133,211861
38258,177903,37141,211838
38269,177883,37141,211879
38279,177892,37122,211872
38289,177877,37135,211866
38298,177899,37133,211832
38309,177895,37149,211865
38319,177905,37137,211865
38329,177890,37142,211851
38338,177915,37125,211855
38348,177889,37133,211871
38358,177898,37128,211874
38369,177915,37120,211848
38378,177890,37139,211869
38388,177885,37136,211857
38399,177894,37146,211843
38408,177896,37138,211855
38418,177869,37105,211874
38428,177888,37131,211849
38439,177869,37112,211845
38449,177887,37136,211845
38458,177864,37143,211863
38468,177862,37132,211852
38478,177883,37125,211837
38489,177870,37132,211848
38499,177887,37118,211851
38508,177855,37134,211869
38518,177879,37118,211860
38528,177868,37125,211867
38538,177878,37110,211870
38548,177876,37109,211861
38558,177891,37143,211880
38568,177868,37136,211848
38578,177879,37125,211854
38589,177870,37119,211851
38599,177870,37128,211818
38608,177887,37116,211866
38619,177883,37118,211870
38628,177871,37121,211864
38638,177885,37127,211847
38648,177880,37118,211851
38658,177870,37118,211836
38668,177867,37123,211852
38678,177859,37127,211870
38688,177883,37123,211849
38698,177877,37130,211853
38708,177862,37108,211857
38718,177879,37141,211828
38728,177855,37119,211865
38739,177880,37107,211832
38749,177885,37116,211836
38758,177874,37129,211858
38768,177843,37125,211860
38778,177856,37122,211854
38789,177880,37120,211860
38798,177877,37097,211877
38808,177868,37121,211849
38818,177847,37125,211857
38828,177854,37115,211871
38838,177857,37108,211841
38849,177881,37110,211844
38859,177875,37114,211864
38869,177874,37120,211854
38878,177870,37112,211857
38888,177856,37117,211860
38898,177862,37141,211837
38909,177871,37109,211860
38918,177867,37089,211849
38928,177867,37120,211844
38938,177875,37075,211879
38948,177869,37111,211843
38958,177861,37106,211845
38968,177859,37118,211843
38978,177872,37109,211874
38988,177850,37114,211861
38998,177864,37096,211839
39007,177850,37105,211852
39018,177848,37122,211827
39028,177851,37111,211847
39038,177863,37114,211824
39048,177847,37113,211847
39058,177860,37112,211808
39068,177845,37128,211851
39078,177852,37140,211845
39087,177846,37104,211851
39098,177854,37104,211832
39107,177845,37106,211817
39118,177812,37129,211845
39128,177850,37110,211846
39138,177861,37116,211835
39148,177798,37112,211836
39158,177842,37099,211811
39167,177850,37101,211826
39177,177837,37113,211828
39188,177835,37106,211824
39198,177848,37129,211835
39208,177838,37113,211813
39217,177836,37118,211837
39228,177821,37112,211848
39238,177831,37120,211841
39248,177830,37094,211817
39257,177839,37119,211841
39267,177838,37106,211838
39278,177834,37096,211830
39289,177843,37100,211812
39298,177822,37102,211824
39308,177817,37100,211808
39318,177819,37096,211819
39328,177821,37097,211815
39337,177830,37102,211829
39348,177819,37095,211826
39358,177829,37122,211818
39368,177813,37103,211815
39377,177819,37094,211821
39387,177812,37097,211829
39397,177830,37070,211825
39407,177809,37081,211816
39417,177810,37081,211819
39428,177817,37083,211824
39438,177819,37094,211817
39448,177797,37104,211803
39458,177813,37056,211808
39468,177817,37085,211818
39478,177798,37079,211811
39488,177823,37077,211803
39498,177812,37105,211809
39507,177826,37078,211824
39517,177808,37101,211794
39528,177807,37094,211814
39538,177821,37069,211821
39547,177808,37097,211818
39558,177806,37058,211823
39568,177811,37103,211794
39578,177816,37104,211829
39587,177795,37090,211804
39597,177801,37086,211800
39607,177798,37107,211804
39617,177810,37089,211813
39627,177819,37076,211826
39637,177816,37078,211802
39648,177806,37082,211824
39658,177827,37093,211799
39667,177812,37080,211830
39677,177812,37070,211820
39687,177814,37094,211818
39697,177816,37100,211820
39708,177804,37087,211824
39717,177819,37081,211822
39727,177806,37090,211814
39737,177823,37086,211817
39747,177818,37071,211804
39757,177813,37108,211794
39768,177808,37114,211776
39778,177786,37098,211816
39788,177824,37093,211794
39797,177797,37096,211816
39808,177803,37102,211775
39818,177792,37111,211818
39828,177810,37101,211784
39837,177793,37111,211819
39848,177805,37114,211802
39858,177777,37109,211812
39868,177822,37105,211820
39877,177788,37109,211833
39887,177813,37105,211822
39897,177802,37112,211846
39908,177807,37107,211814
39917,177812,37100,211842
39927,177818,37110,211812
39937,177817,37104,211830
39948,177813,37093,211825
39958,177802,37111,211800
39967,177828,37107,211811
39977,177815,37120,211823
39987,177815,37118,211822
39997,177806,37120,211809
40007,177833,37112,211828
40017,177823,37130,211833
40028,177811,37103,211848
40037,177837,37113,211819
40047,177820,37093,211840
40057,177814,37118,211810
40068,177833,37113,211844
40078,177833,37108,211860
40087,177804,37113,211849
40097,177839,37122,211825
40107,177803,37115,211833
40117,177831,37121,211813
40126,177828,37124,211824
40136,177828,37136,211842
40147,177823,37127,211844
40158,177834,37129,211859
40167,177830,37115,211851
40177,177816,37114,211870
40187,177830,37118,211859
40197,177832,37125,211859
40207,177838,37126,211872
40217,177842,37130,211855
40227,177851,37130,211883
40237,177828,37131,211867
40248,177838,37127,211845
40257,177839,37122,211857
40267,177849,37116,211859
40277,177832,37111,211867
40288,177842,37120,211878
40297,177854,37135,211877
40307,177854,37133,211879
40317,177819,37137,211879
40327,177832,37137,211885
40336,177853,37144,211871
40346,177862,37125,211892
40357,177867,37130,211871
40367,177854,37137,211881
40376,177856,37131,211885
40386,177854,37145,211880
40397,177858,37125,211880
40407,177855,37130,211896
40416,177862,37130,211887
40427,177856,37144,211894
40437,177855,37152,211888
40447,177863,37144,211894
40457,177878,37156,211909
40467,177856,37141,211874
40477,177875,37143,211888
40487,177882,37148,211884
40497,177852,37155,211912
40507,177862,37150,211888
40517,177863,37135,211899
40527,177858,37155,211914
40537,177861,37159,211889
40546,177885,37150,211901
40556,177880,37151,211891
40567,177869,37157,211906
40576,177868,37157,211910
40587,177895,37159,211908
40597,177879,37150,211904
40607,177886,37161,211908
40617,177894,37158,211904
40626,177885,37156,211914
40636,177871,37168,211916
40647,177890,37167,211918
40657,177901,37162,211898
40667,177888,37174,211923
40676,177904,37162,211910
40687,177894,37152,211919
40697,177892,37171,211895
40707,177893,37166,211917
40716,177889,37166,211925
40726,177909,37177,211875
40737,177898,37174,211919
40747,177908,37165,211897
40756,177894,37175,211909
40766,177891,37169,211911
40776,177901,37172,211893
40788,177909,37162,211899
40796,177905,37175,211915
40807,177906,37164,211915
40817,177920,37176,211929
40827,177887,37157,211915
40836,177910,37173,211891
40847,177889,37159,211931
40857,177899,37162,211906
40867,177921,37171,211901
40876,177883,37169,211916
40886,177897,37172,211909
40896,177910,37163,211916
40907,177910,37160,211926
40916,177916,37183,211902
40926,177905,37170,211907
40936,177919,37178,211907
40946,177915,37167,211912
40956,177930,37175,211912
40966,177914,37155,211902
40977,177926,37168,211914
40987,177899,37164,211915
40997,177918,37159,211914
41006,177895,37171,211898
41016,177917,37175,211905
41026,177918,37164,211900
41037,177902,37163,211900
41046,177921,37164,211902
41056,177911,37170,211920
41066,177924,37165,211904
41077,177914,37175,211897
41086,177920,37176,211928
41096,177927,37175,211934
41106,177926,37182,211924
41116,177924,37143,211914
41126,177903,37156,211895
41136,177912,37176,211920
41146,177913,37172,211909
41156,177905,37172,211907
41166,177931,37163,211907
41176,177903,37168,211895
41186,177909,37174,211915
41196,177913,37145,211895
41206,177918,37158,211921
41215,177928,37156,211899
41226,177916,37162,211910
41236,177915,37168,211892
41246,177911,37160,211902
41256,177893,37160,211900
41266,177909,37168,211922
41276,177924,37159,211913
41287,177914,37164,211924
41296,177904,37166,211862
41306,177915,37172,211876
41316,177891,37185,211905
41326,177912,37180,211900
41335,177899,37167,211903
41346,177909,37178,211911
41356,177905,37180,211890
41366,177917,37170,211911
41375,177900,37171,211918
41385,177904,37182,211894
41396,177907,37173,211920
41406,177906,37173,211894
41416,177931,37159,211926
41426,177915,37165,211915
41436,177912,37176,211873
41446,177909,37176,211912
41456,177920,37162,211890
41465,177925,37177,211897
41476,177911,37169,211918
41487,177904,37157,211897
41497,177899,37169,211917
41506,177902,37172,211900
41516,177899,37171,211914
41526,177890,37169,211882
41536,177932,37168,211888
41545,177922,37163,211890
41555,177904,37149,211888
41566,177917,37155,211887
41576,177921,37159,211900
41585,177904,37180,211883
41596,177913,37167,211896
41606,177910,37163,211889
41616,177899,37159,211908
41626,177914,37141,211891
41636,177912,37161,211859
41646,177902,37157,211894
41656,177904,37145,211871
41666,177911,37160,211883
41675,177906,37151,211867
41685,177913,37160,211868
41696,177889,37166,211883
41706,177901,37163,211895
41715,177904,37143,211885
41725,177883,37164,211874
41735,177886,37146,211885
41746,177921,37152,211882
41756,177903,37165,211855
41766,177895,37161,211875
41776,177893,37150,211892
41786,177875,37164,211882
41795,177888,37158,211879
41805,177903,37157,211890
41815,177898,37161,211892
41825,177886,37162,211868
41835,177891,37146,211885
41845,177898,37152,211891
41855,177911,37133,211870
41865,177895,37151,211894
41875,177877,37138,211883
41885,177886,37157,211865
41895,177893,37135,211872
41905,177880,37153,211873
41916,177884,37132,211891
41925,177887,37135,211864
41935,177891,37138,211889
41945,177903,37149,211852
41956,177868,37147,211881
41965,177902,37142,211846
41975,177883,37150,211871
41985,177890,37158,211874
41996,177871,37147,211876
42005,177893,37155,211873
42015,177882,37155,211898
42025,177903,37151,211869
42035,177870,37163,211897
42045,177911,37135,211880
42055,177889,37148,211861
42066,177875,37150,211880
42076,177908,37154,211866
42085,177901,37155,211886
42095,177893,37156,211888
42105,177901,37133,211893
42116,177909,37155,211883
42125,177899,37141,211874
42135,177906,37162,211876
42145,177895,37144,211896
42155,177894,37130,211863
42166,177870,37157,211879
42175,177889,37157,211873
42185,177905,37127,211870
42196,177896,37154,211872
42206,177889,37141,211882
42215,177881,37145,211878
42225,177879,37140,211886
42235,177893,37151,211864
42245,177856,37161,211866
42255,177879,37163,211861
42265,177864,37168,211878
42275,177889,37141,211865
42285,177878,37151,211866
42295,177902,37140,211852
42308,177889,37159,211850
42315,177900,37132,211860
42325,177873,37145,211839
42335,177885,37129,211850
42345,177874,37148,211855
42355,177882,37137,211850
42365,177872,37144,211851
42375,177899,37136,211864
42385,177908,37130,211865
42395,177883,37144,211834
42405,177879,37133,211856
42416,177900,37130,211855
42425,177875,37140,211831
42435,177869,37130,211861
42445,177879,37130,211855
42456,177876,37131,211841
42465,177864,37135,211861
42475,177878,37135,211835
42485,177873,37137,211868
42495,177877,37130,211880
42504,177870,37131,211844
42515,177878,37125,211835
42525,177881,37142,211846
42535,177870,37129,211865
42544,177865,37138,211862
42555,177880,37138,211852
42565,177879,37100,211842
42575,177868,37122,211873
42584,177853,37125,211856
42595,177863,37136,211843
42605,177853,37129,211847
42615,177867,37133,211855
42625,177861,37136,211856
42635,177850,37113,211847
42645,177859,37124,211841
42655,177872,37129,211824
42665,177859,37137,211842
42675,177877,37140,211858
42685,177878,37113,211852
42695,177865,37115,211840
42705,177847,37131,211852
42714,177865,37132,211862
42724,177876,37113,211857
42735,177864,37143,211836
42745,177863,37125,211857
42755,177872,37119,211853
42765,177871,37133,211850
42775,177867,37131,211851
42785,177857,37123,211846
42795,177868,37128,211847
42805,177866,37131,211847
42815,177834,37136,211855
42825,177841,37145,211835
42835,177854,37127,211840
42845,177862,37120,211871
42855,177852,37124,211863
42865,177834,37130,211842
42875,177839,37128,211824
42885,177869,37124,211833
42895,177852,37131,211866
42905,177865,37130,211859
42915,177845,37124,211843
42925,177857,37102,211836
42935,177850,37138,211841
42945,177859,37135,211843
42955,177842,37118,211822
42964,177830,37124,211841
42974,177843,37126,211855
42984,177847,37122,211840
42994,177853,37121,211852
43004,177846,37114,211842
43015,177839,37133,211830