timestamp,red,green,ir
2132,193250,40557,214951
2143,193221,40559,214947
2153,193243,40562,214947
2163,193243,40557,214951
2171,193256,40544,214946
2182,193248,40542,214954
2192,193253,40560,214965
2203,193231,40556,214971
2211,193257,40564,214961
2222,193242,40541,214954
2233,193237,40545,214978
2243,193236,40555,215013
2252,193234,40551,214998
2262,193243,40557,214988
2272,193245,40536,214994
2282,193236,40548,214952
2292,193225,40566,214984
2302,193214,40564,214960
2312,193237,40527,214972
2322,193236,40542,214934
2332,193209,40558,214956
2351,193206,40543,214932
2353,193228,40555,214935
2362,193235,40534,214933
2372,193232,40550,214925
2382,193214,40536,214911
2392,193217,40544,214901
2402,193207,40549,214953
2413,193215,40553,214963
2422,193210,40546,214976
2432,193197,40529,214994
2442,193193,40544,215007
2453,193193,40520,215020
2462,193192,40541,215021
2472,193197,40514,215027
2482,193185,40535,215032
2493,193196,40536,215045
2502,193199,40539,215033
2512,193193,40538,215032
2522,193202,40542,215030
2532,193189,40544,215022
2541,193221,40553,215010
2552,193211,40551,215034
2562,193225,40547,215020
2573,193199,40552,215042
2583,193232,40524,215060
2592,193184,40549,215064
2602,193215,40537,215066
2612,193195,40541,215101
2622,193221,40527,215068
2631,193230,40528,215103
2642,193230,40529,215076
2652,193215,40531,215094
2662,193233,40535,215058
2671,193216,40522,215056
2681,193196,40511,215028
2692,193219,40510,215040
2702,193242,40512,214977
2711,193197,40523,215039
2721,193195,40515,214994
2732,193228,40497,215003
2742,193202,40530,214993
2751,193206,40508,214993
2762,193197,40515,214983
2772,193213,40524,214960
2782,193200,40516,215015
2791,193208,40504,215019
2801,193217,40527,215041
2812,193215,40517,215026
2822,193220,40531,215009
2832,193211,40520,215021
2841,193213,40522,215034
2851,193202,40494,215027
2861,193193,40514,215065
2872,193197,40499,215034
2881,193209,40521,215026
2892,193201,40513,215038
2902,193193,40518,215027
2912,193182,40516,215031
2921,193180,40518,215013
2931,193197,40521,215033
2941,193180,40532,215035
2952,193193,40500,215019
2961,193179,40507,215015
2971,193187,40504,215014
2981,193187,40500,215054
2992,193165,40496,215022
3001,193190,40526,215042
3011,193181,40522,215030
3021,193211,40523,215087
3032,193184,40517,215056
3041,193198,40510,215094
3051,193188,40518,215077
3062,193202,40523,215065
3071,193195,40504,215073
3082,193190,40496,215094
3092,193200,40523,215069
3102,193209,40522,215096
3112,193209,40513,215068
3122,193208,40512,215075
3131,193197,40515,215073
3141,193215,40520,215077
3152,193217,40511,215045
3162,193212,40506,215051
3171,193203,40511,215066
3181,193214,40501,214999
3191,193211,40510,215052
3202,193221,40519,215062
3211,193206,40516,215067
3222,193196,40504,215021
3231,193201,40522,215059
3242,193213,40508,215030
3251,193220,40504,215027
3261,193210,40506,215087
3272,193205,40532,215077
3282,193208,40522,215103
3291,193200,40525,215079
3301,193215,40531,215080
3311,193221,40529,215092
3321,193217,40545,215096
3331,193215,40515,215104
3340,193227,40514,215092
3351,193246,40517,215110
3362,193243,40533,215081
3371,193235,40525,215083
3381,193247,40527,215107
3391,193249,40518,215107
3402,193249,40495,215099
3412,193250,40517,215072
3421,193265,40519,215086
3431,193237,40519,215081
3441,193248,40508,215045
3452,193257,40506,215076
3461,193232,40514,215074
3471,193242,40515,215086
3481,193244,40517,215029
3492,193250,40515,215075
3501,193257,40507,215072
3511,193242,40518,215094
3521,193239,40514,215078
3532,193240,40513,215092
3541,193252,40518,215112
3551,193208,40515,215105
3561,193239,40530,215105
3571,193245,40513,215111
3581,193242,40503,215090
3591,193252,40506,215110
3601,193251,40510,215107
3611,193246,40519,215074
3621,193238,40533,215076
3630,193218,40507,215073
3640,193247,40517,215053
3651,193238,40496,215070
3661,193223,40507,215052
3670,193251,40504,215056
3681,193210,40507,215018
3691,193210,40495,215018
3701,193218,40515,215050
3821,193244,40517,215099
3830,193243,40516,215079
3833,193239,40518,215071
3840,193245,40504,215103
3851,193242,40519,215093
3861,193225,40533,215137
3871,193258,40514,215118
3880,193215,40514,215120
3890,193243,40505,215126
3900,193235,40511,215112
3911,193273,40512,215064
3920,193252,40507,215074
3931,193252,40511,215077
3941,193251,40524,215088
3951,193248,40538,215051
3960,193253,40520,215020
3970,193273,40526,215060
3980,193248,40539,215124
3991,193255,40510,215119
4001,193233,40509,215127
4011,193255,40520,215138
4021,193238,40506,215154
4031,193240,40516,215169
4041,193250,40527,215141
4050,193259,40530,215133
4060,193256,40532,215142
4071,193278,40515,215119
4081,193271,40514,215096
4090,193255,40528,215095
4100,193270,40539,215072
4111,193255,40517,215102
4121,193252,40533,215087
4130,193249,40524,215100
4140,193262,40518,215078
4151,193247,40516,215092
4161,193265,40529,215100
4170,193254,40523,215125
4180,193263,40517,215130
4191,193267,40529,215144
4201,193284,40537,215104
4210,193277,40514,215136
4220,193279,40505,215127
4231,193284,40504,215140
4241,193298,40518,215101
4250,193298,40518,215153
4260,193295,40502,215158
4270,193279,40507,215153
4280,193276,40525,215123
4291,193287,40521,215125
4300,193276,40526,215148
4310,193276,40527,215138
4320,193293,40501,215158
4330,193287,40501,215137
4340,193288,40504,215155
4351,193287,40523,215153
4361,193267,40520,215163
4370,193289,40511,215130
4380,193259,40509,215165
4391,193276,40512,215134
4401,193260,40534,215157
4411,193285,40509,215161
4420,193285,40517,215152
4430,193289,40496,215159
4440,193288,40504,215185
4450,193290,40507,215183
4460,193298,40510,215180
4470,193284,40518,215153
4480,193260,40520,215180
4491,193281,40502,215178
4500,193282,40519,215181
4510,193270,40507,215162
4520,193287,40514,215149
4531,193274,40495,215149
4541,193273,40520,215148
4550,193277,40495,215153
4560,193278,40501,215152
4570,193258,40514,215162
4580,193281,40508,215144
4590,193262,40521,215155
4600,193268,40520,215163
4610,193273,40520,215182
4621,193282,40502,215166
4630,193288,40509,215159
4640,193261,40513,215170
4651,193254,40506,215205
4661,193282,40502,215182
4670,193257,40523,215184
4680,193268,40501,215190
4691,193280,40515,215187
4701,193273,40497,215163
4710,193276,40520,215182
4720,193281,40516,215172
4730,193288,40531,215190
4740,193272,40499,215138
4750,193287,40523,215149
4759,193254,40544,215154
4770,193290,40507,215167
4780,193282,40510,215149
4791,193269,40509,215195
4800,193276,40511,215157
4810,193285,40519,215185
4820,193287,40504,215164
4830,193281,40514,215178
4839,193274,40518,215178
4850,193269,40522,215136
4860,193265,40517,215174
4870,193287,40523,215181
4880,193292,40506,215166
4890,193290,40522,215164
4900,193288,40516,215201
4910,193258,40532,215170
4919,193284,40516,215154
4930,193281,40519,215167
4940,193291,40524,215196
4950,193290,40527,215181
4959,193268,40522,215186
4969,193293,40516,215167
4979,193302,40516,215167
4991,193300,40509,215159
5000,193298,40520,215196
5010,193302,40509,215177
5019,193301,40502,215188
5031,193293,40496,215187
5041,193291,40515,215196
5050,193284,40507,215167
5059,193295,40506,215201
5070,193303,40495,215180
5080,193281,40521,215200
5090,193287,40508,215191
5100,193282,40509,215206
5110,193300,40503,215188
5120,193309,40510,215217
5129,193315,40511,215219
5139,193298,40512,215197
5149,193306,40495,215202
5160,193272,40512,215158
5170,193300,40517,215196
5180,193255,40510,215204
5190,193278,40503,215209
5200,193289,40518,215188
5209,193282,40510,215196
5219,193282,40510,215178
5229,193285,40507,215196
5239,193274,40510,215204
5250,193294,40503,215212
5260,193294,40512,215210
5270,193294,40505,215207
5280,193296,40505,215216
5290,193280,40521,215196
5299,193299,40514,215199
5310,193285,40496,215192
5320,193287,40501,215202
5330,193294,40501,215181
5339,193272,40508,215202
5349,193292,40491,215197
5360,193306,40495,215179
5370,193293,40508,215172
5379,193292,40499,215185
5389,193278,40504,215192
5399,193288,40493,215202
5410,193288,40506,215176
5419,193280,40491,215171
5430,193265,40501,215203
5440,193285,40504,215163
5450,193282,40505,215172
5459,193263,40493,215175
5469,193282,40499,215188
5479,193288,40482,215183
5489,193277,40503,215176
5499,193267,40504,215181
5510,193275,40500,215197
5520,193285,40502,215202
5530,193276,40509,215172
5540,193286,40493,215190
5549,193284,40491,215200
5559,193268,40495,215194
5569,193285,40496,215192
5580,193288,40498,215178
5589,193272,40502,215175
5599,193262,40483,215172
5609,193266,40485,215160
5620,193275,40512,215171
5629,193267,40510,215157
5639,193262,40502,215201
5649,193258,40497,215180
5659,193255,40500,215185
5669,193263,40495,215184
5679,193269,40498,215159
5689,193270,40492,215185
5699,193262,40511,215169
5709,193267,40508,215150
5719,193255,40504,215172
5729,193267,40501,215161
5740,193288,40500,215163
5750,193269,40503,215171
5759,193258,40501,215182
5769,193256,40507,215190
5779,193262,40499,215186
5789,193263,40497,215182
5799,193266,40501,215151
5809,193255,40513,215153
5819,193265,40501,215153
5829,193253,40511,215154
5839,193268,40487,215151
5849,193280,40505,215128
5859,193266,40491,215146
5869,193266,40496,215143
5878,193264,40479,215161
5890,193243,40505,215168
5900,193268,40500,215162
5910,193271,40503,215169
5919,193242,40500,215170
5929,193257,40488,215172
5939,193261,40495,215160
5950,193255,40504,215198
5959,193247,40489,215187
5969,193271,40502,215156
5979,193247,40506,215154
5989,193266,40500,215164
5999,193253,40507,215144
6009,193254,40510,215178
6019,193265,40503,215164
6029,193265,40506,215170
6039,193253,40508,215178
6049,193253,40503,215171
6059,193256,40511,215174
6069,193261,40504,215172
6079,193268,40509,215186
6088,193255,40498,215179
6098,193248,40516,215171
6109,193264,40499,215174
6120,193244,40516,215159
6129,193245,40504,215154
6139,193256,40509,215150
6149,193252,40511,215151
6159,193263,40492,215142
6169,193257,40496,215145
6179,193263,40508,215159
6189,193217,40522,215146
6199,193259,40518,215138
6208,193258,40521,215144
6218,193252,40514,215146
6229,193249,40506,215154
6239,193262,40532,215108
6249,193258,40516,215141
6258,193247,40510,215153
6269,193252,40529,215141
6279,193243,40524,215155
6290,193246,40527,215157
6299,193261,40511,215153
6309,193262,40530,215145
6319,193269,40509,215159
6329,193266,40513,215145
6338,193272,40515,215149
6349,193258,40501,215172
6359,193267,40525,215168
6369,193238,40519,215163
6378,193258,40545,215170
6388,193269,40525,215183
6399,193269,40524,215159
6409,193263,40526,215167
6418,193274,40519,215174
6428,193269,40509,215160
6439,193259,40526,215173
6449,193261,40532,215180
6458,193262,40517,215167
6469,193275,40509,215152
6479,193271,40523,215165
6489,193258,40525,215176
6499,193265,40510,215192
6508,193264,40519,215153
6518,193266,40513,215186
6529,193285,40509,215188
6539,193271,40523,215188
6548,193252,40535,215197
6558,193265,40527,215163
6568,193272,40536,215189
6579,193249,40536,215195
6588,193279,40524,215209
6598,193281,40527,215175
6609,193269,40523,215186
6619,193258,40526,215169
6628,193259,40523,215183
6638,193274,40536,215185
6648,193271,40541,215188
6659,193283,40531,215191
6668,193273,40527,215219
6678,193291,40534,215182
6689,193280,40533,215193
6699,193273,40523,215180
6708,193275,40526,215208
6718,193272,40525,215222
6728,193278,40527,215214
6739,193273,40521,215205
6749,193268,40520,215209
6758,193271,40527,215217
6768,193270,40530,215204
6779,193276,40531,215217
6789,193293,40520,215210
6798,193265,40560,215211
6808,193282,40517,215215
6818,193287,40522,215228
6828,193273,40532,215210
6838,193289,40530,215217
6849,193281,40533,215228
6859,193278,40530,215201
6869,193286,40542,215247
6878,193286,40516,215242
6888,193299,40531,215224
6898,193286,40537,215235
6908,193276,40536,215227
6918,193283,40530,215244
6929,193274,40534,215244
6939,193289,40550,215222
6949,193291,40533,215221
6958,193296,40536,215235
6968,193288,40545,215225
6978,193286,40542,215256
6988,193287,40546,215197
6998,193280,40540,215239
7009,193286,40538,215249
7018,193300,40543,215229
7029,193311,40527,215262
7039,193277,40546,215254
7048,193286,40554,215243
7058,193286,40550,215251
7068,193303,40545,215251
7078,193296,40547,215261
7087,193300,40544,215236
7098,193301,40527,215256
7108,193300,40549,215265
7118,193298,40542,215253
7127,193300,40548,215267
7138,193306,40530,215245
7148,193283,40548,215253
7158,193295,40529,215254
7167,193308,40554,215266
7178,193310,40533,215245
7188,193300,40558,215241
7198,193309,40535,215234
7208,193306,40556,215235
7217,193311,40539,215237
7228,193300,40549,215242
7239,193294,40564,215240
7249,193290,40561,215241
7258,193284,40548,215229
7268,193282,40557,215232
7278,193303,40560,215231
7288,193306,40557,215232
7298,193288,40570,215240
7308,193300,40567,215222
7318,193290,40575,215236
7328,193289,40552,215225
7337,193304,40564,215229
7347,193309,40563,215231
7358,193298,40555,215225
7369,193298,40563,215236
7378,193289,40566,215237
7388,193287,40572,215248
7398,193329,40557,215242
7408,193303,40553,215241
7417,193310,40565,215242
7428,193315,40550,215230
7438,193315,40565,215244
7448,193304,40554,215222
7458,193295,40546,215226
7467,193298,40563,215209
7478,193299,40559,215229
7488,193288,40540,215225
7498,193313,40560,215238
7507,193318,40560,215220
7518,193318,40548,215250
7528,193303,40552,215226
7538,193299,40547,215234
7548,193319,40549,215231
7558,193312,40564,215264
7568,193298,40556,215248
7578,193296,40565,215253
7587,193285,40554,215252
7598,193297,40561,215240
7608,193288,40561,215254
7618,193304,40555,215244
7627,193291,40558,215232
7638,193294,40552,215234
7648,193303,40563,215240
7658,193314,40559,215239
7667,193297,40560,215239
7678,193301,40551,215241
7688,193296,40550,215230
7698,193287,40546,215233
7708,193273,40550,215231
7717,193284,40556,215242
7727,193289,40551,215234
7738,193293,40564,215263
7748,193306,40569,215207
7757,193284,40539,215232
7767,193289,40562,215234
7778,193274,40546,215248
7788,193298,40557,215221
7797,193267,40570,215234
7807,193284,40544,215238
7818,193289,40547,215209
7828,193283,40546,215224
7837,193283,40543,215249
7847,193277,40551,215246
7857,193285,40567,215233
7867,193282,40550,215222
7877,193281,40532,215236
7887,193262,40555,215241
7897,193284,40571,215250
7907,193290,40568,215211
7917,193280,40551,215242
7927,193287,40552,215258
7937,193292,40549,215251
7947,193284,40552,215238
7958,193271,40555,215250
7967,193287,40563,215250
7977,193258,40566,215257
7987,193269,40557,215245
7998,193285,40559,215253
8007,193279,40558,215250
8017,193281,40550,215260
8027,193263,40562,215236
8038,193268,40560,215254
8047,193251,40555,215262
8058,193293,40559,215230
8068,193288,40570,215237
8077,193264,40560,215242
8087,193268,40550,215232
8098,193268,40548,215224
8108,193294,40561,215236
8118,193261,40567,215255
8127,193303,40546,215235
8137,193265,40558,215255
8147,193261,40560,215258
8158,193294,40552,215224
8167,193252,40557,215231
8177,193271,40565,215247
8187,193271,40541,215250
8197,193279,40556,215209
8207,193276,40557,215219
8217,193271,40542,215250
8228,193274,40538,215247
8238,193281,40561,215235
8248,193268,40549,215255
8256,193251,40562,215226
8267,193271,40534,215240
8278,193271,40558,215239
8288,193295,40552,215239
8296,193268,40562,215247
8307,193283,40540,215240
8318,193263,40543,215235
8328,193280,40555,215220
8336,193251,40550,215230
8347,193261,40535,215240
8358,193265,40546,215213
8368,193250,40545,215227
8376,193256,40550,215235
8387,193233,40555,215219
8397,193258,40542,215211
8408,193277,40543,215257
8416,193271,40538,215258
8427,193245,40551,215233
8437,193277,40544,215226
8448,193275,40541,215240
8457,193276,40538,215240
8467,193246,40546,215244
8477,193270,40550,215235
8487,193253,40546,215223
8497,193246,40547,215248
8506,193258,40541,215242
8516,193265,40537,215226
8527,193271,40525,215233
8538,193245,40527,215249
8547,193254,40544,215225
8557,193273,40524,215224
8567,193260,40551,215207
8577,193246,40541,215236
8586,193234,40544,215223
8597,193249,40548,215233
8607,193234,40533,215221
8618,193249,40521,215218
8627,193245,40539,215217
8637,193226,40546,215224
8647,193224,40538,215236
8657,193240,40533,215221
8666,193238,40543,215244
8677,193244,40539,215246
8687,193224,40518,215225
8697,193250,40550,215226
8707,193240,40531,215246
8716,193243,40531,215241
8726,193243,40531,215223
8737,193227,40540,215242
8747,193239,40538,215223
8756,193247,40517,215221
8766,193247,40525,215246
8777,193249,40526,215240
8788,193232,40529,215239
8796,193249,40546,215220
8807,193242,40513,215246
8817,193243,40531,215243
8827,193220,40527,215229
8837,193235,40534,215220
8847,193254,40529,215206
8857,193223,40542,215238
8867,193238,40537,215235
8876,193244,40540,215262
8886,193234,40532,215233
8896,193244,40531,215239
8907,193216,40538,215242
8917,193231,40536,215236
8927,193223,40527,215236
8937,193215,40530,215244
8947,193227,40521,215256
8957,193215,40530,215246
8966,193223,40529,215237
8976,193224,40529,215262
8986,193233,40541,215225
8997,193208,40550,215252
9007,193246,40513,215228
9016,193233,40537,215233
9027,193218,40520,215220
9037,193221,40537,215266
9047,193212,40513,215239
9057,193219,40536,215250
9067,193223,40539,215236
9077,193227,40513,215224
9086,193230,40519,215244
9096,193212,40534,215233
9106,193217,40516,215230
9117,193237,40537,215227
9126,193243,40516,215224
9136,193240,40526,215234
9147,193211,40523,215229
9156,193215,40531,215219
9166,193209,40528,215224
9176,193202,40532,215224
9187,193212,40528,215213
9196,193219,40521,215210
9207,193200,40514,215226
9216,193211,40538,215228
9227,193233,40511,215223
9236,193217,40524,215226
9246,193202,40526,215223
9256,193200,40511,215240
9267,193203,40509,215225
9277,193206,40520,215235
9287,193195,40520,215212
9296,193210,40524,215223
9306,193203,40518,215220
9317,193188,40497,215197
9327,193185,40522,215200
9336,193194,40505,215194
9346,193170,40511,215191
9356,193207,40509,215194
9366,193169,40511,215207
9376,193194,40507,215195
9386,193195,40515,215174
9396,193171,40505,215194
9407,193186,40500,215201
9416,193182,40508,215201
9426,193184,40517,215196
9437,193161,40503,215218
9447,193176,40523,215181
9457,193168,40496,215177
9466,193163,40512,215208
9476,193170,40498,215188
9486,193179,40497,215201
9497,193178,40503,215191
9506,193180,40505,215202
9516,193171,40512,215200
9526,193176,40509,215193
9536,193172,40511,215183
9546,193188,40504,215204
9556,193177,40507,215191
9566,193181,40503,215190
9577,193165,40503,215192
9586,193175,40502,215183
9596,193181,40506,215162
9606,193184,40497,215200
9616,193150,40494,215190
9625,193160,40487,215182
9636,193143,40509,215172
9646,193153,40498,215188
9656,193181,40503,215169
9666,193156,40505,215176
9676,193162,40509,215147
9686,193159,40507,215197
9696,193162,40506,215183
9706,193141,40510,215183
9716,193150,40510,215174
9726,193134,40508,215192
9736,193156,40514,215191
9746,193155,40510,215192
9756,193187,40509,215184
9766,193157,40500,215184
9776,193171,40502,215193
9786,193164,40510,215185
9795,193164,40487,215171
9805,193156,40494,215194
9816,193164,40508,215186
9826,193156,40490,215192
9835,193166,40495,215184
9846,193190,40497,215180
9856,193155,40505,215185
9867,193161,40501,215194
9876,193149,40493,215168
9886,193168,40501,215189
9896,193171,40506,215184
9906,193155,40505,215181
9916,193166,40502,215200
9925,193161,40518,215188
9936,193171,40496,215201
9946,193153,40500,215156
9956,193162,40511,215184
9966,193149,40498,215178
9975,193159,40500,215169
9986,193157,40503,215179
9997,193181,40512,215176
10006,193165,40515,215175
10016,193152,40501,215168
10026,193139,40490,215172
10036,193160,40515,215169
10045,193163,40505,215181
10056,193156,40490,215199
10066,193164,40512,215186
10076,193176,40495,215207
10085,193161,40496,215189
10095,193163,40494,215203
10105,193159,40493,215186
10116,193156,40486,215191
10126,193160,40503,215191
10136,193155,40506,215180
10146,193164,40503,215182
10156,193161,40498,215176
10166,193168,40490,215163
10176,193153,40487,215191
10186,193160,40500,215182
10196,193173,40498,215191
10206,193150,40502,215205
10215,193164,40487,215182
10226,193147,40499,215202
10235,193174,40501,215183
10246,193161,40499,215217
10256,193161,40491,215204
10266,193170,40492,215151
10276,193155,40511,215207
10286,193170,40495,215210
10295,193175,40499,215197
10305,193169,40484,215210
10316,193165,40495,215206
10326,193162,40493,215207
10335,193175,40499,215189
10345,193167,40495,215198
10356,193164,40505,215198
10366,193150,40489,215207
10375,193174,40491,215204
10385,193161,40479,215197
10396,193162,40489,215211
10406,193166,40490,215213
10415,193162,40484,215234
10425,193173,40489,215228
10436,193187,40491,215233
10446,193170,40489,215192
10456,193151,40491,215222
10465,193148,40495,215220
10475,193166,40507,215211
10485,193153,40498,215233
10496,193191,40503,215246
10505,193176,40496,215235
10515,193171,40496,215234
10526,193179,40495,215230
10536,193168,40496,215230
10545,193180,40506,215241
10555,193175,40492,215241
10565,193183,40492,215231
10576,193183,40489,215222
10585,193192,40490,215247
10595,193173,40496,215239
10605,193177,40489,215231
10616,193183,40516,215250
10625,193169,40492,215216
10635,193184,40509,215259
10646,193177,40496,215251
10656,193185,40495,215228
10666,193183,40502,215241
10675,193190,40491,215257
10685,193186,40487,215255
10695,193190,40485,215258
10705,193181,40505,215259
10715,193191,40505,215229
10725,193187,40491,215253
10735,193188,40493,215249
10745,193166,40501,215252
10755,193201,40499,215259
10765,193176,40495,215262
10775,193192,40495,215242
10785,193182,40497,215274
10795,193197,40496,215244
10805,193200,40495,215252
10815,193208,40492,215246
10825,193200,40508,215243
10834,193216,40478,215247
10844,193208,40483,215269
10855,193201,40489,215263
10865,193228,40484,215273
10875,193200,40495,215273
10885,193205,40482,215276
10895,193203,40492,215274
10905,193206,40477,215276
10916,193225,40489,215273
10925,193206,40481,215272
10935,193216,40486,215262
10945,193201,40486,215258
10955,193209,40480,215270
10964,193200,40486,215260
10975,193217,40493,215260
10985,193203,40494,215233
10995,193191,40489,215272
11005,193196,40494,215259
11014,193192,40496,215252
11025,193206,40493,215284
11036,193193,40492,215268
11045,193191,40487,215273
11055,193184,40488,215271
11065,193205,40480,215260
11075,193196,40486,215261
11084,193211,40481,215274
11095,193224,40479,215280
11105,193198,40495,215268
11115,193195,40491,215262
11125,193200,40495,215276
11134,193207,40480,215271
11145,193211,40477,215274
11155,193203,40477,215280
11166,193226,40466,215284
11175,193213,40463,215282
11185,193208,40469,215281
11195,193194,40477,215284
11205,193215,40473,215264
11214,193205,40478,215273
11224,193217,40479,215269
11235,193221,40485,215280
11245,193219,40483,215277
11254,193189,40483,215272
11265,193203,40495,215263
11274,193195,40484,215245
11285,193190,40485,215278
11295,193199,40486,215282
11305,193201,40484,215259
11315,193213,40469,215277
11325,193202,40469,215292
11334,193200,40490,215281
11344,193183,40488,215287
11355,193202,40487,215289
11365,193196,40478,215289
11375,193214,40471,215281
11384,193224,40473,215278
11395,193210,40479,215296
11405,193212,40463,215273
11415,193209,40483,215290
11424,193223,40464,215275
11435,193211,40465,215271
11445,193213,40487,215258
11455,193193,40489,215278
11464,193215,40484,215279
11475,193201,40461,215269
11485,193190,40468,215292
11495,193208,40471,215268
11504,193216,40465,215280
11514,193206,40459,215268
11525,193203,40471,215276
11535,193217,40467,215285
11544,193213,40471,215250
11555,193204,40477,215262
11565,193196,40472,215236
11575,193220,40455,215239
11584,193201,40460,215257
11594,193213,40466,215277
11605,193195,40458,215272
11614,193221,40456,215267
11625,193221,40445,215258
11634,193215,40455,215278
11644,193232,40443,215258
11655,193204,40445,215282
11665,193200,40437,215276
11674,193201,40450,215251
11685,193193,40439,215266
11695,193194,40448,215254
11705,193220,40453,215271
11714,193191,40454,215259
11724,193206,40441,215262
11735,193186,40445,215258
11745,193201,40433,215269
11754,193199,40435,215238
11764,193205,40433,215244
11774,193213,40433,215230
11784,193203,40441,215247
11794,193204,40443,215253
11804,193194,40443,215281
11814,193210,40445,215260
11824,193181,40452,215255
11834,193196,40449,215262
11844,193186,40443,215247
11854,193190,40436,215247
11865,193219,40429,215259
11875,193189,40435,215225
11884,193202,40434,215257
11894,193197,40436,215254
11905,193204,40416,215232
11915,193210,40437,215243
11924,193208,40435,215255
11934,193193,40419,215250
11944,193199,40439,215250
11955,193200,40416,215240
11964,193193,40435,215266
11974,193189,40412,215256
11984,193188,40444,215263
11994,193179,40426,215268
12003,193197,40427,215264
12014,193186,40409,215261
12024,193184,40425,215251
12034,193181,40418,215253
12044,193178,40421,215266
12054,193191,40416,215240
12064,193191,40436,215244
12075,193184,40433,215264
12084,193196,40427,215250
12094,193192,40426,215261
12104,193191,40425,215252
12114,193180,40428,215250
12124,193179,40421,215259
12134,193191,40425,215261
12144,193198,40430,215247
12154,193177,40426,215247
12165,193190,40424,215263
12173,193191,40418,215238
12183,193192,40414,215257
12194,193200,40403,215240
12205,193194,40412,215259
12213,193181,40415,215235
12224,193187,40405,215254
12234,193177,40419,215253
12245,193187,40407,215239
12253,193179,40434,215243
12264,193176,40406,215243
12274,193175,40418,215219
12285,193177,40400,215237
12293,193178,40415,215235
12304,193181,40411,215250
12314,193179,40412,215213
12324,193181,40411,215243
12334,193186,40408,215211
12344,193191,40419,215205
12354,193164,40425,215237
12364,193165,40418,215234
12374,193193,40415,215230
12383,193151,40397,215212
12394,193179,40414,215233
12404,193180,40408,215238
12414,193184,40405,215242
12423,193193,40406,215233
12433,193182,40400,215251
12443,193182,40396,215239
12454,193188,40395,215239
12463,193193,40400,215244
12474,193173,40391,215240
12484,193158,40398,215233
12494,193161,40397,215245
12503,193178,40403,215221
12514,193157,40389,215232
12524,193180,40386,215215
12534,193176,40384,215206
12543,193170,40379,215213
12554,193173,40402,215202
12564,193162,40390,215200
12574,193178,40387,215207
12583,193163,40384,215198
12593,193155,40384,215225
12604,193174,40364,215226
12614,193168,40388,215226
12624,193182,40375,215206
12634,193154,40398,215219
12644,193185,40380,215213
12654,193183,40389,215212
12664,193143,40381,215216
12673,193165,40390,215229
12683,193162,40394,215214
12694,193149,40380,215237
12704,193169,40386,215237
12713,193154,40379,215227
12724,193133,40377,215218
12733,193167,40379,215228
12744,193176,40360,215226
12753,193175,40374,215249
12764,193197,40368,215237
12774,193166,40380,215223
12784,193153,40384,215205
12793,193168,40367,215224
12803,193159,40382,215232
12814,193148,40369,215237
12824,193164,40367,215228
12833,193154,40385,215217
12843,193160,40388,215242
12853,193169,40376,215226
12864,193155,40377,215236
12873,193177,40379,215218
12883,193186,40383,215247
12893,193175,40376,215226
12904,193202,40360,215233
12914,193181,40369,215235
12923,193158,40374,215229
12934,193146,40371,215257
12944,193172,40361,215229
12954,193170,40365,215236
12963,193175,40372,215248
12973,193165,40372,215235
12983,193166,40383,215210
12994,193142,40373,215216
13002,193150,40381,215207
13013,193142,40374,215219
13023,193128,40370,215239
13033,193159,40366,215231
13043,193153,40368,215222
13053,193150,40375,215227
13063,193145,40365,215233
13074,193162,40358,215239
13083,193138,40375,215234
13093,193155,40375,215231
13103,193159,40376,215236
13113,193159,40362,215241
13123,193148,40382,215271
13133,193162,40370,215229
13143,193167,40380,215220
13154,193134,40373,215228
13164,193141,40359,215224
13173,193120,40365,215223
13183,193142,40362,215210
13193,193118,40365,215198
13203,193176,40371,215225
13213,193158,40363,215200
13223,193151,40377,215185
13233,193144,40366,215213
13243,193161,40346,215235
13252,193152,40360,215218
13263,193150,40347,215201
13273,193155,40356,215219
13284,193145,40339,215212
13292,193139,40344,215210
13303,193173,40334,215209
13313,193147,40352,215203
13324,193142,40331,215207
13333,193157,40360,215207
13343,193166,40331,215220
13353,193139,40355,215196
13364,193144,40343,215196
13374,193159,40359,215173
13383,193146,40345,215189
13393,193135,40355,215194
13403,193138,40357,215204
13413,193137,40361,215226
13422,193136,40356,215231
13433,193139,40364,215190
13443,193122,40357,215210
13453,193142,40347,215185
13462,193088,40361,215185
13472,193136,40340,215183
13483,193121,40336,215199
13493,193142,40346,215182
13502,193129,40329,215188
13512,193125,40352,215145
13522,193132,40348,215192
13533,193124,40345,215166
13542,193159,40344,215161
13553,193136,40331,215165
13563,193125,40355,215169
13573,193102,40354,215190
13583,193119,40340,215151
13593,193126,40351,215183
13603,193139,40349,215196
13613,193132,40349,215180
13623,193142,40351,215162
13632,193127,40329,215185
13643,193132,40351,215181
13653,193121,40351,215148
13663,193130,40339,215161
13673,193125,40354,215185
13683,193117,40346,215162
13693,193113,40358,215175
13703,193118,40358,215189
13712,193121,40353,215185
13722,193141,40357,215187
13733,193132,40356,215200
13743,193125,40365,215152
13752,193127,40360,215172
13763,193133,40367,215187
13772,193126,40366,215169
13783,193120,40339,215174
13792,193140,40354,215164
13803,193103,40332,215192
13813,193129,40364,215176
13823,193129,40364,215168
13833,193122,40362,215191
13842,193131,40359,215185
13853,193134,40349,215181
13863,193120,40363,215164
13873,193124,40362,215132
13882,193113,40378,215184
13892,193149,40351,215179
13903,193146,40375,215173
13913,193136,40367,215172
13922,193150,40365,215222
13932,193128,40366,215164
13943,193130,40356,215179
13953,193133,40363,215149
13962,193156,40360,215129
13972,193123,40360,215170
13983,193124,40359,215139
13993,193137,40367,215161
14002,193126,40364,215174
14012,193150,40372,215151
14022,193132,40382,215136
14033,193137,40362,215164
14042,193140,40362,215163
14052,193131,40366,215162
14062,193151,40366,215185
14072,193137,40368,215173
14083,193145,40352,215169
14092,193141,40362,215197
14103,193093,40357,215182
14113,193142,40358,215151
14123,193120,40369,215146
14132,193136,40369,215184
14142,193147,40343,215176
14152,193138,40379,215165
14162,193161,40384,215147
14172,193127,40364,215180
14182,193167,40367,215192
14192,193148,40351,215180
14203,193147,40366,215203
14212,193156,40352,215178
14222,193139,40372,215180
14232,193145,40368,215173
14243,193143,40370,215165
14252,193150,40366,215190
14262,193156,40368,215192
14272,193156,40383,215186
14282,193143,40369,215146
14291,193137,40374,215192
14302,193158,40365,215150
14312,193149,40381,215190
14323,193161,40362,215175
14332,193145,40367,215184
14342,193150,40364,215175
14352,193146,40371,215184
14363,193166,40363,215185
14372,193146,40379,215207
14382,193165,40363,215193
14392,193147,40370,215177
14403,193161,40366,215200
14413,193156,40370,215205
14422,193153,40369,215206
14432,193139,40381,215212
14442,193151,40385,215235
14453,193160,40386,215207
14462,193168,40385,215200
14472,193170,40395,215224
14482,193152,40393,215189
14492,193178,40381,215209
14501,193163,40387,215197
14512,193153,40383,215233
14522,193180,40385,215234
14532,193192,40399,215246
14541,193185,40406,215259
14552,193187,40391,215230
14562,193180,40375,215211
14572,193174,40393,215233
14582,193184,40392,215245
14592,193184,40372,215231
14602,193187,40395,215211
14612,193193,40399,215228
14622,193189,40391,215232
14632,193178,40390,215232
14642,193183,40386,215220
14652,193182,40394,215237
14662,193175,40397,215266
14671,193191,40402,215247
14682,193186,40404,215254
14692,193199,40412,215241
14702,193189,40401,215237
14712,193171,40416,215265
14722,193199,40404,215256
14732,193209,40403,215255
14742,193199,40404,215237
14752,193196,40407,215254
14762,193177,40411,215242
14772,193191,40406,215237
14782,193206,40400,215231
14791,193211,40410,215261
14801,193196,40406,215286
14812,193217,40401,215271
14822,193227,40411,215277
14832,193210,40405,215248
14841,193221,40401,215274
14852,193224,40400,215281
14862,193205,40403,215291
14872,193215,40399,215271
14881,193215,40404,215304
14892,193230,40404,215276
14902,193222,40396,215291
14912,193212,40414,215277
14921,193231,40418,215293
14931,193231,40381,215278
14942,193204,40411,215247
14952,193225,40417,215246
14962,193218,40387,215245
14971,193225,40423,215246
14982,193198,40402,215236
14992,193234,40414,215261
15001,193223,40414,215277
15012,193220,40415,215275
15022,193205,40413,215296
15032,193220,40412,215276
15041,193227,40403,215258
15051,193216,40426,215275
15061,193234,40410,215287
15072,193218,40398,215278
15082,193227,40422,215256
15091,193237,40404,215282
15102,193227,40430,215277
15111,193233,40417,215279
15122,193230,40404,215297
15131,193226,40413,215295
15142,193237,40391,215291
15152,193220,40409,215266
15162,193223,40417,215281
15171,193241,40404,215300
15181,193229,40415,215268
15191,193223,40428,215308
15201,193246,40431,215296
15211,193226,40421,215275
15221,193237,40436,215283
15231,193240,40420,215276
15242,193223,40407,215262
15251,193233,40420,215272
15262,193215,40413,215302
15271,193247,40422,215272
15282,193233,40420,215288
15291,193228,40426,215286
15301,193246,40407,215295
15311,193237,40430,215269
15321,193226,40418,215296
15331,193252,40404,215287
15341,193226,40427,215280
15351,193236,40425,215298
15362,193229,40421,215281
15371,193256,40435,215297
15381,193231,40415,215285
15391,193242,40421,215287
15402,193239,40402,215269
15412,193212,40425,215291
15421,193235,40430,215292
15431,193219,40441,215295
15441,193225,40423,215286
15452,193225,40437,215264
15461,193225,40436,215297
15471,193228,40436,215264
15481,193228,40429,215303
15491,193228,40442,215303
15500,193239,40442,215274
15511,193208,40436,215294
15521,193235,40450,215311
15531,193228,40440,215306
15541,193242,40467,215297
15551,193238,40429,215263
15561,193236,40425,215301
15571,193245,40427,215262
15581,193227,40414,215291
15591,193240,40435,215260
15601,193223,40435,215281
15611,193218,40423,215262
15621,193227,40437,215260
15630,193240,40429,215277
15640,193244,40412,215266
15651,193223,40416,215274
15662,193232,40415,215291
15670,193238,40436,215255
15680,193232,40417,215276
15691,193235,40413,215285
15701,193230,40415,215278
15710,193230,40420,215284
15721,193222,40420,215264
15731,193228,40416,215237
15741,193230,40437,215262
15751,193186,40415,215257
15761,193217,40410,215264
15771,193206,40441,215274
15781,193221,40416,215233
15791,193213,40422,215259
15800,193190,40434,215268
15811,193207,40426,215289
15821,193213,40416,215259
15831,193220,40428,215272
15841,193206,40414,215271
15851,193224,40423,215274
15861,193220,40438,215257
15871,193217,40409,215266
15880,193215,40434,215255
15891,193216,40410,215261
15901,193222,40429,215262
15911,193218,40422,215264
15921,193229,40394,215255
15930,193205,40419,215244
15941,193177,40421,215261
15952,193200,40417,215244
15961,193207,40425,215257
15971,193203,40421,215251
15981,193205,40430,215258
15991,193208,40418,215260
16000,193219,40418,215255
16011,193197,40420,215255
16021,193203,40438,215273
16031,193200,40431,215244
16041,193192,40437,215256
16051,193203,40418,215247
16061,193210,40428,215267
16071,193217,40425,215244
16081,193202,40391,215245
16090,193193,40423,215241
16100,193198,40433,215259
16111,193197,40426,215239
16121,193203,40404,215228
16130,193199,40413,215256
16140,193194,40419,215238
16150,193211,40427,215261
16161,193196,40425,215259
16171,193195,40428,215257
16181,193193,40441,215249
16191,193201,40423,215236
16201,193205,40422,215249
16210,193217,40417,215269
16220,193187,40422,215254
16230,193207,40425,215253
16240,193215,40406,215242
16250,193202,40430,215262
16260,193222,40410,215236
16271,193216,40418,215255
16281,193186,40421,215243
16291,193212,40435,215243
16300,193205,40436,215256
16311,193207,40435,215253
16321,193216,40432,215262
16331,193180,40428,215267
16340,193205,40417,215262
16350,193202,40431,215239
16360,193178,40425,215258
16371,193225,40423,215265
16380,193224,40412,215260
16391,193208,40415,215241
16401,193214,40425,215238
16411,193213,40410,215254
16420,193194,40406,215271
16431,193215,40431,215264
16441,193224,40394,215245
16451,193202,40415,215259
16460,193204,40398,215260
16470,193198,40416,215259
16480,193204,40432,215262
16491,193194,40419,215240
16500,193190,40415,215275
16510,193202,40429,215280
16521,193215,40404,215266
16531,193203,40416,215264
16541,193193,40420,215276
16551,193206,40418,215232
16561,193187,40428,215263
16571,193204,40416,215246
16581,193185,40417,215256
16590,193217,40407,215239
16600,193173,40403,215266
16611,193209,40416,215247
16621,193197,40435,215239
16630,193204,40414,215244
16640,193193,40429,215243
16650,193198,40417,215269
16660,193170,40405,215255
16670,193192,40426,215268
16680,193196,40380,215248
16690,193196,40410,215242
16700,193200,40413,215223
16710,193202,40407,215235
16720,193180,40403,215265
16730,193197,40405,215242
16740,193176,40427,215229
16750,193180,40401,215248
16760,193181,40421,215249
16770,193182,40404,215260
16780,193186,40422,215243
16790,193197,40405,215244
16800,193191,40397,215272
16810,193175,40400,215233
16820,193157,40423,215254
16830,193180,40419,215265
16839,193177,40416,215261
16849,193161,40410,215256
16860,193176,40417,215258
16871,193185,40418,215243
16880,193203,40416,215242
16890,193189,40406,215256
16900,193188,40422,215249
16910,193193,40398,215245
16920,193195,40406,215264
16930,193189,40405,215240
16940,193164,40415,215256
16951,193185,40401,215260
16960,193161,40409,215254
16970,193191,40404,215257
16980,193178,40412,215229
16990,193167,40413,215239
17000,193143,40397,215244
17009,193164,40389,215243
17020,193178,40402,215217
17031,193157,40400,215240
17041,193161,40400,215256
17050,193155,40415,215271
17060,193171,40408,215233
17070,193163,40407,215234
17080,193175,40390,215253
17090,193167,40406,215236
17100,193169,40420,215219
17110,193179,40409,215222
17120,193183,40393,215254
17129,193183,40409,215248
17140,193167,40414,215255
17150,193152,40405,215242
17160,193157,40421,215250
17169,193153,40417,215250
17179,193171,40410,215250
17189,193157,40397,215256
17200,193162,40405,215251
17209,193169,40408,215251
17219,193180,40384,215250
17229,193151,40419,215237
17240,193152,40388,215240
17250,193175,40412,215231
17259,193165,40402,215244
17269,193170,40405,215251
17279,193185,40410,215246
17290,193188,40407,215251
17299,193176,40415,215244
17311,193157,40411,215243
17320,193175,40393,215258
17330,193174,40396,215241
17339,193175,40405,215233
17349,193183,40400,215219
17360,193169,40401,215241
17370,193163,40404,215249
17379,193163,40406,215254
17389,193166,40387,215242
17399,193160,40406,215221
17410,193153,40389,215252
17419,193170,40400,215230
17429,193189,40406,215262
17439,193173,40398,215264
17449,193157,40409,215255
17459,193176,40400,215240
17470,193170,40410,215212
17480,193153,40407,215246
17490,193159,40392,215251
17500,193176,40380,215246
17509,193169,40397,215229
17520,193155,40389,215239
17530,193143,40415,215230
17540,193148,40391,215245
17549,193156,40384,215234
17559,193149,40406,215253
17569,193160,40398,215234
17580,193158,40382,215228
17589,193163,40402,215209
17599,193144,40396,215235
17609,193148,40390,215241
17620,193130,40391,215215
17629,193145,40402,215221
17639,193121,40405,215238
17650,193150,40386,215235
17660,193144,40394,215256
17669,193146,40385,215217
17679,193136,40386,215242
17689,193160,40401,215238
17700,193131,40397,215263
17709,193151,40385,215236
17719,193131,40396,215239
17729,193135,40390,215242
17739,193129,40389,215240
17750,193129,40402,215217
17759,193142,40398,215244
17769,193148,40378,215240
17779,193148,40390,215212
17790,193137,40383,215237
17799,193146,40397,215230
17809,193133,40394,215233
17819,193138,40389,215220
17830,193120,40391,215236
17839,193135,40391,215253
17849,193146,40396,215232
17859,193130,40387,215226
17869,193134,40396,215233
17879,193139,40392,215243
17890,193109,40394,215239
17899,193119,40388,215235
17910,193141,40373,215243
17919,193123,40379,215226
17929,193129,40386,215213
17939,193112,40386,215228
17949,193117,40397,215227
17958,193110,40400,215233
17969,193121,40386,215236
17979,193130,40395,215231
17989,193126,40395,215231
17999,193134,40390,215223
18009,193130,40401,215200
18019,193136,40403,215233
18029,193126,40385,215241
18040,193136,40393,215209
18049,193122,40397,215226
18059,193117,40398,215248
18069,193116,40395,215242
18079,193124,40398,215230
18088,193128,40408,215248
18099,193132,40391,215240
18110,193134,40392,215232
18120,193122,40396,215229
18129,193123,40377,215228
18139,193095,40399,215229
18149,193131,40400,215244
18159,193137,40400,215234
18168,193130,40399,215223
18178,193138,40389,215218
18189,193137,40379,215221
18199,193125,40413,215205
18209,193128,40394,215207
18219,193132,40399,215228
18229,193127,40404,215224
18239,193121,40405,215223
18249,193130,40398,215234
18258,193128,40406,215230
18269,193127,40378,215225
18279,193118,40395,215176
18289,193122,40381,215233
18298,193127,40395,215199
18308,193117,40400,215220
18319,193120,40391,215231
18329,193125,40399,215227
18339,193143,40386,215197
18349,193124,40395,215217
18359,193124,40391,215202
18369,193137,40400,215188
18378,193129,40393,215214
18388,193119,40395,215229
18399,193120,40391,215211
18409,193120,40393,215215
18418,193140,40388,215210
18429,193145,40390,215196
18439,193130,40405,215219
18449,193116,40396,215215
18458,193124,40403,215197
18468,193116,40411,215198
18479,193132,40407,215220
18489,193123,40405,215211
18499,193129,40405,215221
18509,193119,40389,215206
18519,193122,40409,215193
18529,193131,40406,215235
18539,193112,40400,215218
18548,193116,40401,215193
18558,193128,40392,215204
18568,193127,40402,215221
18579,193112,40406,215208
18588,193102,40412,215184
18598,193126,40412,215216
18609,193131,40392,215218
18619,193117,40401,215195
18628,193110,40414,215222
18638,193121,40419,215200
18648,193129,40412,215241
18659,193129,40416,215230
18668,193121,40411,215229
18679,193146,40409,215230
18689,193131,40425,215200
18699,193124,40414,215227
18708,193130,40420,215228
18718,193127,40419,215239
18728,193128,40414,215231
18739,193129,40398,215236
18749,193142,40423,215271
18758,193130,40402,215243
18769,193113,40425,215248
18779,193133,40424,215244
18789,193114,40433,215256
18798,193136,40422,215247
18808,193154,40420,215254
18819,193145,40437,215244
18829,193152,40426,215214
18838,193139,40422,215254
18848,193128,40420,215246
18858,193150,40417,215249
18868,193151,40431,215242
18878,193152,40414,215267
18888,193157,40431,215273
18898,193137,40433,215245
18908,193149,40430,215259
18918,193149,40412,215261
18929,193124,40441,215267
18939,193162,40450,215275
18949,193151,40433,215259
18958,193167,40434,215286
18968,193132,40442,215287
18978,193156,40426,215270
18988,193151,40427,215286
18999,193174,40437,215268
19008,193164,40429,215265
19018,193165,40426,215260
19028,193179,40440,215256
19039,193159,40431,215251
19048,193170,40421,215244
19058,193162,40437,215241
19069,193160,40445,215271
19078,193172,40428,215266
19088,193146,40441,215283
19098,193171,40428,215263
19108,193164,40447,215275
19119,193162,40438,215273
19128,193174,40428,215276
19138,193170,40429,215278
19148,193168,40428,215294
19159,193169,40447,215281
19168,193165,40436,215279
19178,193166,40451,215286
19188,193169,40436,215278
19198,193163,40428,215285
19208,193171,40434,215269
19218,193183,40439,215278
19228,193185,40429,215293
19239,193173,40433,215272
19249,193147,40437,215272
19258,193172,40434,215266
19268,193162,40435,215284
19278,193184,40441,215275
19288,193185,40438,215260
19298,193162,40426,215295
19308,193174,40444,215272
19318,193153,40442,215293
19328,193170,40438,215290
19338,193180,40431,215280
19348,193160,40450,215271
19358,193168,40446,215302
19369,193179,40432,215282
19378,193180,40442,215271
19388,193182,40444,215271
19398,193170,40446,215290
19408,193174,40436,215280
19418,193194,40433,215292
19431,193175,40445,215299
19438,193184,40449,215291
19448,193195,40449,215306
19458,193196,40441,215306
19468,193171,40448,215308
19478,193174,40447,215281
19488,193182,40452,215300
19499,193194,40449,215309
19507,193177,40426,215294
19518,193194,40456,215295
19528,193194,40453,215307
19539,193204,40437,215309
19548,193208,40448,215304
19558,193188,40441,215322
19568,193175,40459,215323
19578,193189,40449,215307
19588,193193,40442,215317
19598,193204,40440,215298
19608,193197,40447,215306
19618,193190,40450,215306
19627,193181,40459,215308
19638,193196,40460,215320
19648,193208,40439,215319
19658,193174,40455,215308
19668,193207,40461,215330
19678,193201,40448,215308
19688,193180,40465,215336
19698,193198,40448,215310
19708,193202,40461,215336
19718,193204,40443,215322
19728,193181,40466,215307
19738,193197,40465,215306
19748,193185,40460,215293
19758,193181,40448,215305
19768,193192,40457,215317
19778,193196,40466,215328
19788,193207,40458,215301
19798,193191,40457,215314
19808,193201,40446,215342
19818,193207,40466,215331
19828,193190,40454,215291
19837,193197,40463,215328
19847,193215,40464,215327
19858,193203,40469,215282
19868,193217,40440,215309
19877,193208,40450,215296
19887,193216,40465,215317
19897,193212,40447,215299
19907,193219,40449,215314
19917,193210,40444,215312
19927,193214,40455,215318
19937,193212,40441,215296
19947,193207,40464,215339
19958,193226,40447,215318
19967,193210,40460,215316
19977,193214,40453,215311
19987,193202,40461,215314
19998,193216,40451,215324
20007,193205,40452,215322
20017,193214,40432,215334
20028,193220,40450,215324
20038,193215,40460,215319
20047,193221,40451,215333
20057,193207,40448,215316
20068,193205,40455,215317
20078,193220,40451,215286
20087,193212,40468,215334
20097,193200,40445,215330
20108,193205,40468,215310
20118,193217,40448,215306
20127,193194,40436,215307
20137,193213,40455,215336
20148,193211,40459,215317
20158,193201,40460,215320
20167,193220,40458,215299
20177,193197,40461,215335
20188,193207,40449,215336
20197,193200,40471,215321
20208,193206,40457,215331
20217,193216,40448,215303
20227,193209,40450,215334
20237,193219,40445,215324
20248,193196,40452,215319
20257,193206,40450,215318
20267,193212,40451,215304
20277,193207,40446,215319
20287,193232,40452,215325
20297,193219,40446,215316
20307,193219,40456,215340
20317,193210,40448,215329
20328,193211,40449,215329
20337,193221,40463,215318
20347,193211,40446,215311
20357,193202,40463,215319
20367,193215,40451,215322
20377,193204,40454,215328
20387,193210,40455,215353
20397,193217,40462,215316
20408,193215,40459,215312
20417,193206,40457,215341
20427,193234,40466,215325
20437,193197,40451,215317
20447,193215,40458,215339
20457,193220,40447,215332
20466,193228,40450,215330
20477,193209,40450,215314
20488,193229,40454,215340
20498,193202,40459,215305
20507,193212,40455,215316
20517,193233,40449,215320
20527,193203,40452,215318
20538,193213,40445,215308
20547,193208,40448,215321
20557,193230,40443,215320
20567,193209,40454,215315
20577,193201,40454,215324
20586,193212,40462,215326
20597,193220,40444,215321
20607,193202,40464,215287
20617,193202,40446,215321
20626,193211,40452,215275
20637,193215,40455,215324
20647,193224,40463,215322
20657,193217,40441,215318
20667,193191,40445,215313
20676,193208,40457,215290
20687,193213,40459,215318
20698,193218,40452,215289
20708,193215,40450,215297
20717,193207,40455,215283
20727,193205,40449,215309
20738,193198,40447,215307
20748,193216,40449,215287
20757,193219,40456,215294
20767,193201,40447,215306
20777,193201,40461,215277
20787,193199,40441,215293
20797,193208,40446,215284
20807,193198,40453,215305
20817,193206,40442,215312
20827,193204,40444,215306
20836,193208,40432,215296
20846,193200,40451,215287
20857,193205,40434,215271
20868,193206,40431,215279
20877,193199,40441,215271
20887,193200,40448,215268
20897,193201,40411,215267
20907,193202,40432,215279
20916,193199,40439,215267
20926,193203,40425,215255
20937,193190,40437,215234
20947,193207,40439,215264
20957,193196,40443,215278
20966,193171,40433,215272
20977,193180,40444,215264
20987,193195,40438,215275
20997,193198,40427,215254
21007,193166,40451,215262
21016,193175,40428,215238
21027,193175,40436,215256
21037,193189,40424,215262
21047,193176,40449,215264
21056,193193,40432,215260
21066,193176,40423,215262
21077,193188,40427,215251
21086,193188,40425,215269
21096,193191,40423,215249
21106,193188,40419,215268
21117,193190,40416,215266
21127,193180,40426,215268
21137,193184,40429,215245
21147,193175,40424,215248
21157,193159,40440,215265
21166,193173,40428,215265
21177,193173,40405,215267
21187,193159,40435,215266
21197,193185,40412,215270
21207,193179,40426,215268
21216,193190,40417,215244
21226,193180,40440,215244
21237,193172,40421,215262
21247,193185,40426,215273
21256,193181,40418,215270
21266,193183,40437,215260
21277,193155,40416,215274
21287,193173,40428,215256
21296,193159,40428,215279
21307,193190,40402,215280
21317,193157,40418,215267
21327,193177,40428,215260
21336,193157,40426,215266
21346,193150,40426,215250
21357,193160,40428,215257
21367,193180,40410,215269
21376,193171,40430,215252
21387,193158,40432,215259
21396,193172,40431,215269
21407,193174,40415,215274
21416,193167,40440,215254
21426,193176,40426,215265
21437,193153,40428,215277
21447,193160,40427,215267
21457,193157,40415,215270
21466,193156,40418,215243
21477,193154,40423,215270
21487,193144,40428,215266
21497,193173,40436,215234
21506,193168,40428,215280
21517,193179,40412,215264
21527,193168,40415,215251
21537,193145,40428,215275
21546,193138,40412,215276
21556,193165,40425,215256
21566,193139,40428,215263
21577,193155,40423,215264
21586,193138,40419,215249
21596,193162,40414,215253
21606,193155,40415,215253
21617,193142,40412,215250
21626,193152,40404,215243
21636,193143,40419,215255
21646,193150,40422,215256
21657,193146,40407,215246
21666,193151,40380,215245
21676,193151,40404,215257
21686,193141,40416,215262
21696,193134,40396,215267
21706,193153,40397,215264
21716,193150,40393,215261
21726,193165,40401,215255
21736,193158,40398,215235
21747,193156,40383,215235
21756,193152,40408,215230
21766,193148,40412,215240
21777,193140,40398,215237
21787,193147,40397,215216
21796,193135,40395,215233
21806,193146,40395,215234
21816,193126,40382,215238
21826,193142,40406,215212
21836,193134,40386,215247
21846,193131,40398,215225
21856,193131,40378,215248
21867,193123,40405,215227
21876,193128,40398,215205
21886,193133,40389,215209
21897,193121,40408,215224
21907,193121,40392,215223
21916,193122,40402,215228
21926,193102,40407,215225
21936,193137,40398,215225
21946,193135,40391,215226
21957,193132,40401,215222
21966,193132,40402,215242
21976,193111,40394,215232
21986,193121,40404,215230
21996,193137,40391,215225
22005,193138,40391,215254
22016,193139,40375,215222
22027,193136,40374,215242
22037,193120,40394,215216
22046,193123,40398,215212
22056,193120,40397,215219
22066,193116,40376,215218
22076,193131,40383,215215
22085,193131,40388,215223
22096,193129,40391,215198
22106,193127,40401,215218
22116,193120,40389,215240
22126,193127,40394,215222
22135,193115,40381,215198
22146,193114,40385,215228
22157,193137,40393,215209
22166,193130,40382,215203
22176,193095,40398,215229
22186,193115,40398,215224
22196,193127,40392,215224
22206,193105,40405,215236
22216,193119,40397,215214
22226,193104,40396,215225
22236,193105,40392,215219
22246,193115,40397,215206
22256,193140,40390,215217
22266,193128,40396,215202
22276,193126,40411,215214
22286,193129,40396,215217
22296,193126,40389,215215
22306,193123,40393,215186
22316,193116,40403,215209
22326,193130,40386,215214
22336,193144,40397,215226
22346,193119,40404,215213
22356,193126,40392,215212
22366,193138,40398,215203
22375,193129,40401,215226
22385,193128,40408,215196
22396,193121,40394,215173
22406,193135,40397,215211
22416,193127,40399,215220
22426,193144,40407,215193
22436,193151,40388,215186
22446,193143,40395,215190
22457,193122,40410,215229
22466,193126,40406,215204
22476,193110,40398,215219
22486,193113,40408,215200
22496,193133,40395,215201
22505,193126,40402,215225
22515,193132,40403,215219
22525,193139,40392,215217
22536,193118,40399,215229
22545,193134,40406,215198
22556,193140,40390,215219
22566,193141,40399,215218
22576,193149,40384,215206
22585,193122,40407,215205
22595,193142,40406,215230
22605,193150,40390,215215
22616,193154,40398,215219
22625,193136,40403,215221
22635,193139,40396,215215
22645,193145,40389,215219
22656,193126,40402,215223
22666,193140,40391,215214
22675,193140,40370,215237
22686,193128,40411,215211
22695,193145,40392,215220
22706,193137,40387,215216
22715,193147,40401,215216
22726,193148,40400,215219
22736,193150,40402,215236
22746,193134,40412,215212
22755,193140,40407,215223
22765,193112,40402,215227
22776,193156,40415,215223
22786,193124,40408,215228
22795,193149,40400,215239
22805,193135,40406,215215
22815,193141,40401,215235
22825,193143,40402,215215
22835,193139,40395,215237
22846,193151,40399,215248
22855,193137,40408,215240
22866,193151,40402,215242
22875,193151,40398,215259
22885,193150,40394,215226
22896,193139,40420,215242
22906,193141,40410,215228
22916,193162,40420,215247
22925,193170,40418,215255
22935,193159,40408,215257
22945,193160,40415,215244
22956,193149,40405,215246
22965,193164,40415,215252
22975,193162,40411,215261
22986,193146,40408,215252
22995,193171,40418,215249
23005,193162,40419,215263
23016,193154,40417,215250
23026,193169,40402,215258
23036,193158,40423,215266
23045,193160,40417,215252
23055,193159,40406,215258
23065,193169,40422,215263
23076,193161,40417,215253
23085,193171,40421,215264
23095,193158,40414,215247
23105,193179,40429,215241
23116,193176,40422,215263
23125,193185,40430,215268
23134,193171,40431,215266
23145,193186,40418,215268
23155,193188,40420,215286
23166,193167,40424,215284
23174,193185,40421,215259
23185,193188,40427,215260
23196,193182,40438,215271
23206,193188,40426,215260
23215,193203,40413,215270
23225,193172,40422,215245
23235,193193,40434,215253
23245,193197,40406,215270
23255,193170,40421,215248
23265,193194,40414,215263
23275,193171,40422,215277
23285,193193,40428,215257
23295,193177,40428,215267
23305,193174,40433,215269
23315,193174,40421,215278
23326,193186,40418,215278
23335,193193,40439,215276
23345,193178,40428,215274
23355,193208,40417,215274
23365,193171,40435,215291
23375,193191,40425,215281
23385,193172,40434,215276
23395,193183,40423,215263
23405,193191,40420,215271
23415,193190,40421,215302
23424,193196,40419,215265
23435,193194,40421,215275
23445,193201,40427,215287
23455,193180,40414,215272
23465,193205,40415,215279
23475,193196,40424,215282
23485,193201,40414,215254
23496,193198,40408,215280
23505,193196,40432,215279
23515,193191,40412,215262
23525,193200,40406,215274
23535,193206,40432,215257
23544,193185,40439,215275
23555,193185,40421,215268
23565,193201,40428,215270
23575,193185,40432,215283
23584,193192,40426,215259
23595,193200,40425,215282
23605,193210,40424,215284
23615,193191,40417,215292
23625,193183,40425,215295
23635,193204,40426,215275
23645,193192,40432,215292
23655,193197,40413,215302
23665,193218,40439,215299
23674,193197,40430,215292
23685,193191,40412,215288
23695,193191,40440,215281
23706,193185,40444,215293
23715,193199,40427,215280
23725,193203,40433,215267
23735,193171,40442,215289
23745,193204,40431,215280
23754,193191,40426,215294
23764,193197,40420,215275
23775,193222,40425,215305
23785,193201,40429,215301
23794,193200,40439,215298
23804,193202,40412,215293
23815,193199,40421,215257
23825,193212,40408,215270
23834,193212,40438,215296
23844,193202,40430,215299
23854,193220,40428,215302
23865,193225,40424,215294
23875,193205,40430,215275
23885,193207,40440,215302
23895,193192,40440,215288
23905,193188,40432,215295
23915,193206,40443,215298
23924,193210,40433,215302
23934,193204,40415,215305
23945,193199,40442,215310
23955,193211,40431,215293
23965,193202,40431,215286
23975,193229,40429,215283
23985,193204,40436,215316
23995,193208,40419,215310
24004,193209,40442,215294
24014,193215,40424,215305
24024,193212,40439,215306
24035,193209,40415,215290
24044,193210,40429,215297
24054,193224,40417,215278
24065,193196,40428,215290
24074,193217,40436,215286
24084,193213,40436,215286
24095,193213,40431,215290
24105,193202,40419,215261
24115,193177,40420,215278
24125,193209,40430,215262
24135,193196,40422,215293
24145,193213,40427,215273
24155,193192,40429,215296
24165,193197,40426,215283
24174,193194,40435,215296
24184,193207,40419,215303
24195,193187,40426,215282
24205,193181,40407,215297
24214,193214,40421,215261
24224,193203,40434,215279
24234,193207,40421,215285
24244,193212,40422,215283
24254,193205,40413,215296
24264,193222,40423,215265
24274,193204,40415,215291
24285,193219,40412,215293
24293,193200,40415,215286
24304,193214,40420,215289
24314,193207,40424,215298
24325,193214,40412,215276
24334,193213,40409,215254
24344,193200,40416,215280
24354,193199,40429,215281
24364,193181,40420,215294
24375,193209,40411,215275
24384,193202,40394,215290
24394,193205,40407,215260
24404,193204,40425,215253
24415,193182,40433,215281
24424,193211,40427,215293
24434,193207,40422,215287
24445,193194,40424,215303
24455,193201,40419,215286
24464,193201,40422,215268
24474,193201,40412,215269
24484,193193,40415,215276
24495,193205,40407,215268
24504,193185,40419,215285
24514,193178,40428,215269
24524,193196,40419,215245
24534,193200,40417,215277
24544,193196,40406,215287
24554,193205,40407,215277
24564,193212,40421,215255
24574,193210,40423,215288
24583,193197,40411,215283
24594,193188,40404,215278
24604,193191,40423,215284
24614,193190,40408,215301
24624,193195,40422,215270
24634,193193,40423,215274
24644,193193,40432,215265
24654,193181,40429,215278
24664,193188,40424,215252
24674,193162,40411,215269
24684,193192,40411,215261
24694,193183,40417,215291
24704,193198,40414,215285
24714,193172,40409,215289
24724,193189,40428,215276
24734,193200,40419,215278
24745,193161,40417,215276
24753,193180,40421,215270
24764,193202,40417,215270
24773,193184,40414,215261
24784,193221,40417,215278
24793,193174,40419,215271
24804,193213,40420,215273
24814,193184,40419,215275
24824,193181,40421,215277
24834,193204,40416,215262
24844,193170,40419,215267
24854,193189,40410,215275
24864,193182,40401,215259
24874,193187,40417,215235
24883,193179,40414,215266
24893,193187,40403,215258
24904,193185,40408,215254
24914,193183,40416,215224
24924,193203,40401,215260
24934,193180,40409,215230
24944,193183,40410,215235
24955,193175,40423,215259
24964,193183,40413,215250
24974,193182,40412,215266
24984,193154,40405,215242
24994,193186,40401,215251
25003,193191,40412,215252
25013,193186,40404,215265
25023,193196,40398,215256
25034,193170,40388,215259
25043,193192,40396,215261
25053,193194,40392,215230
25064,193165,40412,215254
25073,193184,40406,215237
25083,193201,40403,215246
25094,193177,40408,215219
25104,193175,40401,215223
25114,193178,40415,215230
25124,193165,40393,215243
25134,193171,40404,215250
25144,193179,40406,215234
25154,193171,40408,215259
25164,193172,40406,215227
25174,193155,40399,215258
25184,193166,40404,215226
25194,193149,40405,215246
25204,193172,40405,215253
25214,193160,40399,215234
25224,193154,40388,215250
25234,193152,40409,215232
25244,193159,40400,215237
25253,193176,40415,215214
25263,193153,40403,215245
25273,193172,40393,215254
25284,193165,40395,215253
25292,193179,40397,215248
25303,193185,40387,215242
25313,193153,40409,215244
25324,193169,40386,215228
25333,193172,40401,215244
25343,193193,40384,215241
25353,193174,40396,215229
25364,193176,40370,215244
25374,193165,40402,215242
25383,193156,40393,215235
25393,193181,40400,215253
25403,193164,40386,215220
25414,193168,40409,215230
25423,193168,40401,215251
25433,193167,40401,215247
25444,193168,40395,215257
25454,193172,40400,215241
25463,193180,40406,215230
25473,193179,40395,215253
25483,193165,40393,215239
25494,193171,40404,215256
25503,193184,40406,215232
25513,193178,40399,215229
25523,193143,40398,215245
25533,193163,40385,215237
25543,193158,40395,215223
25553,193153,40397,215239
25563,193153,40408,215240
25574,193175,40392,215244
25583,193173,40404,215257
25593,193177,40400,215250
25603,193189,40409,215253
25613,193159,40404,215236
25623,193166,40400,215242
25633,193174,40409,215232
25643,193152,40401,215253
25653,193137,40401,215252
25663,193181,40404,215233
25673,193168,40403,215248
25683,193171,40399,215219
25693,193151,40395,215247
25703,193178,40393,215225
25713,193141,40392,215242
25723,193186,40406,215245
25733,193134,40403,215265
25743,193144,40384,215237
25753,193147,40396,215242
25763,193179,40405,215252
25773,193157,40391,215233
25783,193175,40401,215240
25792,193184,40387,215229
25803,193180,40376,215233
25813,193163,40383,215222
25823,193141,40388,215226
25833,193163,40402,215223
25843,193162,40392,215240
25853,193146,40363,215264
25863,193142,40371,215250
25873,193144,40378,215221
25882,193140,40382,215236
25893,193160,40379,215217
25903,193121,40371,215229
25913,193135,40388,215221
25922,193141,40382,215251
25932,193156,40374,215234
25943,193152,40392,215224
25953,193146,40384,215219
25963,193140,40386,215211
25973,193144,40377,215215
25983,193145,40388,215226
25993,193138,40387,215199
26003,193148,40363,215223
26013,193131,40371,215181
26023,193140,40374,215227
26033,193133,40381,215216
26042,193134,40397,215207
26052,193125,40369,215225
26062,193165,40394,215221
26073,193150,40362,215205
26083,193157,40371,215215
26093,193147,40385,215209
26103,193128,40386,215211
26113,193127,40395,215206
26123,193148,40387,215207
26133,193123,40372,215201
26143,193122,40379,215206
26153,193127,40374,215202
26163,193126,40361,215163
26172,193136,40384,215187
26182,193141,40373,215208
26193,193119,40377,215199
26203,193139,40369,215239
26212,193149,40393,215219
26222,193138,40386,215231
26233,193134,40376,215209
26243,193129,40379,215186
26253,193118,40376,215224
26263,193127,40377,215189
26273,193107,40373,215212
26283,193136,40389,215216
26292,193131,40374,215206
26302,193143,40366,215192
26313,193105,40376,215200
26323,193137,40390,215188
26333,193116,40390,215214
26342,193144,40385,215154
26352,193133,40383,215199
26362,193118,40379,215213
26373,193118,40363,215206
26382,193122,40390,215215
26392,193131,40388,215195
26403,193135,40398,215225
26413,193120,40390,215170
26422,193106,40379,215201
26433,193111,40393,215202
26443,193102,40387,215211
26453,193123,40385,215188
26462,193112,40396,215164
26472,193124,40390,215173
26482,193121,40397,215187
26493,193089,40406,215213
26502,193123,40392,215207
26512,193122,40383,215217
26523,193111,40391,215204
26533,193113,40391,215210
26542,193124,40393,215198
26552,193116,40397,215200
26562,193115,40376,215214
26573,193134,40394,215203
26583,193136,40396,215198
26592,193128,40408,215206
26602,193138,40390,215148
26613,193134,40390,215214
26623,193121,40383,215188
26632,193131,40398,215180
26642,193129,40392,215194
26652,193123,40405,215201
26663,193135,40393,215180
26672,193128,40393,215184
26682,193133,40387,215201
26693,193118,40380,215190
26703,193118,40390,215202
26712,193124,40398,215190
26722,193131,40393,215206
26732,193133,40400,215197
26742,193139,40400,215194
26752,193124,40403,215206
26762,193141,40404,215222
26772,193118,40388,215199
26783,193130,40387,215192
26791,193128,40389,215193
26802,193116,40402,215177
26813,193125,40412,215184
26823,193151,40400,215193
26833,193135,40398,215204
26842,193142,40399,215189
26852,193120,40407,215202
26862,193141,40399,215171
26873,193129,40407,215212
26882,193148,40410,215207
26892,193136,40414,215210
26902,193143,40394,215222
26912,193145,40407,215195
26922,193134,40410,215210
26932,193138,40405,215180
26943,193115,40397,215147
26952,193117,40405,215190
26962,193115,40398,215153
26972,193122,40408,215182
26982,193136,40412,215206
26993,193136,40418,215200
27002,193139,40418,215233
27012,193117,40413,215202
27022,193151,40409,215186
27032,193153,40405,215219
27041,193127,40414,215212
27051,193141,40396,215216
27062,193140,40398,215190
27072,193161,40412,215205
27083,193152,40393,215196
27092,193161,40410,215194
27102,193137,40418,215195
27112,193158,40409,215228
27122,193129,40417,215217
27132,193141,40425,215221
27142,193160,40416,215217
27152,193169,40406,215203
27162,193155,40425,215232
27171,193139,40406,215223
27182,193154,40424,215227
27192,193141,40414,215200
27202,193135,40411,215213
27212,193150,40414,215238
27222,193158,40429,215188
27232,193162,40424,215225
27242,193150,40418,215193
27252,193153,40430,215232
27262,193167,40425,215217
27272,193139,40445,215221
27282,193172,40437,215209
27292,193158,40441,215235
27302,193143,40428,215250
27312,193143,40430,215245
27322,193161,40425,215237
27332,193160,40442,215242
27341,193152,40430,215259
27352,193180,40436,215251
27362,193171,40443,215255
27372,193162,40429,215255
27381,193168,40464,215262
27392,193152,40421,215256
27402,193180,40459,215262
27412,193172,40447,215271
27421,193180,40463,215277
27431,193182,40439,215264
27441,193164,40445,215245
27452,193188,40432,215255
27461,193171,40436,215218
27471,193163,40441,215220
27482,193175,40432,215240
27492,193190,40435,215227
27501,193179,40453,215261
27511,193173,40434,215251
27521,193176,40433,215275
27532,193182,40440,215233
27541,193167,40439,215270
27551,193179,40453,215267
27562,193186,40421,215260
27572,193188,40437,215244
27582,193151,40455,215277
27591,193163,40435,215263
27601,193187,40439,215272
27612,193210,40459,215273
27622,193194,40433,215299
27631,193181,40459,215269
27641,193185,40472,215276
27652,193176,40447,215272
27662,193195,40447,215281
27671,193189,40445,215291
27681,193206,40451,215275
27691,193199,40429,215262
27701,193204,40436,215264
27711,193197,40437,215284
27721,193197,40436,215280
27731,193195,40432,215266
27741,193202,40433,215289
27751,193203,40443,215285
27761,193167,40431,215288
27771,193196,40454,215274
27781,193191,40442,215274
27791,193204,40431,215290
27801,193197,40453,215263
27811,193197,40444,215285
27822,193192,40446,215263
27832,193196,40456,215280
27841,193202,40449,215280
27851,193194,40434,215286
27861,193195,40466,215296
27872,193178,40461,215279
27881,193209,40457,215280
27891,193184,40468,215286
27901,193187,40445,215275
27912,193191,40444,215291
27921,193207,40460,215284
27931,193205,40452,215305
27941,193199,40462,215277
27951,193202,40447,215289
27961,193202,40447,215288
27971,193197,40457,215261
27981,193181,40439,215292
27992,193195,40455,215283
28001,193209,40457,215287
28011,193195,40453,215282
28021,193192,40440,215255
28031,193201,40456,215264
28041,193211,40477,215284
28050,193201,40463,215280
28061,193207,40468,215285
28072,193192,40471,215259
28082,193192,40457,215275
28091,193199,40456,215280
28101,193203,40448,215281
28111,193201,40470,215277
28121,193193,40459,215294
28130,193199,40470,215272
28141,193182,40452,215272
28152,193203,40471,215276
28162,193194,40467,215279
28170,193197,40475,215276
28181,193209,40477,215278
28192,193206,40472,215261
28202,193201,40452,215289
28211,193215,40468,215292
28221,193200,40464,215290
28231,193193,40462,215291
28241,193197,40472,215282
28251,193221,40458,215280
28261,193201,40470,215275
28271,193206,40465,215271
28281,193217,40480,215274
28291,193215,40462,215280
28301,193200,40489,215267
28311,193210,40448,215275
28321,193221,40464,215289
28332,193189,40461,215255
28341,193219,40470,215265
28351,193186,40473,215268
28361,193204,40478,215269
28371,193220,40473,215255
28381,193192,40465,215278
28390,193217,40454,215310
28401,193204,40471,215288
28412,193211,40457,215272
28421,193187,40458,215296
28431,193200,40464,215276
28441,193187,40452,215273
28452,193196,40461,215275
28461,193216,40457,215265
28471,193206,40451,215271
28481,193224,40458,215289
28491,193200,40459,215285
28500,193207,40475,215286
28510,193199,40467,215281
28520,193212,40462,215273
28531,193203,40438,215267
28541,193208,40458,215287
28551,193219,40453,215272
28561,193195,40455,215274
28571,193209,40457,215270
28581,193216,40446,215278
28590,193205,40464,215273
28600,193193,40474,215268
28611,193189,40461,215268
28621,193202,40459,215251
28631,193198,40449,215241
28641,193190,40451,215260
28651,193207,40470,215235
28661,193179,40442,215257
28670,193177,40462,215276
28680,193178,40449,215260
28690,193199,40458,215261
28701,193198,40445,215262
28711,193202,40453,215276
28721,193184,40456,215289
28731,193204,40457,215279
28741,193176,40464,215262
28751,193206,40467,215265
28761,193193,40461,215277
28771,193214,40463,215266
28781,193210,40453,215256
28791,193186,40445,215270
28800,193192,40478,215252
28810,193198,40466,215255
28821,193184,40451,215277
28831,193196,40467,215251
28840,193183,40464,215267
28851,193195,40459,215275
28861,193189,40457,215277
28871,193187,40454,215267
28880,193189,40464,215255
28890,193189,40454,215266
28900,193193,40462,215276
28911,193203,40450,215270
28920,193191,40466,215245
28931,193188,40461,215263
28941,193195,40475,215279
28951,193177,40475,215266
28960,193189,40478,215255
28970,193179,40475,215262
28980,193186,40468,215253
28990,193191,40476,215268
29000,193177,40480,215288
29011,193202,40457,215273
29021,193196,40461,215276
29031,193183,40477,215252
29041,193215,40465,215253
29051,193195,40460,215281
29060,193201,40470,215273
29070,193209,40471,215277
29081,193193,40462,215253
29090,193201,40459,215252
29100,193185,40450,215254
29111,193190,40446,215253
29121,193192,40450,215253
29130,193184,40466,215249
29140,193203,40447,215254
29150,193187,40455,215255
29160,193176,40462,215267
29170,193188,40452,215240
29180,193197,40461,215241
29191,193196,40447,215243
29201,193171,40455,215264
29210,193182,40479,215235
29220,193161,40451,215265
29230,193190,40456,215255
29240,193181,40451,215250
29250,193187,40452,215262
29259,193189,40445,215262
29270,193188,40429,215269
29281,193198,40451,215264
29291,193173,40450,215261
29300,193188,40458,215261
29310,193176,40450,215238
29321,193174,40447,215249
29331,193195,40455,215246
29340,193182,40437,215248
29350,193195,40442,215227
29360,193167,40452,215237
29370,193190,40442,215237
29379,193155,40442,215265
29391,193173,40458,215240
29400,193192,40436,215239
29411,193171,40451,215266
29420,193165,40440,215252
29430,193192,40435,215247
29440,193179,40444,215263
29451,193175,40443,215222
29460,193150,40442,215255
29470,193170,40447,215255
29480,193172,40439,215237
29490,193154,40446,215248
29500,193155,40431,215260
29509,193174,40451,215251
29520,193169,40439,215235
29530,193147,40447,215247
29540,193178,40437,215252
29549,193171,40437,215259
29560,193174,40435,215237
29570,193152,40444,215249
29580,193168,40434,215252
29589,193151,40442,215232
29600,193171,40421,215252
29610,193165,40445,215223
29620,193151,40434,215249
29629,193193,40445,215215
29640,193162,40447,215243
29650,193169,40450,215238
29660,193146,40442,215231
29669,193170,40452,215228
29679,193160,40448,215263
29690,193161,40428,215231
29700,193157,40438,215255
29709,193144,40434,215237
29719,193168,40449,215232
29730,193141,40433,215242
29740,193159,40436,215251
29750,193142,40439,215246
29759,193171,40459,215243
29769,193158,40451,215223
29780,193143,40445,215237
29791,193163,40435,215234
29799,193144,40436,215213
29810,193171,40447,215223
29820,193161,40448,215264
29830,193150,40435,215225
29839,193176,40442,215236
29849,193164,40433,215228
29859,193157,40431,215235
29870,193155,40422,215247
29879,193167,40451,215221
29889,193149,40426,215244
29899,193152,40437,215209
29909,193166,40432,215230
29919,193163,40428,215214
29930,193153,40440,215232
29940,193148,40445,215249
29950,193128,40442,215241
29959,193158,40436,215225
29969,193144,40441,215238
29980,193153,40412,215223
29990,193145,40434,215208
30000,193124,40424,215224
30009,193133,40435,215218
30019,193160,40437,215216
30030,193141,40431,215226
30040,193168,40435,215222
30049,193149,40431,215222
30059,193155,40439,215215
30069,193154,40429,215219
30079,193145,40429,215220
30089,193160,40419,215217
30099,193140,40429,215243
30109,193151,40412,215245
30120,193145,40412,215235
30129,193146,40431,215225
30139,193151,40414,215229
30150,193147,40412,215247
30160,193130,40432,215251
30169,193117,40426,215234
30179,193141,40420,215208
30189,193144,40418,215246
30199,193134,40419,215215
30209,193138,40410,215230
30219,193153,40432,215239
30229,193135,40409,215206
30239,193151,40437,215222
30249,193121,40430,215236
30259,193146,40409,215224
30270,193109,40415,215229
30280,193128,40422,215198
30290,193125,40410,215213
30299,193112,40432,215227
30309,193119,40431,215232
30319,193125,40418,215211
30330,193127,40419,215214
30339,193125,40418,215213
30349,193123,40423,215217
30359,193134,40415,215205
30369,193136,40412,215205
30379,193128,40418,215206
30389,193122,40429,215211
30400,193124,40420,215190
30410,193125,40415,215202
30419,193095,40416,215203
30429,193123,40404,215217
30439,193114,40429,215201
30449,193127,40429,215212
30458,193131,40410,215185
30469,193139,40407,215199
30479,193105,40424,215210
30489,193110,40402,215175
30499,193108,40417,215174
30508,193109,40421,215176
30519,193108,40413,215186
30529,193115,40431,215197
30539,193116,40390,215184
30549,193122,40410,215203
30559,193120,40414,215199
30569,193101,40423,215196
30579,193120,40416,215159
30588,193125,40420,215178
30599,193089,40413,215185
30610,193113,40415,215198
30619,193106,40401,215214
30629,193111,40411,215191
30639,193116,40416,215162
30649,193108,40421,215193
30659,193114,40409,215170
30668,193113,40403,215178
30679,193109,40415,215185
30689,193096,40421,215182
30699,193084,40408,215191
30708,193091,40422,215194
30718,193122,40426,215169
30728,193117,40421,215194
30739,193111,40398,215177
30749,193104,40417,215185
30758,193115,40422,215194
30768,193109,40425,215189
30779,193100,40404,215176
30789,193107,40410,215198
30798,193107,40409,215205
30809,193113,40420,215198
30819,193119,40419,215188
30829,193118,40419,215201
30839,193112,40428,215177
30849,193129,40431,215179
30859,193108,40400,215179
30869,193110,40414,215180
30878,193117,40425,215156
30888,193124,40424,215182
30899,193120,40417,215183
30909,193110,40427,215158
30918,193126,40427,215175
30928,193104,40424,215166
30939,193098,40413,215182
30949,193105,40428,215170
30958,193098,40428,215189
30968,193104,40417,215178
30978,193091,40420,215194
30989,193114,40415,215195
30999,193118,40419,215173
31009,193096,40430,215188
31019,193102,40425,215197
31029,193101,40423,215183
31039,193109,40422,215176
31048,193102,40416,215163
31059,193120,40421,215199
31069,193088,40417,215168
31079,193127,40442,215160
31088,193106,40424,215179
31099,193132,40423,215176
31109,193123,40417,215180
31119,193110,40435,215167
31128,193112,40442,215185
31138,193116,40410,215175
31148,193111,40418,215179
31159,193112,40408,215172
31168,193108,40433,215169
31178,193119,40410,215169
31188,193095,40433,215193
31199,193119,40436,215174
31208,193111,40456,215176
31218,193092,40426,215181
31228,193114,40440,215165
31238,193109,40433,215171
31249,193112,40431,215190
31258,193099,40436,215158
31269,193117,40428,215177
31279,193102,40432,215192
31289,193126,40421,215176
31298,193127,40430,215211
31308,193107,40426,215205
31319,193123,40434,215192
31329,193118,40444,215205
31338,193114,40428,215198
31351,193128,40431,215182
31359,193125,40432,215199
31369,193138,40431,215205
31378,193113,40441,215175
31388,193121,40429,215191
31398,193122,40444,215189
31408,193136,40437,215211
31418,193136,40442,215182
31428,193113,40426,215196
31438,193114,40452,215196
31448,193128,40446,215205
31458,193116,40422,215196
31469,193126,40451,215193
31479,193117,40446,215212
31489,193134,40444,215191
31499,193093,40456,215195
31508,193107,40440,215199
31518,193129,40449,215196
31528,193129,40435,215205
31539,193130,40458,215218
31548,193119,40455,215195
31558,193117,40457,215194
31568,193131,40454,215232
31579,193113,40452,215214
31588,193137,40449,215229
31598,193116,40449,215226
31608,193147,40459,215217
31619,193125,40456,215202
31628,193139,40454,215220
31638,193153,40457,215219
31648,193128,40462,215223
31659,193141,40451,215244
31668,193124,40452,215232
31678,193137,40440,215226
31688,193147,40455,215239
31699,193144,40460,215228
31708,193147,40461,215193
31718,193153,40458,215224
31728,193152,40465,215238
31739,193149,40457,215214
31749,193145,40452,215199
31758,193138,40463,215211
31768,193138,40449,215209
31779,193158,40468,215198
31789,193153,40459,215220
31798,193129,40461,215218
31808,193158,40445,215244
31819,193163,40461,215227
31829,193149,40461,215243
31838,193130,40459,215240
31848,193156,40447,215212
31859,193135,40459,215227
31869,193151,40462,215240
31878,193166,40466,215247
31888,193160,40463,215216
31898,193149,40466,215242
31909,193164,40457,215225
31918,193154,40462,215222
31928,193147,40459,215240
31938,193150,40459,215254
31948,193159,40452,215240
31958,193159,40452,215250
31968,193163,40461,215238
31977,193139,40466,215267
31988,193168,40443,215259
31999,193157,40458,215242
32008,193155,40452,215232
32017,193160,40445,215246
32028,193163,40454,215254
32039,193161,40477,215235
32048,193164,40456,215225
32058,193154,40461,215241
32068,193174,40457,215234
32078,193156,40464,215221
32087,193157,40462,215248
32098,193165,40474,215253
32108,193163,40470,215258
32118,193157,40466,215259
32128,193172,40462,215247
32138,193165,40463,215234
32148,193169,40451,215216
32158,193171,40467,215256
32168,193172,40470,215250
32178,193189,40476,215252
32188,193183,40455,215257
32198,193159,40455,215248
32208,193159,40463,215243
32217,193176,40441,215262
32228,193175,40463,215256
32238,193168,40461,215226
32248,193172,40474,215256
32258,193164,40480,215257
32268,193169,40456,215256
32278,193172,40470,215258
32288,193164,40468,215242
32297,193169,40471,215246
32307,193160,40482,215241
32318,193170,40473,215251
32328,193178,40476,215250
32337,193176,40468,215262
32348,193179,40472,215249
32358,193180,40467,215256
32368,193172,40476,215267
32377,193176,40484,215273
32387,193183,40475,215263
32398,193183,40468,215254
32408,193174,40482,215256
32417,193189,40460,215265
32427,193184,40472,215254
32438,193182,40467,215283
32448,193189,40481,215252
32458,193191,40461,215264
32467,193177,40466,215261
32478,193191,40483,215264
32488,193181,40484,215267
32498,193193,40488,215241
32508,193161,40474,215269
32518,193200,40475,215271
32528,193190,40484,215262
32538,193172,40485,215269
32547,193184,40482,215246
32558,193156,40485,215246
32568,193192,40477,215240
32578,193173,40490,215249
32587,193157,40477,215252
32598,193167,40465,215252
32608,193171,40472,215253
32618,193175,40472,215277
32627,193180,40476,215264
32637,193185,40488,215255
32647,193161,40487,215264
32658,193176,40485,215275
32667,193166,40469,215274
32677,193175,40473,215276
32691,193176,40474,215250
32698,193192,40472,215268
32708,193172,40471,215266
32717,193167,40477,215238
32727,193183,40472,215244
32738,193175,40463,215256
32748,193152,40473,215238
32757,193190,40464,215256
32767,193168,40468,215251
32777,193165,40468,215263
32788,193168,40455,215240
32797,193164,40466,215246
32807,193140,40457,215263
32817,193159,40452,215243
32828,193142,40469,215251
32836,193167,40456,215236
32847,193157,40452,215258
32858,193161,40466,215244
32868,193160,40479,215229
32877,193157,40469,215245
32887,193165,40459,215235
32897,193169,40453,215220
32907,193164,40454,215251
32917,193151,40463,215243
32927,193167,40471,215255
32937,193165,40456,215246
32947,193162,40462,215260
32957,193199,40447,215247
32966,193153,40461,215240
32977,193176,40445,215262
32987,193163,40467,215243
32998,193140,40467,215250
33007,193156,40470,215245
33017,193159,40460,215248
33027,193150,40468,215234
33038,193172,40463,215233
33047,193131,40464,215244
33057,193158,40464,215224
33067,193161,40474,215236
33077,193165,40474,215231
33086,193156,40466,215246
33097,193136,40474,215252
33107,193167,40452,215253
33117,193156,40466,215251
33126,193156,40473,215244
33137,193156,40461,215263
33147,193175,40467,215254
33157,193141,40473,215230
33167,193167,40477,215241
33176,193158,40478,215215
33187,193164,40456,215236
33197,193165,40463,215246
33207,193155,40456,215239
33217,193172,40456,215248
33227,193153,40480,215241
33237,193148,40474,215241
33247,193167,40468,215239
33257,193162,40457,215246
33267,193154,40465,215242
33277,193153,40456,215234
33287,193168,40474,215212
33296,193157,40481,215231
33307,193137,40479,215239
33317,193158,40461,215232
33327,193140,40479,215246
33336,193164,40468,215217
33347,193164,40450,215234
33357,193149,40466,215217
33367,193156,40470,215217
33377,193151,40456,215224
33387,193152,40459,215229
33397,193164,40463,215220
33407,193154,40463,215210
33416,193158,40460,215232
33426,193139,40467,215225
33437,193149,40454,215227
33447,193141,40464,215211
33457,193142,40449,215209
33466,193142,40459,215203
33476,193128,40450,215237
33487,193152,40436,215225
33497,193153,40454,215230
33506,193147,40457,215218
33517,193148,40450,215227
33527,193146,40446,215203
33537,193139,40437,215226
33546,193132,40447,215198
33557,193156,40445,215234
33567,193157,40435,215197
33577,193143,40458,215207
33586,193135,40457,215200
33597,193143,40444,215206
33607,193139,40454,215198
33617,193118,40433,215224
33626,193148,40449,215195
33637,193118,40457,215226
33647,193147,40435,215206
33657,193125,40454,215228
33666,193123,40440,215219
33676,193141,40441,215207
33686,193143,40442,215228
33697,193131,40452,215215
33707,193136,40445,215214
33716,193146,40450,215215
33727,193136,40442,215208
33737,193148,40448,215173
33747,193139,40452,215208
33756,193116,40434,215214
33767,193138,40433,215198
33777,193117,40448,215198
33787,193133,40437,215214
33796,193132,40441,215213
33806,193107,40458,215214
33816,193133,40440,215199
33826,193140,40442,215233
33836,193146,40429,215218
33846,193142,40454,215222
33856,193148,40440,215225
33867,193113,40449,215220
33876,193142,40436,215224
33886,193112,40444,215225
33896,193134,40434,215210
33907,193117,40447,215207
33916,193131,40437,215220
33926,193132,40442,215208
33937,193100,40442,215231
33947,193134,40450,215212
33957,193134,40435,215235
33966,193110,40434,215218
33976,193105,40433,215193
33986,193138,40440,215231
33996,193121,40436,215224
34005,193138,40454,215211
34016,193147,40422,215214
34027,193129,40427,215210
34037,193130,40448,215230
34046,193146,40445,215202
34056,193124,40452,215218
34066,193132,40443,215220
34077,193123,40441,215216
34086,193121,40436,215203
34096,193114,40430,215227
34106,193109,40437,215217
34117,193119,40449,215201
34126,193102,40441,215217
34136,193119,40446,215241
34146,193127,40430,215213
34156,193105,40448,215235
34166,193131,40416,215243
34176,193107,40441,215214
34186,193119,40445,215195
34196,193093,40430,215210
34206,193120,40439,215209
34216,193098,40432,215205
34226,193121,40436,215196
34236,193111,40451,215223
34247,193096,40434,215197
34255,193114,40433,215193
34266,193116,40418,215192
34277,193117,40436,215181
34287,193113,40422,215190
34296,193124,40433,215211
34306,193093,40427,215215
34316,193104,40432,215196
34326,193113,40426,215186
34335,193103,40417,215196
34346,193098,40419,215200
34356,193098,40424,215168
34367,193076,40433,215195
34375,193094,40419,215186
34386,193112,40413,215188
34396,193094,40420,215204
34406,193104,40424,215197
34416,193085,40427,215200
34425,193071,40428,215190
34435,193080,40422,215199
34446,193078,40400,215191
34456,193106,40415,215164
34466,193099,40408,215171
34476,193095,40428,215178
34486,193087,40418,215177
34496,193098,40410,215186
34505,193091,40419,215160
34516,193075,40410,215177
34526,193079,40419,215172
34536,193066,40411,215178
34545,193077,40432,215163
34555,193085,40405,215169
34565,193078,40429,215154
34576,193084,40400,215165
34586,193085,40418,215164
34595,193081,40420,215158
34606,193068,40415,215164
34616,193087,40409,215137
34626,193063,40428,215182
34636,193078,40404,215161
34646,193079,40412,215170
34656,193048,40422,215160
34666,193087,40418,215178
34676,193051,40421,215161
34686,193075,40429,215155
34696,193053,40410,215165
34706,193079,40404,215158
34715,193067,40414,215157
34726,193075,40428,215171
34735,193075,40418,215157
34746,193071,40407,215145
34755,193086,40422,215175
34766,193071,40411,215144
34776,193087,40419,215174
34786,193047,40430,215158
34795,193061,40411,215147
34805,193069,40416,215166
34816,193072,40420,215165
34826,193075,40428,215153
34835,193079,40415,215169
34845,193071,40429,215132
34855,193072,40423,215145
34865,193075,40427,215159
34875,193087,40428,215163
34886,193044,40434,215159
34896,193079,40426,215164
34906,193054,40428,215179
34916,193077,40423,215169
34925,193065,40404,215140
34935,193059,40428,215155
34946,193060,40425,215143
34956,193070,40425,215148
34965,193057,40432,215167
34975,193076,40429,215146
34986,193069,40419,215162
34995,193072,40431,215145
35005,193065,40414,215169
35015,193082,40420,215161
35025,193088,40427,215167
35035,193071,40434,215174
35044,193076,40429,215167
35055,193071,40422,215145
35066,193091,40418,215160
35076,193100,40436,215143
35085,193084,40427,215123
35095,193079,40423,215162
35105,193074,40422,215165
35116,193085,40435,215156
35125,193064,40414,215168
35135,193058,40420,215159
35145,193084,40419,215149
35155,193070,40431,215161
35165,193086,40421,215159
35175,193097,40428,215163
35185,193095,40429,215153
35195,193087,40437,215190
35206,193078,40419,215151
35214,193092,40449,215170
35225,193080,40416,215177
35236,193076,40445,215160
35246,193077,40435,215139
35255,193058,40429,215168
35265,193087,40426,215172
35275,193078,40432,215178
35285,193080,40431,215169
35295,193098,40426,215174
35305,193081,40439,215184
35315,193088,40429,215186
35325,193090,40430,215192
35334,193093,40433,215184
35345,193091,40428,215180
35355,193083,40432,215205
35366,193094,40418,215187
35375,193085,40446,215190
35385,193092,40443,215183
35395,193098,40437,215188
35405,193090,40436,215164
35416,193093,40432,215175
35425,193070,40444,215184
35435,193069,40453,215183
35445,193093,40443,215188
35455,193097,40429,215174
35465,193082,40458,215198
35475,193096,40455,215186
35486,193105,40451,215208
35495,193102,40439,215172
35505,193112,40435,215191
35515,193096,40445,215216
35525,193083,40446,215210
35535,193107,40449,215201
35544,193093,40462,215211
35555,193102,40464,215207
35565,193084,40455,215192
35575,193088,40454,215202
35584,193098,40443,215215
35594,193117,40454,215219
35605,193107,40435,215209
35615,193094,40461,215218
35625,193116,40473,215195
35634,193103,40455,215202
35645,193099,40443,215207
35655,193112,40444,215216
35665,193118,40458,215197
35675,193098,40460,215216
35685,193118,40456,215210
35695,193109,40460,215218
35705,193105,40462,215202
35715,193109,40454,215216
35725,193107,40454,215201
35735,193117,40458,215215
35745,193123,40476,215215
35754,193115,40451,215240
35765,193108,40469,215240
35775,193119,40479,215234
35785,193142,40468,215225
35794,193126,40447,215225
35805,193108,40459,215220
35815,193113,40466,215242
35825,193111,40456,215245
35834,193120,40461,215233
35844,193124,40477,215230
35855,193119,40457,215249
35865,193123,40467,215232
35875,193115,40479,215246
35884,193145,40474,215241
35894,193130,40469,215236
35904,193127,40477,215251
35915,193136,40441,215235
35925,193116,40465,215246
35935,193124,40470,215224
35945,193138,40472,215227
35955,193127,40477,215230
35964,193141,40476,215247
35974,193156,40472,215266
35985,193150,40465,215243
35995,193141,40463,215248
36005,193120,40468,215264
36014,193146,40467,215244
36025,193132,40477,215272
36035,193148,40483,215220
36044,193145,40472,215229
36054,193124,40467,215254
36064,193127,40475,215254
36075,193149,40479,215232
36084,193154,40475,215242
36094,193143,40484,215256
36105,193122,40474,215261
36114,193142,40479,215262
36125,193132,40469,215276
36134,193144,40486,215260
36144,193131,40479,215270
36154,193144,40481,215264
36164,193137,40474,215275
36174,193143,40476,215261
36185,193163,40479,215252
36195,193149,40482,215249
36205,193151,40474,215257
36214,193127,40481,215246
36224,193137,40464,215246
36235,193129,40488,215258
36245,193148,40478,215246
36254,193161,40469,215253
36264,193155,40469,215254
36274,193145,40483,215259
36284,193159,40472,215229
36294,193141,40470,215258
36304,193140,40475,215240
36314,193145,40475,215266
36325,193155,40460,215256
36334,193154,40479,215258
36344,193152,40478,215242
36355,193136,40491,215252
36365,193153,40471,215250
36375,193143,40483,215241
36384,193160,40479,215256
36394,193164,40468,215269
36404,193152,40493,215256
36414,193160,40485,215274
36424,193161,40473,215267
36435,193155,40473,215264
36445,193160,40489,215248
36455,193142,40485,215273
36464,193138,40493,215275
36474,193148,40479,215266
36484,193149,40473,215265
36495,193144,40484,215277
36504,193152,40474,215263
36514,193134,40483,215252
36524,193145,40474,215266
36535,193151,40492,215239
36544,193143,40471,215268
36554,193129,40471,215249
36564,193134,40492,215265
36575,193174,40475,215252
36584,193156,40488,215279
36594,193141,40499,215250
36604,193163,40493,215250
36614,193144,40492,215254
36625,193146,40486,215275
36633,193149,40490,215255
36644,193166,40491,215268
36654,193146,40490,215288
36665,193148,40491,215280
36673,193157,40490,215271
36684,193121,40482,215280
36694,193166,40496,215279
36705,193131,40489,215287
36713,193148,40486,215276
36724,193161,40480,215270
36734,193157,40499,215283
36744,193138,40482,215263
36754,193150,40484,215269
36764,193153,40488,215262
36774,193162,40491,215285
36785,193123,40485,215272
36793,193164,40481,215269
36804,193138,40455,215261
36814,193141,40477,215252
36825,193162,40475,215272
36834,193138,40471,215243
36844,193179,40484,215240
36854,193126,40478,215275
36864,193158,40468,215269
36874,193147,40472,215274
36883,193153,40477,215233
36893,193123,40480,215271
36904,193144,40469,215276
36914,193144,40471,215246
36923,193118,40480,215294
36933,193156,40456,215275
36944,193164,40471,215275
36954,193148,40471,215277
36964,193165,40451,215289
36974,193140,40459,215297
36984,193152,40465,215304
36994,193148,40467,215278
37003,193161,40479,215277
37013,193166,40457,215302
37024,193144,40460,215290
37034,193151,40462,215294
37043,193124,40476,215270
37053,193135,40454,215279
37064,193106,40450,215269
37074,193088,40451,215244
37083,193060,40455,215224
37094,193054,40450,215188
37104,193033,40454,215173
37114,193008,40463,215161
37124,193023,40441,215162
37133,192986,40465,215120
37143,192990,40449,215118
37154,192974,40421,215095
37164,192977,40436,215130
37173,192996,40435,215104
37184,193006,40446,215115
37194,193005,40447,215083
37204,192980,40454,215116
37213,193005,40460,215094
37223,192996,40457,215099
37234,193016,40462,215095
37244,193021,40472,215114
37253,193015,40469,215112
37263,193033,40457,215112
37273,193033,40462,215144
37284,193056,40453,215141
37293,193074,40458,215170
37304,193064,40467,215171
37314,193054,40462,215178
37324,193057,40451,215159
37333,193075,40453,215174
37343,193048,40461,215191
37354,193076,40451,215180
37364,193082,40465,215195
37374,193081,40466,215188
37383,193081,40458,215211
37393,193108,40458,215201
37404,193088,40459,215201
37414,193088,40458,215193
37423,193087,40451,215200
37433,193111,40447,215225
37443,193103,40461,215233
37454,193082,40465,215199
37471,193089,40466,215219
37474,193091,40455,215227
37484,193106,40463,215212
37494,193104,40469,215207
37503,193078,40478,215236
37513,193088,40463,215235
37523,193110,40460,215227
37534,193096,40464,215244
37543,193129,40462,215232
37553,193100,40461,215239
37564,193116,40446,215230
37574,193099,40456,215225
37583,193083,40458,215238
37593,193121,40454,215220
37603,193106,40456,215225
37614,193102,40461,215216
37624,193128,40438,215212
37633,193123,40454,215236
37644,193129,40463,215248
37653,193109,40452,215218
37664,193118,40442,215212
37673,193099,40463,215222
37683,193100,40440,215252
37693,193111,40442,215238
37704,193094,40441,215266
37713,193127,40456,215249
37723,193112,40443,215230
37734,193121,40438,215252
37744,193120,40464,215216
37753,193116,40444,215238
37763,193095,40447,215239
37773,193104,40464,215237
37784,193076,40444,215244
37792,193104,40446,215231
37803,193112,40450,215247
37814,193092,40444,215234
37824,193066,40435,215217
37833,193084,40453,215230
37843,193098,40439,215231
37853,193104,40437,215244
37863,193093,40436,215228
37873,193098,40429,215235
37882,193100,40442,215246
37893,193088,40440,215220
37904,193098,40438,215249
37914,193083,40445,215221
37923,193086,40444,215193
37933,193078,40436,215214
37943,193098,40442,215193
37953,193093,40445,215204
37962,193078,40450,215186
37973,193068,40437,215206
37983,193082,40437,215189
37993,193049,40434,215192
38003,193076,40442,215182
38012,193053,40427,215185
38023,193059,40430,215195
38034,193047,40449,215195
38043,193055,40441,215161
38053,193042,40451,215197
38063,193059,40440,215171
38074,193048,40437,215190
38083,193084,40456,215140
38093,193010,40456,215193
38103,193039,40443,215131
38114,193038,40437,215170
38124,193051,40437,215142
38133,193022,40438,215165
38143,193048,40445,215167
38153,193047,40451,215141
38163,193016,40429,215147
38173,193021,40438,215174
38183,193030,40450,215117
38193,193043,40453,215162
38203,193056,40440,215116
38212,193033,40443,215136
38222,193048,40441,215138
38233,193052,40410,215145
38243,193043,40439,215165
38252,193028,40433,215151
38263,193027,40437,215169
38273,193013,40433,215128
38283,193023,40439,215145
38293,193043,40442,215128
38303,193012,40451,215177
38313,193010,40442,215135
38323,193016,40440,215097
38333,193029,40439,215116
38342,193010,40451,215108
38353,193011,40454,215132
38363,193040,40447,215128
38373,193033,40445,215142
38383,193040,40451,215148
38393,193039,40455,215153
38403,193019,40454,215134
38413,193007,40445,215142
38422,193029,40450,215161
38433,193032,40445,215141
38443,193032,40444,215124
38453,193017,40440,215128
38462,193028,40453,215082
38472,193032,40437,215126
38482,193029,40447,215145
38493,193033,40429,215125
38503,193023,40434,215133
38513,193032,40448,215112
38523,193046,40446,215136
38533,193017,40444,215147
38542,193026,40454,215161
38552,193012,40448,215157
38562,193025,40449,215146
38573,193022,40449,215148
38583,193040,40444,215161
38592,193008,40449,215135
38602,193040,40454,215186
38613,193026,40457,215142
38623,193034,40455,215162
38632,193010,40449,215144
38642,193040,40468,215169
38653,193036,40456,215151
38663,193026,40457,215153
38672,193034,40439,215146
38683,193036,40466,215135
38692,193033,40455,215145
38703,193037,40441,215158
38712,193037,40454,215155
38723,193039,40445,215169
38732,193027,40470,215145
38743,193035,40461,215164
38752,193033,40457,215145
38762,193023,40456,215155
38773,193047,40439,215150
38783,193027,40434,215138
38792,193046,40460,215124
38802,193050,40456,215134
38812,193028,40456,215116
38822,193044,40463,215149
38832,193044,40470,215120
38842,193056,40478,215103
38852,193029,40465,215148
38863,193018,40476,215118
38873,193046,40466,215125
38882,193012,40461,215145
38893,193034,40473,215134
38903,193048,40469,215149
38913,193043,40468,215138
38922,193032,40452,215119
38932,193040,40465,215116
38942,193034,40472,215108
38952,193038,40469,215128
38961,193044,40476,215140
38972,193051,40455,215122
38982,193054,40491,215123
38992,193038,40456,215147
39002,193049,40458,215112
39012,193058,40478,215134
39023,193054,40454,215138
39033,193044,40463,215120
39042,193043,40476,215149
39052,193022,40490,215143
39062,193057,40453,215108
39073,193038,40475,215115
39083,193028,40477,215118
39091,193053,40490,215149
39102,193053,40477,215154
39113,193049,40465,215139
39123,193031,40463,215175
39132,193061,40462,215138
39142,193062,40487,215159
39153,193030,40476,215158
39163,193057,40469,215154
39172,193045,40483,215169
39182,193071,40476,215178
39192,193066,40490,215178
39202,193071,40486,215163
39211,193081,40482,215188
39222,193062,40468,215161
39232,193053,40481,215166
39243,193065,40471,215195
39251,193056,40485,215173
39262,193072,40480,215171
39272,193070,40497,215164
39283,193081,40452,215169
39292,193066,40474,215148
39302,193052,40482,215164
39312,193055,40481,215174
39322,193076,40476,215163
39332,193072,40479,215167
39341,193057,40472,215185
39351,193072,40480,215173
39362,193064,40462,215164
39372,193064,40488,215168
39382,193039,40459,215191
39392,193046,40486,215169
39402,193036,40480,215187
39412,193062,40464,215170
39421,193060,40476,215146
39432,193065,40470,215176
39442,193063,40463,215200
39452,193077,40481,215160
39461,193042,40491,215192
39471,193076,40460,215181
39482,193068,40487,215178
39492,193056,40479,215193
39501,193054,40492,215185
39512,193068,40453,215207
39522,193077,40458,215207
39532,193059,40469,215189
39541,193068,40466,215208
39552,193065,40497,215197
39562,193036,40491,215191
39572,193058,40475,215190
39582,193067,40492,215213
39591,193062,40474,215204
39601,193074,40474,215190
39612,193069,40484,215194
39622,193076,40474,215187
39631,193069,40490,215206
39641,193096,40486,215168
39652,193055,40485,215203
39662,193065,40472,215209
39671,193058,40493,215217
39682,193056,40479,215195
39692,193058,40467,215179
39702,193051,40496,215203
39712,193077,40486,215227
39722,193068,40489,215199
39732,193055,40504,215218
39742,193070,40495,215203
39751,193082,40473,215211
39761,193084,40473,215209
39772,193084,40494,215201
39782,193083,40496,215222
39791,193071,40477,215218
39801,193073,40478,215209
39812,193075,40493,215233
39822,193083,40505,215205
39832,193071,40490,215227
39841,193101,40516,215218
39851,193086,40506,215226
39862,193094,40496,215236
39872,193098,40502,215226
39881,193104,40500,215231
39892,193076,40498,215204
39902,193094,40507,215219
39912,193084,40503,215224
39921,193085,40519,215217
39932,193077,40505,215230
39942,193085,40505,215216
39952,193076,40515,215222
39961,193088,40501,215227
39971,193099,40504,215239
39981,193070,40510,215230
39991,193061,40515,215234
40001,193088,40493,215226
40011,193099,40510,215232
40022,193102,40511,215232
40032,193096,40518,215218
40041,193086,40503,215226
40052,193096,40518,215211
40062,193104,40497,215205
40072,193105,40504,215223
40082,193100,40497,215210
40091,193106,40497,215223
40101,193086,40518,215222
40112,193108,40504,215212
40122,193084,40514,215221
40131,193107,40484,215229
40141,193097,40524,215231
40152,193090,40480,215219
40162,193083,40511,215210
40171,193098,40503,215229
40181,193080,40498,215220
40192,193100,40495,215244
40202,193090,40503,215228
40211,193089,40508,215229
40221,193100,40515,215219
40231,193103,40503,215222
40241,193096,40519,215239
40251,193101,40488,215212
40261,193092,40495,215211
40272,193094,40503,215235
40282,193098,40504,215211
40291,193091,40494,215228
40301,193093,40503,215231
40312,193105,40488,215230
40322,193105,40484,215231
40332,193090,40494,215234
40341,193098,40478,215225
40351,193098,40510,215231
40361,193103,40481,215231
40371,193089,40500,215223
40381,193081,40507,215224
40391,193088,40488,215200
40401,193067,40501,215208
40412,193071,40497,215216
40421,193097,40506,215218
40431,193089,40513,215212
40441,193100,40494,215221
40452,193074,40503,215235
40461,193101,40508,215242
40471,193091,40503,215193
40481,193075,40504,215226
40491,193098,40485,215216
40500,193086,40500,215215
40511,193089,40504,215215
40521,193085,40510,215223
40531,193092,40493,215214
40541,193074,40499,215227
40551,193080,40496,215241
40561,193082,40496,215234
40572,193092,40507,215232
40582,193097,40515,215233
40591,193077,40502,215229
40601,193080,40503,215240
40611,193089,40486,215216
40621,193090,40521,215228
40630,193092,40508,215207
40641,193064,40510,215216
40651,193078,40508,215190
40661,193085,40496,215206
40671,193079,40510,215216
40681,193077,40521,215208
40691,193100,40505,215218
40701,193068,40511,215228
40711,193068,40517,215224
40721,193077,40509,215211
40731,193082,40501,215208
40741,193083,40486,215215
40751,193058,40494,215210
40761,193091,40509,215213
40771,193075,40496,215221
40781,193077,40487,215198
40791,193067,40502,215219
40801,193080,40501,215207
40811,193080,40503,215201
40821,193056,40488,215211
40831,193080,40512,215193
40840,193082,40493,215199
40851,193077,40500,215204
40861,193078,40513,215200
40871,193080,40491,215205
40881,193091,40498,215183
40891,193084,40506,215189
40901,193063,40500,215194
40911,193083,40487,215195
40920,193082,40491,215201
40931,193080,40498,215196
40941,193085,40510,215232
40951,193078,40499,215205
40960,193057,40487,215214
40970,193069,40486,215207
40981,193069,40473,215206
40991,193096,40502,215193
41000,193060,40501,215202
41011,193097,40489,215187
41021,193052,40497,215195
41031,193067,40481,215185
41041,193055,40481,215186
41050,193094,40475,215182
41060,193074,40471,215204
41070,193063,40471,215206
41081,193090,40489,215196
41090,193080,40480,215211
41100,193067,40480,215199
41110,193083,40478,215200
41120,193058,40481,215215
41131,193080,40471,215203
41141,193063,40476,215178
41151,193073,40488,215184
41161,193065,40478,215200
41170,193066,40490,215195
41180,193048,40476,215184
41191,193074,40471,215189
41201,193058,40494,215163
41210,193055,40482,215177
41220,193043,40492,215206
41230,193059,40474,215201
41241,193031,40472,215206
41250,193073,40467,215198
41260,193045,40475,215209
41270,193066,40468,215209
41280,193052,40476,215173
41291,193067,40475,215195
41300,193039,40474,215210
41311,193046,40474,215200
41320,193056,40477,215185
41331,193039,40478,215207
41340,193067,40477,215185
41351,193043,40485,215190
41361,193042,40490,215208
41371,193044,40472,215175
41380,193050,40466,215211
41390,193043,40460,215205
41400,193051,40470,215207
41410,193045,40456,215198
41420,193067,40453,215215
41430,193052,40477,215200
41440,193030,40456,215210
41450,193044,40482,215176
41460,193041,40474,215209
41470,193044,40476,215189
41480,193021,40468,215207
41490,193064,40469,215175
41500,193049,40478,215194
41509,193044,40469,215189
41521,193045,40465,215193
41531,193039,40465,215197
41541,193020,40469,215193
41550,193039,40470,215177
41560,193044,40470,215168
41570,193053,40478,215207
41581,193054,40468,215203
41590,193034,40466,215199
41600,193034,40473,215189
41610,193030,40483,215195
41620,193046,40470,215187
41629,193039,40470,215188
41639,193060,40460,215199
41650,193031,40460,215180
41660,193056,40469,215161
41669,193040,40437,215167
41680,193025,40464,215156
41691,193026,40468,215190
41700,193027,40457,215179
41710,193044,40435,215180
41720,193021,40457,215137
41730,193033,40455,215172
41740,193033,40432,215160
41750,193045,40465,215160
41759,193021,40468,215152
41771,193018,40454,215166
41780,193037,40446,215148
41791,193022,40457,215164
41800,193030,40465,215137
41810,193029,40464,215158
41820,193046,40449,215167
41830,193032,40464,215155
41839,193016,40456,215168
41850,193027,40438,215146
41860,193020,40450,215128
41870,193004,40452,215163
41879,193021,40448,215164
41889,193025,40448,215163
41899,193005,40445,215155
41910,193025,40441,215146
41919,193019,40459,215163
41929,193018,40439,215150
41940,193014,40443,215154
41950,193028,40448,215157
41959,193011,40436,215143
41970,193002,40440,215133
41980,193010,40443,215111
41990,193012,40434,215149
42000,193016,40434,215143
42009,193004,40447,215116
42019,192987,40442,215129
42030,193001,40429,215129
42040,193003,40445,215119
42049,192988,40449,215146
42060,193008,40445,215125
42070,193010,40439,215119
42080,192993,40439,215137
42089,193014,40436,215147
42099,192994,40428,215156
42110,193005,40429,215134
42120,192988,40439,215108
42129,193003,40441,215125
42139,192998,40430,215113
42149,192984,40447,215121
42160,193000,40443,215121
42169,193003,40434,215146
42179,193004,40434,215119
42190,192991,40447,215133
42200,192997,40451,215131
42209,192976,40452,215121
42219,192997,40447,215111
42229,192987,40449,215134
42240,192979,40451,215124
42250,192991,40433,215118
42259,192999,40432,215130
42269,193002,40441,215125
42279,192993,40443,215111
42290,193003,40416,215140
42299,192994,40443,215106
42309,192985,40435,215132
42320,192995,40439,215121
42330,192995,40441,215124
42339,192988,40446,215117
42349,192989,40455,215125
42359,192992,40448,215136
42369,193003,40449,215117
42379,193016,40440,215117
42390,192985,40461,215121
42400,192998,40455,215129
42410,193012,40457,215127
42419,192975,40461,215136
42429,193009,40449,215137
42439,192996,40455,215123
42449,193000,40441,215130
42459,192985,40444,215118
42470,192986,40444,215095
42480,192989,40438,215096
42492,193010,40466,215124
42500,193004,40461,215120
42509,192988,40451,215126
42519,192983,40446,215114
42529,193008,40446,215131
42540,193000,40458,215125
42549,193005,40454,215118
42559,192998,40449,215094
42569,192995,40457,215116
42579,192996,40433,215137
42588,193001,40454,215149
42599,192996,40413,215135
42609,192999,40453,215148
42619,193006,40432,215138
42628,192999,40451,215141
42639,193006,40425,215143
42649,192993,40451,215121
42660,193011,40440,215144
42669,193008,40456,215156
42679,193012,40441,215138
42689,193008,40443,215147
42699,193013,40425,215145
42709,193009,40444,215152
42718,192991,40461,215155
42729,193001,40436,215154
42740,192996,40450,215147
42750,192994,40440,215157
42759,193001,40461,215146
42769,193004,40455,215152
42780,192981,40440,215156
42790,192989,40450,215137
42799,192992,40446,215157
42809,193009,40454,215146
42819,193011,40461,215167
42829,193007,40448,215151
42838,192995,40454,215157
42849,192998,40445,215174
42860,193015,40449,215166
42870,193005,40436,215176
42879,192993,40453,215174
42889,193007,40440,215153
42899,192983,40447,215175
42909,193003,40444,215183
42918,193026,40454,215197
42928,193005,40457,215170
42939,193000,40451,215175
42949,193006,40463,215188
42958,193009,40444,215171
42969,193024,40455,215175
42979,193012,40467,215185
42989,193006,40456,215199
42999,193036,40461,215188
43011,193019,40465,215195
43019,193031,40457,215191
43030,193021,40454,215197
43039,193034,40456,215187
43049,193026,40446,215208
43059,193019,40457,215189
43069,193021,40446,215205
43079,193044,40471,215187
43088,193027,40465,215216
43099,193042,40467,215207
43109,193029,40469,215201
43119,193018,40472,215203
43128,193002,40483,215183
43139,193018,40463,215202
43149,193035,40467,215189
43159,193036,40467,215191
43168,193036,40474,215172
43179,193037,40464,215195
43189,193043,40468,215196
43199,193038,40466,215206
43208,193032,40472,215196
43219,193018,40476,215202
43229,193042,40464,215184
43239,193062,40476,215188
43249,193050,40471,215213
43258,193050,40468,215191
43268,193036,40456,215216
43279,193046,40469,215183
43289,193048,40471,215200
43298,193048,40471,215222
43308,193043,40473,215195
43319,193050,40470,215203
43329,193044,40453,215218
43338,193063,40471,215234
43349,193023,40482,215225
43359,193046,40468,215219
43369,193045,40448,215240
43378,193060,40470,215219
43388,193032,40454,215229
43399,193049,40459,215220
43409,193079,40466,215219
43418,193026,40463,215218
43428,193060,40464,215224
43439,193059,40458,215225
43449,193056,40477,215212
43458,193064,40464,215200
43468,193058,40484,215230
43479,193068,40456,215233
43489,193042,40465,215228
43499,193067,40471,215219
43508,193053,40461,215221
43519,193057,40472,215222
43529,193040,40471,215225
43539,193075,40458,215233
43548,193072,40467,215202
43559,193033,40475,215210
43569,193066,40469,215237
43579,193073,40459,215230
43588,193056,40472,215193
43599,193045,40471,215224
43609,193068,40476,215244
43619,193058,40459,215219
43628,193062,40455,215224
43638,193071,40471,215214
43648,193068,40465,215240
43659,193087,40466,215218
43668,193052,40468,215219
43678,193046,40468,215228
43688,193063,40477,215242
43698,193070,40449,215225
43708,193052,40479,215231
43718,193065,40444,215236
43728,193064,40473,215236
43738,193055,40461,215245
43748,193055,40472,215228
43758,193056,40461,215234
43768,193056,40477,215212
43778,193057,40471,215227
43788,193078,40471,215232
43798,193061,40473,215238
43809,193056,40470,215224
43818,193061,40467,215215
43829,193060,40464,215233
43837,193061,40459,215234
43848,193041,40481,215225
43858,193052,40481,215197
43869,193084,40479,215229
43877,193059,40475,215229
43888,193044,40471,215228
43898,193050,40483,215224
43909,193047,40475,215216
43917,193056,40473,215214
43929,193050,40459,215218
43938,193044,40485,215226
43949,193051,40472,215232
43958,193062,40473,215215
43968,193060,40461,215229
43979,193044,40488,215223
43989,193048,40477,215231
43999,193060,40469,215239
44008,193045,40483,215224
44018,193058,40477,215221
44029,193051,40468,215243
44039,193088,40478,215236
44048,193057,40473,215218
44058,193030,40489,215223
44068,193056,40476,215222
44078,193051,40455,215229
44088,193031,40479,215201
44097,193055,40475,215204
44108,193078,40459,215229
44119,193062,40471,215233
44128,193047,40468,215214
44138,193051,40478,215235
44148,193057,40476,215229
44158,193040,40479,215226
44167,193060,40476,215225
44177,193055,40470,215225
44188,193034,40478,215233
44198,193060,40463,215218
44208,193070,40462,215238
44218,193050,40460,215237
44228,193042,40465,215220
44238,193055,40450,215229
44248,193057,40465,215219
44258,193044,40454,215230
44268,193046,40465,215214
44278,193063,40444,215224
44288,193025,40448,215216
44298,193033,40463,215191
44308,193042,40461,215206
44318,193024,40449,215205
44328,193035,40464,215194
44337,193042,40456,215220
44347,193038,40452,215225
44358,193060,40449,215210
44368,193037,40460,215215
44378,193051,40447,215217
44388,193038,40458,215220
44398,193020,40464,215215
44408,193044,40456,215214
44418,193029,40462,215218
44428,193035,40464,215225
44438,193022,40453,215208
44448,193039,40464,215212
44458,193036,40463,215213
44468,193038,40457,215220
44478,193035,40448,215214
44488,193005,40472,215219
44498,193030,40462,215198
44507,193033,40474,215223
44517,193022,40463,215215
44527,193024,40460,215183
44538,193043,40444,215223
44548,193031,40434,215209
44558,193031,40458,215196
44568,193020,40458,215213
44578,193037,40457,215204
44587,193031,40454,215201
44597,193038,40455,215184
44607,193027,40460,215200
44618,193042,40450,215217
44628,193026,40444,215231
44638,193030,40454,215212
44648,193019,40473,215187
44658,193013,40457,215216
44667,193027,40458,215222
44677,193024,40460,215225
44687,193023,40454,215226
44698,193019,40470,215215
44708,193007,40454,215225
44718,193030,40455,215205
44728,193028,40451,215213
44738,193024,40454,215213
44748,193024,40448,215214
44757,193035,40461,215193
44767,193014,40454,215206
44777,193018,40443,215222
44787,193022,40461,215231
44797,193038,40436,215228
44807,193021,40466,215236
44817,193024,40447,215208
44827,193025,40470,215225
44837,193015,40461,215202
44847,193023,40463,215213
44857,193024,40456,215227
44867,193023,40465,215204
44877,193012,40449,215216
44888,193021,40459,215212
44898,193026,40472,215201
44908,193025,40456,215205
44917,193006,40467,215211
44927,193009,40458,215195
44938,193016,40454,215204
44948,193020,40460,215196
44958,192987,40461,215208
44967,193001,40446,215220
44977,193024,40452,215225
44987,193009,40437,215229
44998,193022,40457,215208
45007,193011,40446,215204
45017,193018,40451,215225
45028,193017,40450,215228
45037,193003,40444,215193
45047,193028,40438,215223
45057,193011,40441,215201
45067,193011,40449,215198
45078,193012,40443,215204
45087,193015,40434,215223
45097,193012,40440,215205
45107,193005,40448,215199
45117,193006,40438,215193
45127,193015,40428,215215
45137,193000,40435,215174
45147,193014,40424,215192
45158,193005,40453,215196
45167,192966,40450,215196
45177,193001,40437,215209
45187,192986,40448,215196
45197,192998,40460,215202
45207,193008,40458,215183
45217,192993,40442,215173
45227,192991,40446,215187
45237,193009,40435,215192
45248,192986,40440,215202
45256,192983,40443,215172
45267,192993,40442,215182
45277,192994,40446,215172
45288,192992,40419,215185
45297,192986,40439,215177
45307,192986,40442,215189
45317,192997,40433,215201
45327,192969,40441,215178
45337,192984,40433,215199
45347,192983,40424,215188
45357,192995,40431,215181
45367,192989,40444,215197
45377,192977,40432,215194
45387,192987,40428,215176
45397,192979,40434,215177
45407,192980,40441,215172
45416,192977,40431,215175
45426,192983,40440,215163
45437,192962,40447,215185
45448,192950,40436,215183
45458,192975,40444,215168
45467,192963,40442,215162
45477,192944,40437,215164
45487,192955,40456,215162
45497,192978,40445,215176
45506,192976,40443,215180
45517,192975,40425,215169
45527,192975,40446,215174
45537,192962,40449,215173
45547,192966,40440,215149
45557,192964,40435,215168
45567,192942,40441,215141
45577,192960,40447,215145
45586,192969,40436,215149
45597,192954,40438,215138
45607,192967,40439,215154
45617,192947,40447,215176
45627,192967,40445,215165
45637,192969,40450,215142
45647,192967,40455,215149
45657,192968,40436,215162
45666,192965,40442,215144
45676,192964,40452,215133
45686,192957,40456,215132
45697,192948,40437,215172
45708,192962,40446,215170
45716,192963,40447,215155
45727,192956,40442,215167
45737,192955,40453,215154
45747,192939,40445,215168
45757,192955,40450,215121
45767,192962,40443,215122
45777,192951,40452,215151
45787,192979,40442,215147
45796,192972,40445,215140
45807,192974,40438,215153
45816,192966,40434,215139
45827,192950,40441,215129
45837,192966,40442,215146
45847,192953,40460,215125
45857,192941,40445,215138
45867,192948,40449,215136
45876,192967,40447,215143
45886,192965,40450,215151
45896,192960,40444,215131
45906,192963,40441,215139
45916,192957,40440,215133
45927,192972,40445,215147
45937,192951,40452,215108
45947,192963,40448,215139
45957,192952,40462,215146
45966,192951,40446,215135
45976,192964,40456,215125
45986,192973,40432,215155
45997,192951,40443,215154
46006,192942,40451,215146
46016,192946,40449,215149
46027,192979,40439,215175
46036,192964,40446,215140
46046,192961,40444,215151
46057,192966,40449,215135
46067,192966,40446,215151
46077,192958,40450,215147
46086,192966,40449,215143
46096,192980,40440,215172
46106,192960,40451,215164
46117,192969,40454,215153
46126,192966,40442,215143
46136,192957,40455,215156
46147,192949,40447,215170
46156,192956,40449,215167
46166,192975,40435,215162
46176,192965,40470,215145
46186,192954,40442,215163
46197,192942,40465,215171
46207,192960,40456,215154
46216,192969,40462,215167
46226,192973,40467,215161
46237,192961,40460,215152
46247,192961,40455,215180
46256,192963,40470,215170
46266,192976,40459,215173
46276,192973,40450,215159
46287,192982,40439,215175
46296,192960,40463,215173
46306,192962,40463,215182
46316,192966,40464,215180
46326,192970,40468,215169
46336,192973,40471,215179
46346,192980,40453,215176
46356,192975,40470,215176
46366,192980,40467,215193
46376,192988,40447,215202
46386,192972,40466,215195
46396,192964,40455,215196
46406,192975,40475,215201
46416,192974,40458,215199
46426,192980,40469,215188
46436,192979,40475,215206
46446,192967,40473,215188
46457,192978,40461,215196
46466,192972,40481,215175
46476,192967,40462,215193
46486,192992,40472,215194
46497,192993,40467,215207
46506,192989,40464,215192
46516,192970,40464,215205
46526,192989,40473,215209
46536,192976,40466,215213
46545,192987,40460,215203
46556,192991,40473,215174
46566,192978,40478,215184
46576,192987,40481,215214
46586,192994,40474,215203
46596,192993,40475,215189
46606,192992,40469,215205
46617,192979,40479,215204
46626,192985,40456,215197
46636,192986,40475,215196
46646,192986,40472,215206
46656,193016,40477,215202
46666,192998,40478,215225
46676,192999,40460,215219
46686,193002,40472,215209
46696,192978,40468,215226
46707,193015,40469,215227
46715,192994,40477,215203
46726,193013,40455,215236
46736,192993,40483,215223
46746,192998,40481,215229
46756,192992,40455,215212
46766,192999,40466,215228
46776,193011,40466,215214
46786,192986,40476,215206
46796,193010,40474,215213
46806,192996,40471,215227
46816,193004,40489,215206
46826,193007,40484,215236
46835,192983,40478,215231
46846,192984,40469,215224
46856,193002,40482,215230
46866,193007,40485,215230
46875,193017,40477,215231
46886,192990,40475,215245
46895,193012,40466,215249
46906,193009,40471,215223
46916,192996,40476,215236
46926,192990,40480,215233
46936,192995,40466,215230
46946,192997,40475,215229
46956,193022,40485,215219
46965,193008,40489,215243
46975,193010,40473,215228
46985,193011,40491,215248
46996,193020,40471,215247
47006,193002,40474,215233
47016,193002,40479,215234
47026,193010,40487,215231
47036,193000,40501,215241
47045,193010,40476,215233
47056,192990,40489,215233
47066,193016,40483,215215
47076,193005,40477,215245
47085,193002,40482,215237
47095,193001,40478,215234
47105,192993,40483,215248
47116,192980,40476,215252
47125,192992,40480,215263
47135,192979,40478,215248
47146,193015,40461,215241
47156,192992,40486,215228
47166,192997,40483,215233
47176,193005,40491,215247
47186,193010,40486,215220
47196,192970,40492,215244
47206,192997,40477,215251
47216,193003,40484,215248
47226,192990,40480,215227
47236,192986,40491,215243
47246,193010,40471,215236
47255,192997,40489,215257
47265,193011,40474,215248
47275,193003,40498,215261
47286,192998,40496,215254
47295,193002,40485,215223
47306,193031,40477,215252
47316,193015,40485,215241
47326,193009,40497,215224
47335,193014,40494,215227
47345,193006,40496,215244
47356,193012,40494,215214
47366,192986,40495,215244
47375,193023,40491,215220
47385,192982,40496,215234
47395,192987,40491,215220
47405,193002,40472,215230
47415,193009,40478,215221
47425,192990,40488,215236
47435,192995,40489,215237
47446,193005,40470,215227
47456,192995,40488,215204
47465,192994,40478,215241
47475,192999,40481,215247
47485,193007,40473,215250
47495,193000,40462,215238
47504,193008,40480,215249
47515,193012,40472,215237
47525,193008,40463,215235
47535,192998,40476,215219
47545,192997,40470,215239
47555,192994,40482,215224
47565,192994,40479,215218
47576,192995,40468,215224
47585,192989,40482,215223
47595,193004,40463,215228
47605,193000,40482,215227
47615,192995,40476,215234
47625,192999,40480,215217
47635,193001,40467,215244
47645,192992,40473,215207
47655,192987,40455,215228
47666,192994,40485,215234
47675,192989,40470,215211
47685,192969,40480,215227
47696,192965,40476,215212
47706,192975,40469,215207
47715,192983,40474,215219
47725,192985,40461,215221
47735,192994,40474,215220
47745,192986,40474,215207
47754,192981,40475,215225
47765,192982,40472,215227
47775,192983,40471,215239
47791,192976,40454,215225
47795,192979,40469,215242
47805,192978,40458,215212
47815,192992,40465,215210
47825,192980,40482,215219
47834,192968,40472,215220
47845,192996,40457,215227
47855,192982,40469,215226
47865,192968,40475,215200
47875,192983,40482,215205
47885,192995,40467,215232
47895,192975,40468,215219
47905,192971,40467,215219
47915,192980,40463,215235
47925,192976,40475,215240
47935,192984,40481,215201
47945,192964,40475,215228
47956,192983,40480,215208
47965,192979,40470,215211
47975,192967,40473,215221
47985,192981,40459,215229
47995,192987,40467,215216
48004,192947,40472,215227
48015,192972,40482,215225
48025,192966,40472,215227
48035,192979,40480,215232
48044,192983,40483,215219
48055,192962,40461,215218
48065,192979,40461,215203
48075,192972,40465,215211
48084,192927,40463,215222
48094,192987,40467,215216
48105,192998,40462,215212
48115,192985,40469,215222
48125,192973,40460,215209
48135,192958,40486,215225
48145,193002,40467,215233
48155,192977,40466,215238
48165,192961,40462,215202
48175,192972,40467,215191
48185,192967,40467,215225
48195,192971,40466,215205
48205,192972,40463,215205
48215,192966,40462,215197
48225,192964,40455,215208
48235,192944,40462,215210
48245,192960,40452,215219
48255,192940,40465,215216
48265,192963,40445,215208
48275,192961,40458,215210
48285,192954,40444,215234
48294,192954,40461,215216
48304,192970,40468,215220
48315,192968,40451,215233
48325,192970,40455,215217
48334,192956,40452,215223
48352,192965,40437,215232
48355,192951,40449,215222
48365,192960,40468,215182
48375,192950,40443,215223
48384,192972,40441,215224
48394,192959,40441,215199
48405,192941,40431,215212
48415,192932,40435,215193
48425,192970,40421,215222
48435,192953,40460,215197
48445,192947,40442,215209
48455,192926,40450,215213
48464,192942,40447,215195
48474,192941,40438,215192
48484,192924,40439,215200
48495,192938,40443,215192
48504,192945,40456,215198
48514,192910,40449,215187
48524,192926,40449,215212
48535,192939,40438,215183
48544,192951,40458,215202
48554,192934,40446,215194
48564,192925,40426,215198
48575,192949,40437,215191
48584,192924,40441,215198
48594,192949,40439,215183
48604,192937,40426,215185
48614,192940,40443,215197
48624,192935,40442,215179
