timestamp,red,green,ir
2612,180343,38041,215477
2622,180344,38051,215485
2632,180362,38028,215473
2642,180351,38049,215465
2652,180357,38041,215471
2662,180349,38043,215464
2672,180356,38033,215457
2681,180350,38043,215438
2691,180354,38021,215462
2702,180351,38047,215453
2712,180355,38046,215434
2722,180351,38028,215441
2732,180355,38039,215452
2742,180355,38004,215453
2751,180342,38035,215445
2761,180348,38038,215427
2771,180342,38048,215437
2781,180339,38043,215453
2792,180348,38027,215437
2802,180341,38034,215441
2812,180330,38041,215453
2833,180325,38033,215450
2841,180347,38025,215453
2851,180336,38025,215455
2862,180342,38030,215456
2872,180353,38035,215436
2881,180337,38028,215428
2892,180338,38024,215422
2902,180324,38033,215440
2912,180336,38039,215449
2933,180342,38022,215448
2942,180320,38012,215473
2952,180328,38021,215451
2961,180281,38037,215497
2971,180315,38016,215515
2981,180295,38011,215523
2991,180278,38012,215549
3001,180290,38035,215539
3011,180302,38022,215541
3021,180299,38024,215528
3033,180304,38015,215518
3041,180302,38010,215527
3051,180297,38019,215493
3061,180314,38011,215512
3071,180319,38024,215503
3082,180320,38007,215540
3091,180329,38022,215534
3101,180319,38004,215561
3111,180326,38027,215594
3121,180324,38008,215617
3132,180329,38001,215650
3142,180316,38022,215652
3152,180336,38022,215647
3162,180324,38012,215668
3171,180326,38029,215650
3181,180332,38009,215642
3191,180333,38004,215634
3202,180323,38002,215636
3213,180325,38007,215603
3221,180320,37998,215618
3231,180315,38015,215569
3241,180299,38020,215593
3251,180300,38013,215580
3261,180303,38006,215597
3272,180292,37991,215592
3282,180298,38017,215587
3291,180304,38019,215582
3301,180296,38003,215605
3311,180273,38014,215590
3321,180297,38021,215592
3331,180274,38014,215566
3341,180288,38000,215556
3351,180270,38006,215565
3361,180293,37996,215575
3373,180278,37990,215582
3381,180272,37987,215584
3392,180264,37994,215544
3401,180278,38004,215569
3411,180281,38016,215570
3420,180277,38000,215551
3431,180277,38003,215530
3441,180270,37991,215525
3452,180268,37994,215528
3461,180270,37986,215531
3472,180254,37989,215514
3494,180274,37998,215566
3500,180280,37978,215571
3511,180288,37987,215560
3521,180283,37992,215594
3531,180269,37997,215614
3541,180275,37985,215631
3551,180291,37969,215606
3561,180275,37994,215646
3571,180261,37989,215624
3581,180281,37981,215611
3591,180251,37994,215623
3601,180293,37991,215613
3611,180275,37981,215591
3621,180267,37987,215609
3631,180265,37975,215595
3641,180268,37994,215610
3651,180259,37978,215593
3661,180290,37971,215598
3670,180266,37980,215580
3680,180268,37979,215589
3691,180253,37975,215593
3713,180260,37964,215619
3720,180268,37977,215641
3731,180258,37971,215628
3741,180260,37984,215604
3751,180275,37987,215616
3761,180249,37975,215615
3771,180258,37985,215611
3781,180252,37973,215641
3791,180261,37970,215610
3800,180253,37985,215618
3810,180262,37972,215614
3820,180255,37967,215615
3831,180273,37971,215614
3853,180278,37967,215631
3874,180256,37970,215642
3880,180263,37979,215641
3892,180241,37976,215639
3913,180265,37976,215659
3921,180225,37971,215653
3931,180241,37964,215624
3941,180235,37973,215619
3951,180247,37978,215630
3960,180248,37969,215619
3971,180222,37975,215594
3981,180227,37970,215575
3991,180230,37976,215546
4000,180207,37983,215563
4010,180241,37968,215555
4020,180237,37963,215552
4031,180197,37976,215543
4041,180237,37969,215555
4050,180231,37980,215570
4073,180243,37971,215587
4120,180235,37959,215645
4130,180260,37950,215657
4140,180232,37971,215648
4150,180217,37976,215671
4161,180251,37966,215638
4170,180231,37968,215592
4180,180242,37966,215601
4190,180243,37969,215605
4201,180253,37972,215566
4210,180259,37969,215585
4220,180234,37975,215555
4230,180269,37975,215543
4241,180251,37977,215509
4250,180260,37969,215482
4260,180260,37959,215518
4270,180273,37972,215518
4280,180256,37967,215492
4291,180247,37983,215476
4300,180282,37982,215439
4310,180262,37973,215467
4320,180259,37968,215459
4330,180250,37985,215450
4340,180256,37970,215423
4350,180244,37993,215381
4360,180243,37969,215372
4370,180230,37977,215361
4380,180227,37969,215320
4390,180223,37972,215342
4400,180231,37963,215347
4411,180211,37967,215315
4420,180218,37980,215310
4430,180200,37989,215310
4440,180225,37980,215327
4450,180246,37978,215326
4460,180233,37987,215333
4470,180223,37983,215313
4480,180243,37966,215340
4490,180243,37968,215326
4500,180246,37962,215354
4509,180248,37984,215310
4520,180245,37971,215348
4530,180239,37962,215341
4540,180236,37978,215326
4549,180239,37968,215336
4560,180258,37951,215339
4571,180234,37969,215381
4581,180250,37973,215359
4590,180247,37983,215380
4600,180238,37978,215361
4610,180232,37974,215361
4620,180225,37968,215395
4629,180237,37966,215381
4640,180243,37974,215380
4650,180247,37969,215366
4660,180232,37972,215371
4669,180231,37974,215397
4680,180243,37969,215385
4690,180241,37974,215389
4700,180226,37951,215391
4710,180232,37974,215380
4720,180240,37970,215363
4730,180247,37987,215380
4740,180245,37958,215354
4750,180244,37973,215324
4760,180232,37965,215321
4770,180210,37969,215346
4780,180233,37963,215345
4790,180216,37971,215349
4799,180225,37958,215359
4809,180212,37953,215347
4820,180197,37962,215387
4830,180229,37971,215377
4839,180214,37962,215392
4850,180225,37950,215412
4875,180228,37951,215410
4879,180236,37953,215417
4890,180214,37959,215406
4899,180230,37956,215387
4910,180216,37952,215386
4919,180223,37969,215412
4930,180192,37954,215412
4940,180219,37964,215403
4950,180191,37966,215410
4959,180204,37968,215424
4969,180203,37958,215397
4980,180201,37935,215398
4990,180202,37961,215379
5000,180200,37959,215399
5010,180195,37957,215392
5020,180185,37956,215374
5030,180196,37953,215389
5040,180191,37966,215380
5049,180193,37956,215373
5060,180202,37931,215386
5070,180181,37956,215371
5080,180193,37952,215354
5089,180198,37959,215368
5100,180182,37954,215380
5110,180186,37940,215391
5120,180192,37949,215365
5132,180204,37955,215375
5140,180201,37958,215373
5150,180175,37959,215370
5160,180181,37941,215360
5169,180170,37961,215377
5179,180179,37968,215354
5189,180188,37956,215357
5200,180175,37955,215368
5209,180180,37951,215363
5219,180191,37948,215372
5229,180183,37959,215349
5240,180182,37957,215389
5250,180184,37958,215377
5259,180171,37952,215359
5269,180191,37953,215321
5279,180189,37954,215347
5289,180183,37953,215335
5299,180160,37945,215336
5310,180165,37951,215355
5320,180169,37944,215320
5330,180182,37939,215337
5339,180172,37944,215332
5349,180171,37939,215332
5360,180165,37949,215349
5370,180174,37942,215300
5379,180162,37945,215316
5389,180155,37945,215305
5400,180160,37951,215298
5410,180174,37940,215279
5419,180120,37935,215307
5429,180157,37947,215290
5439,180156,37945,215286
5450,180158,37929,215288
5459,180143,37945,215285
5469,180160,37943,215275
5479,180130,37945,215308
5490,180153,37927,215295
5500,180144,37928,215320
5509,180141,37928,215314
5519,180138,37928,215300
5530,180145,37914,215304
5540,180127,37942,215309
5549,180156,37935,215294
5559,180143,37920,215298
5570,180125,37938,215297
5579,180128,37930,215290
5589,180134,37912,215300
5599,180123,37926,215303
5610,180114,37944,215304
5619,180112,37923,215281
5629,180117,37912,215306
5639,180114,37929,215291
5650,180110,37929,215301
5660,180112,37929,215297
5669,180122,37940,215290
5679,180088,37927,215308
5689,180114,37924,215294
5700,180087,37925,215291
5709,180102,37916,215274
5719,180083,37931,215276
5729,180099,37935,215285
5740,180096,37913,215257
5750,180085,37934,215258
5759,180105,37916,215259
5769,180083,37929,215243
5779,180082,37925,215216
5789,180060,37935,215241
5799,180088,37927,215206
5809,180057,37931,215216
5819,180061,37933,215233
5829,180083,37931,215192
5838,180053,37925,215232
5849,180081,37889,215221
5858,180064,37911,215220
5869,180071,37906,215213
5879,180060,37919,215231
5889,180071,37913,215216
5899,180058,37917,215217
5909,180059,37933,215195
5918,180051,37921,215224
5928,180059,37917,215232
5939,180081,37912,215199
5949,180064,37931,215231
5958,180066,37897,215224
5969,180052,37900,215229
5979,180028,37921,215208
5989,180030,37908,215198
6000,180032,37916,215258
6009,180060,37907,215224
6019,180034,37912,215240
6029,180031,37918,215227
6039,180041,37921,215218
6048,180047,37914,215242
6058,180022,37912,215228
6068,180023,37912,215224
6079,180022,37914,215225
6088,180034,37914,215228
6098,180036,37892,215215
6108,180019,37915,215210
6119,180022,37893,215214
6128,180014,37902,215203
6138,180022,37917,215179
6149,180021,37891,215203
6158,180009,37911,215198
6168,180027,37889,215206
6178,180002,37912,215197
6189,180017,37878,215205
6198,179997,37900,215196
6208,179997,37905,215218
6218,179996,37900,215186
6228,179994,37900,215213
6239,180007,37899,215223
6249,179977,37908,215213
6258,179987,37902,215218
6268,179987,37914,215210
6279,179992,37902,215237
6289,180006,37890,215228
6298,179986,37902,215214
6308,179999,37910,215217
6319,179987,37900,215214
6329,179987,37895,215217
6338,179983,37899,215231
6348,179988,37907,215222
6358,179983,37893,215203
6368,179988,37901,215206
6378,179981,37896,215182
6388,179973,37893,215211
6399,179978,37898,215222
6409,179967,37894,215203
6418,179965,37898,215226
6428,179958,37905,215192
6438,179965,37896,215229
6448,179937,37905,215236
6458,179960,37906,215220
6468,179962,37909,215199
6478,179954,37893,215223
6489,179984,37886,215205
6499,179963,37905,215203
6508,179957,37903,215201
6518,179938,37909,215191
6528,179960,37901,215179
6539,179933,37899,215192
6548,179954,37893,215204
6558,179961,37904,215224
6568,179964,37901,215219
6579,179943,37875,215242
6588,179965,37881,215235
6598,179963,37893,215242
6609,179964,37885,215241
6619,179936,37891,215211
6628,179954,37889,215230
6638,179939,37887,215220
6648,179963,37892,215233
6658,179954,37898,215243
6667,179937,37894,215227
6678,179945,37884,215238
6688,179966,37911,215245
6698,179944,37891,215232
6708,179946,37888,215235
6718,179945,37868,215228
6728,179946,37888,215225
6738,179937,37881,215218
6749,179909,37884,215223
6757,179939,37885,215210
6768,179921,37896,215226
6778,179938,37888,215206
6789,179937,37884,215206
6798,179939,37895,215218
6808,179940,37880,215241
6818,179915,37884,215222
6828,179932,37883,215237
6838,179941,37883,215229
6848,179935,37873,215221
6858,179926,37877,215220
6868,179931,37880,215233
6878,179925,37873,215226
6888,179922,37888,215240
6898,179935,37879,215219
6908,179942,37860,215209
6917,179926,37880,215232
6927,179933,37893,215246
6938,179940,37868,215254
6948,179928,37880,215229
6958,179935,37870,215231
6968,179909,37877,215241
6977,179902,37871,215223
6988,179904,37887,215240
6999,179912,37884,215227
7008,179905,37889,215231
7018,179893,37882,215244
7028,179913,37882,215217
7038,179914,37882,215230
7047,179920,37884,215204
7057,179917,37882,215237
7067,179903,37887,215233
7078,179921,37868,215236
7088,179908,37856,215240
7098,179897,37890,215220
7108,179903,37883,215232
7118,179884,37874,215203
7127,179893,37860,215238
7138,179903,37871,215238
7148,179874,37869,215255
7158,179897,37890,215232
7167,179903,37874,215229
7177,179894,37868,215257
7187,179893,37887,215233
7198,179881,37880,215254
7208,179885,37881,215244
7217,179893,37879,215228
7228,179890,37875,215246
7237,179911,37865,215220
7248,179878,37883,215239
7258,179892,37871,215213
7268,179879,37866,215213
7278,179888,37864,215245
7288,179895,37858,215265
7297,179891,37882,215263
7307,179874,37880,215268
7318,179903,37883,215288
7328,179893,37877,215264
7337,179888,37881,215260
7347,179908,37869,215269
7358,179887,37879,215300
7368,179894,37857,215266
7377,179886,37878,215280
7387,179879,37887,215245
7398,179909,37872,215274
7408,179896,37881,215269
7417,179898,37877,215270
7427,179893,37872,215242
7438,179893,37872,215269
7448,179881,37879,215249
7458,179891,37869,215256
7467,179900,37867,215246
7477,179883,37864,215269
7488,179896,37865,215258
7498,179878,37877,215265
7507,179893,37877,215254
7518,179870,37878,215276
7528,179885,37876,215250
7538,179888,37866,215273
7547,179896,37869,215268
7557,179880,37869,215268
7568,179881,37877,215282
7577,179890,37878,215274
7587,179887,37865,215280
7597,179901,37871,215256
7608,179874,37873,215269
7618,179892,37874,215274
7627,179875,37873,215268
7637,179873,37884,215271
7647,179869,37868,215259
7658,179883,37874,215279
7667,179870,37883,215269
7677,179876,37888,215275
7687,179888,37874,215279
7697,179880,37872,215262
7707,179866,37870,215282
7717,179871,37873,215234
7727,179867,37869,215275
7737,179885,37880,215271
7747,179851,37879,215282
7757,179883,37886,215283
7767,179853,37879,215277
7777,179869,37869,215257
7787,179854,37879,215282
7797,179878,37892,215285
7807,179880,37876,215279
7817,179881,37868,215289
7827,179877,37886,215294
7836,179887,37869,215285
7846,179889,37872,215291
7857,179877,37866,215283
7867,179864,37876,215288
7876,179877,37866,215293
7887,179865,37858,215282
7897,179868,37863,215277
7907,179883,37863,215266
7917,179892,37884,215270
7927,179862,37882,215266
7937,179858,37892,215297
7947,179865,37882,215301
7957,179863,37875,215300
7966,179875,37880,215286
7977,179855,37879,215309
7987,179866,37866,215285
7997,179877,37882,215299
8007,179857,37891,215306
8016,179866,37881,215305
8026,179866,37896,215294
8038,179885,37874,215277
8047,179873,37880,215301
8057,179869,37889,215305
8067,179880,37886,215299
8077,179881,37884,215287
8086,179860,37883,215313
8097,179870,37882,215289
8107,179886,37869,215280
8117,179867,37894,215294
8127,179864,37862,215288
8136,179869,37881,215271
8146,179883,37880,215278
8157,179879,37892,215283
8166,179880,37870,215280
8176,179890,37860,215282
8187,179852,37885,215282
8197,179871,37883,215283
8207,179857,37876,215257
8216,179866,37861,215298
8226,179853,37864,215299
8237,179855,37876,215302
8247,179883,37878,215304
8256,179870,37877,215296
8267,179855,37870,215318
8276,179857,37867,215287
8287,179862,37874,215316
8297,179863,37887,215308
8307,179860,37867,215287
8317,179861,37877,215296
8327,179843,37882,215306
8336,179858,37884,215276
8346,179853,37879,215306
8356,179864,37852,215280
8366,179849,37886,215305
8376,179849,37844,215288
8387,179852,37869,215307
8397,179862,37873,215297
8407,179855,37875,215297
8416,179844,37895,215285
8426,179822,37869,215302
8436,179860,37877,215278
8446,179844,37889,215287
8457,179846,37881,215287
8466,179852,37885,215273
8476,179841,37889,215303
8487,179856,37881,215296
8497,179854,37873,215306
8506,179836,37895,215319
8517,179840,37899,215314
8527,179853,37871,215316
8537,179849,37884,215311
8546,179831,37885,215307
8556,179855,37885,215299
8566,179876,37886,215320
8577,179844,37870,215320
8586,179850,37859,215293
8596,179840,37890,215309
8606,179851,37885,215310
8616,179855,37868,215313
8626,179858,37871,215318
8636,179853,37895,215311
8647,179863,37871,215311
8657,179857,37883,215314
8666,179856,37896,215309
8676,179853,37886,215336
8686,179849,37889,215314
8697,179838,37899,215327
8707,179832,37876,215340
8716,179843,37888,215322
8726,179838,37900,215326
8737,179842,37886,215319
8747,179813,37895,215334
8756,179851,37898,215343
8766,179846,37898,215324
8776,179841,37896,215323
8786,179851,37901,215325
8796,179857,37881,215345
8806,179859,37877,215333
8816,179854,37884,215334
8826,179851,37899,215317
8836,179856,37882,215316
8846,179866,37881,215315
8856,179859,37883,215332
8866,179875,37901,215294
8875,179848,37886,215299
8885,179840,37882,215312
8896,179862,37867,215318
8906,179854,37895,215324
8916,179865,37866,215318
8926,179839,37869,215336
8936,179846,37876,215302
8947,179830,37884,215333
8957,179850,37878,215324
8966,179860,37887,215342
8976,179847,37891,215349
8986,179858,37870,215326
8996,179854,37892,215329
9005,179847,37884,215313
9016,179851,37884,215336
9026,179840,37889,215321
9036,179845,37873,215324
9045,179851,37879,215332
9056,179853,37890,215318
9066,179844,37885,215309
9076,179827,37879,215324
9086,179857,37871,215317
9096,179850,37886,215337
9106,179843,37891,215323
9116,179860,37876,215338
9125,179830,37889,215316
9136,179851,37908,215311
9146,179841,37883,215343
9156,179859,37893,215325
9166,179812,37896,215330
9175,179853,37878,215337
9186,179831,37885,215351
9196,179836,37888,215319
9207,179823,37889,215320
9215,179841,37884,215318
9226,179847,37887,215329
9236,179861,37874,215357
9246,179835,37886,215355
9255,179864,37890,215349
9265,179854,37894,215359
9276,179848,37880,215355
9286,179849,37890,215382
9295,179850,37880,215360
9305,179846,37901,215345
9316,179861,37868,215348
9326,179863,37894,215341
9335,179861,37872,215350
9346,179855,37879,215362
9356,179855,37891,215346
9366,179841,37895,215365
9375,179820,37889,215348
9385,179862,37892,215324
9396,179828,37896,215349
9406,179880,37882,215335
9416,179838,37896,215351
9425,179830,37898,215345
9436,179851,37911,215337
9446,179829,37885,215347
9456,179846,37894,215329
9465,179859,37883,215353
9475,179851,37905,215354
9486,179836,37886,215336
9495,179842,37906,215329
9505,179856,37886,215336
9515,179825,37895,215336
9526,179868,37881,215345
9536,179846,37878,215328
9545,179848,37891,215314
9556,179848,37877,215330
9566,179843,37884,215308
9576,179848,37891,215329
9585,179858,37896,215307
9595,179865,37884,215307
9605,179843,37904,215314
9615,179853,37898,215290
9625,179851,37897,215282
9635,179833,37900,215297
9646,179832,37893,215319
9655,179846,37893,215317
9666,179870,37889,215307
9674,179841,37887,215282
9685,179851,37863,215305
9696,179843,37893,215320
9706,179820,37887,215287
9715,179836,37874,215308
9725,179841,37889,215311
9735,179828,37876,215306
9745,179825,37890,215292
9755,179833,37886,215288
9765,179803,37876,215296
9775,179834,37876,215306
9786,179814,37888,215285
9795,179823,37874,215290
9805,179811,37888,215269
9816,179814,37877,215285
9826,179820,37880,215264
9835,179818,37885,215287
9845,179811,37854,215296
9855,179822,37878,215279
9866,179822,37879,215276
9875,179828,37873,215289
9885,179805,37880,215278
9895,179821,37876,215286
9905,179794,37872,215269
9916,179786,37883,215291
9925,179812,37858,215286
9934,179823,37874,215284
9945,179846,37874,215259
9955,179822,37884,215291
9965,179800,37857,215271
9975,179794,37874,215276
9985,179800,37871,215286
9995,179808,37875,215282
10005,179813,37869,215277
10015,179783,37884,215281
10025,179795,37855,215293
10035,179798,37876,215294
10044,179782,37875,215278
10055,179797,37853,215282
10065,179781,37869,215270
10075,179777,37880,215285
10085,179790,37871,215287
10095,179791,37872,215257
10105,179789,37872,215262
10115,179790,37850,215275
10125,179785,37879,215267
10135,179773,37869,215288
10145,179786,37878,215264
10155,179786,37872,215248
10165,179763,37873,215269
10174,179781,37867,215263
10184,179796,37867,215286
10195,179790,37866,215279
10205,179786,37868,215275
10215,179796,37863,215272
10225,179777,37867,215256
10235,179776,37859,215255
10245,179766,37871,215266
10254,179755,37874,215247
10264,179749,37878,215246
10275,179772,37858,215260
10285,179774,37866,215230
10294,179767,37858,215265
10304,179768,37856,215239
10315,179762,37867,215255
10325,179770,37859,215247
10334,179757,37870,215266
10344,179772,37871,215238
10355,179743,37857,215243
10365,179769,37869,215240
10375,179751,37853,215244
10385,179765,37858,215222
10394,179751,37861,215241
10405,179763,37845,215234
10415,179764,37874,215238
10424,179717,37862,215216
10435,179738,37852,215218
10445,179735,37849,215241
10455,179738,37848,215244
10464,179733,37857,215244
10475,179733,37846,215231
10485,179724,37854,215236
10495,179738,37824,215243
10504,179733,37837,215226
10514,179718,37851,215219
10525,179720,37844,215208
10534,179741,37858,215209
10544,179747,37852,215207
10555,179725,37851,215200
10565,179715,37840,215203
10575,179715,37843,215201
10584,179725,37850,215202
10594,179708,37858,215190
10604,179691,37851,215208
10614,179718,37825,215211
10625,179726,37858,215205
10634,179711,37846,215199
10645,179722,37842,215227
10655,179702,37838,215182
10665,179695,37840,215194
10674,179698,37851,215211
10684,179707,37844,215209
10694,179706,37843,215204
10705,179701,37840,215178
10714,179710,37838,215193
10724,179709,37841,215154
10734,179676,37838,215190
10744,179704,37849,215173
10754,179698,37820,215206
10764,179695,37835,215220
10774,179690,37817,215193
10785,179697,37847,215179
10794,179698,37844,215177
10804,179670,37842,215178
10815,179691,37849,215184
10825,179699,37827,215190
10834,179691,37835,215180
10844,179691,37837,215205
10854,179708,37842,215209
10865,179692,37836,215184
10875,179701,37845,215171
10884,179673,37844,215159
10895,179675,37831,215194
10905,179691,37842,215160
10915,179679,37833,215186
10924,179673,37837,215170
10934,179692,37836,215197
10944,179672,37845,215141
10954,179663,37849,215183
10964,179692,37838,215167
10974,179676,37838,215181
10984,179667,37841,215163
10994,179679,37857,215191
11004,179688,37827,215174
11014,179690,37843,215179
11024,179665,37839,215188
11035,179669,37851,215183
11044,179656,37831,215195
11054,179686,37850,215191
11064,179674,37844,215136
11074,179679,37838,215167
11083,179678,37842,215153
11094,179660,37851,215190
11104,179684,37836,215226
11114,179678,37843,215198
11125,179691,37833,215220
11134,179665,37840,215196
11144,179660,37833,215178
11154,179682,37830,215164
11164,179666,37844,215175
11174,179685,37845,215173
11184,179677,37837,215154
11194,179669,37834,215164
11204,179669,37825,215124
11214,179680,37837,215172
11224,179665,37827,215161
11234,179665,37831,215150
11244,179663,37827,215190
11254,179654,37839,215181
11264,179668,37831,215181
11274,179633,37825,215187
11284,179662,37817,215155
11293,179652,37827,215177
11304,179649,37835,215185
11314,179648,37842,215169
11324,179668,37855,215182
11333,179660,37821,215185
11343,179666,37843,215179
11354,179646,37843,215170
11364,179667,37842,215190
11374,179648,37823,215179
11383,179634,37839,215184
11394,179647,37834,215186
11404,179647,37837,215193
11414,179651,37817,215189
11424,179653,37810,215191
11433,179643,37835,215180
11444,179650,37816,215151
11454,179661,37832,215177
11464,179642,37818,215181
11473,179654,37829,215190
11484,179644,37827,215179
11494,179656,37827,215176
11503,179659,37826,215170
11514,179647,37824,215184
11524,179658,37837,215200
11534,179644,37833,215186
11543,179663,37838,215165
11553,179642,37836,215188
11563,179632,37828,215198
11574,179666,37824,215205
11583,179629,37835,215186
11593,179641,37824,215204
11603,179663,37806,215198
11613,179642,37810,215220
11624,179650,37821,215190
11633,179671,37831,215193
11644,179648,37837,215188
11654,179654,37845,215178
11664,179635,37828,215205
11673,179650,37831,215204
11683,179668,37835,215185
11693,179657,37833,215213
11703,179673,37840,215225
11713,179646,37820,215227
11724,179650,37816,215184
11734,179650,37833,215213
11744,179657,37841,215212
11753,179649,37849,215214
11763,179647,37832,215184
11773,179628,37838,215220
11783,179665,37856,215231
11793,179661,37839,215215
11804,179662,37826,215244
11814,179643,37837,215231
11824,179648,37841,215223
11833,179665,37854,215230
11843,179667,37840,215248
11853,179672,37834,215214
11863,179668,37844,215212
11874,179649,37844,215217
11883,179654,37869,215240
11893,179658,37829,215215
11904,179653,37850,215251
11913,179673,37854,215237
11923,179653,37844,215239
11933,179673,37845,215230
11944,179670,37825,215227
11953,179657,37848,215208
11963,179670,37865,215229
11973,179665,37845,215236
11983,179665,37846,215234
11994,179652,37841,215209
12003,179658,37853,215243
12013,179658,37850,215236
12023,179661,37829,215265
12033,179663,37843,215245
12042,179660,37842,215259
12053,179649,37824,215232
12063,179671,37820,215234
12073,179672,37835,215209
12083,179647,37834,215243
12093,179665,37851,215252
12103,179649,37845,215249
12113,179675,37847,215243
12123,179664,37868,215195
12133,179651,37850,215236
12143,179668,37849,215253
12153,179658,37850,215245
12164,179657,37835,215249
12173,179671,37844,215250
12183,179663,37845,215271
12193,179639,37831,215243
12203,179670,37856,215253
12213,179666,37840,215241
12223,179673,37818,215254
12233,179682,37841,215248
12243,179667,37866,215247
12253,179672,37849,215232
12263,179668,37854,215250
12273,179667,37849,215227
12283,179655,37860,215236
12293,179648,37856,215238
12303,179666,37855,215234
12313,179670,37859,215259
12323,179647,37850,215237
12333,179656,37856,215249
12342,179655,37859,215253
12353,179650,37844,215241
12363,179666,37848,215236
12373,179630,37859,215261
12382,179677,37871,215249
12393,179637,37858,215262
12403,179646,37849,215230
12413,179655,37848,215264
12423,179661,37839,215263
12433,179660,37856,215258
12443,179649,37856,215263
12453,179659,37845,215262
12462,179676,37851,215263
12473,179664,37853,215261
12483,179682,37854,215254
12493,179660,37864,215275
12502,179666,37865,215270
12513,179660,37850,215263
12523,179667,37867,215264
12533,179668,37856,215263
12542,179669,37876,215271
12552,179663,37851,215235
12562,179655,37850,215259
12573,179686,37846,215243
12583,179677,37842,215231
12593,179664,37858,215270
12603,179668,37863,215271
12613,179656,37862,215256
12623,179637,37873,215274
12633,179663,37855,215283
12643,179652,37855,215261
12653,179663,37856,215257
12663,179669,37872,215272
12672,179668,37851,215271
12682,179664,37849,215275
12692,179651,37858,215274
12702,179670,37821,215236
12712,179666,37841,215256
12722,179666,37854,215259
12733,179673,37863,215249
12743,179675,37864,215254
12752,179663,37862,215255
12762,179682,37853,215244
12773,179663,37855,215240
12783,179671,37870,215245
12792,179654,37864,215256
12802,179677,37861,215254
12812,179659,37850,215262
12823,179671,37840,215270
12833,179653,37864,215266
12842,179670,37847,215275
12853,179665,37858,215241
12863,179639,37863,215273
12873,179653,37848,215282
12882,179672,37854,215257
12892,179649,37859,215259
12902,179640,37856,215266
12913,179665,37852,215253
12922,179671,37849,215240
12932,179668,37861,215244
12943,179650,37836,215228
12953,179655,37854,215245
12962,179657,37840,215240
12972,179666,37851,215259
12982,179646,37840,215233
12993,179654,37847,215222
13002,179632,37861,215238
13012,179655,37855,215240
13022,179655,37849,215230
13032,179648,37865,215224
13041,179658,37841,215248
13053,179634,37845,215237
13062,179642,37854,215217
13073,179655,37852,215252
13083,179633,37852,215237
13092,179653,37846,215234
13102,179612,37852,215224
13112,179648,37837,215243
13122,179639,37854,215248
13131,179627,37858,215258
13142,179643,37829,215259
13153,179645,37858,215221
13162,179651,37858,215256
13171,179633,37859,215263
13181,179634,37847,215237
13193,179649,37836,215229
13202,179646,37851,215243
13212,179651,37833,215251
13222,179631,37860,215242
13233,179636,37837,215235
13243,179642,37844,215251
13252,179642,37854,215236
13262,179600,37848,215226
13272,179626,37841,215248
13282,179633,37835,215253
13292,179636,37860,215249
13302,179618,37858,215263
13312,179604,37859,215242
13322,179643,37867,215245
13332,179631,37851,215239
13341,179628,37875,215255
13351,179612,37848,215241
13362,179640,37850,215251
13373,179624,37848,215243
13382,179636,37844,215236
13392,179619,37828,215234
13402,179633,37847,215249
13412,179621,37854,215236
13421,179637,37835,215253
13432,179644,37838,215257
13442,179620,37850,215250
13453,179632,37851,215230
13462,179637,37860,215244
13472,179640,37852,215247
13482,179647,37861,215240
13492,179635,37842,215250
13501,179629,37861,215222
13511,179632,37844,215230
13521,179607,37838,215237
13533,179633,37843,215235
13542,179637,37859,215218
13552,179619,37851,215209
13562,179599,37855,215212
13572,179637,37859,215199
13582,179618,37843,215227
13593,179607,37850,215240
13602,179621,37847,215231
13612,179631,37836,215236
13622,179615,37859,215219
13631,179613,37853,215237
13641,179591,37849,215250
13652,179614,37823,215218
13662,179617,37837,215231
13672,179614,37847,215222
13682,179609,37848,215224
13692,179632,37835,215235
13702,179627,37835,215230
13711,179606,37839,215215
13722,179621,37830,215219
13732,179605,37852,215206
13742,179590,37845,215221
13751,179619,37831,215234
13761,179601,37830,215237
13771,179596,37832,215234
13782,179620,37823,215230
13791,179609,37848,215236
13801,179607,37821,215228
13811,179613,37845,215206
13822,179592,37840,215211
13832,179618,37847,215225
13841,179616,37841,215219
13851,179586,37833,215221
13861,179620,37843,215226
13871,179601,37836,215227
13882,179620,37829,215221
13892,179604,37842,215206
13902,179590,37830,215211
13912,179612,37831,215231
13921,179603,37841,215225
13931,179611,37832,215220
13941,179610,37840,215227
13952,179620,37826,215222
13961,179598,37833,215200
13971,179594,37832,215219
13981,179598,37844,215184
13992,179612,37831,215206
14001,179591,37832,215176
14011,179606,37832,215210
14021,179599,37824,215215
14032,179587,37831,215208
14041,179595,37841,215185
14051,179601,37839,215225
14061,179583,37837,215214
14072,179563,37831,215221
14082,179588,37833,215204
14091,179597,37839,215217
14101,179592,37835,215203
14111,179587,37846,215193
14121,179585,37849,215211
14131,179597,37836,215196
14141,179608,37837,215210
14151,179589,37830,215192
14161,179596,37834,215208
14171,179591,37824,215209
14181,179599,37841,215193
14191,179582,37834,215201
14201,179595,37831,215203
14211,179590,37825,215194
14221,179595,37830,215197
14231,179586,37825,215212
14241,179586,37828,215188
14252,179587,37853,215187
14260,179596,37843,215226
14272,179594,37827,215193
14282,179598,37827,215195
14291,179578,37834,215188
14301,179580,37821,215204
14311,179571,37826,215201
14321,179578,37833,215162
14332,179566,37838,215187
14341,179586,37837,215199
14351,179589,37833,215202
14361,179585,37842,215164
14372,179583,37832,215186
14381,179586,37839,215168
14391,179578,37835,215181
14401,179566,37823,215181
14411,179589,37836,215174
14420,179585,37823,215193
14430,179571,37825,215176
14441,179583,37823,215187
14452,179563,37838,215186
14461,179582,37824,215155
14471,179566,37823,215150
14481,179558,37812,215199
14491,179574,37824,215206
14500,179571,37830,215186
14510,179563,37819,215193
14520,179584,37822,215189
14531,179574,37822,215194
14541,179578,37827,215178
14551,179552,37814,215185
14561,179556,37817,215172
14571,179552,37836,215162
14581,179555,37813,215173
14591,179539,37826,215164
14600,179551,37823,215154
14611,179553,37805,215175
14622,179530,37814,215148
14631,179526,37818,215174
14641,179530,37813,215171
14651,179534,37808,215188
14661,179542,37818,215163
14670,179535,37815,215158
14680,179518,37822,215166
14691,179523,37802,215164
14701,179528,37810,215160
14711,179543,37810,215174
14721,179525,37818,215164
14731,179500,37819,215150
14741,179503,37803,215160
14750,179515,37820,215160
14760,179504,37817,215174
14770,179519,37823,215154
14781,179519,37801,215154
14791,179506,37818,215150
14801,179499,37811,215146
14811,179520,37812,215135
14821,179495,37822,215162
14831,179504,37798,215144
14840,179509,37817,215158
14850,179514,37822,215142
14860,179511,37793,215165
14871,179483,37820,215153
14881,179508,37814,215170
14891,179514,37813,215115
14901,179476,37828,215147
14911,179480,37820,215160
14920,179486,37824,215138
14930,179491,37811,215142
14940,179474,37809,215138
14950,179493,37799,215151
14960,179507,37793,215132
14971,179477,37813,215125
14981,179478,37799,215131
14991,179474,37805,215125
15000,179471,37825,215136
15010,179471,37812,215139
15021,179475,37801,215124
15031,179486,37804,215140
15041,179474,37796,215114
15050,179461,37822,215124
15060,179478,37813,215113
15071,179448,37809,215126
15081,179486,37819,215126
15090,179469,37823,215114
15100,179476,37793,215114
15110,179475,37811,215117
15121,179478,37815,215086
15130,179471,37819,215106
15140,179470,37811,215118
15151,179472,37793,215109
15161,179467,37807,215108
15170,179470,37811,215124
15180,179472,37815,215085
15190,179474,37813,215105
15201,179475,37805,215097
15210,179458,37818,215094
15220,179445,37819,215106
15231,179457,37820,215092
15241,179459,37814,215096
15250,179456,37804,215092
15260,179470,37819,215097
15270,179467,37810,215074
15280,179465,37815,215099
15290,179466,37824,215103
15300,179457,37813,215095
15310,179471,37803,215103
15320,179461,37803,215105
15330,179452,37810,215096
15340,179460,37816,215098
15350,179458,37811,215107
15360,179454,37809,215105
15373,179446,37811,215089
15380,179456,37805,215098
15390,179460,37817,215065
15400,179449,37789,215084
15410,179447,37809,215086
15420,179457,37810,215073
15430,179463,37813,215060
15440,179429,37807,215085
15450,179466,37810,215104
15460,179452,37811,215093
15470,179441,37805,215071
15480,179444,37799,215105
15491,179439,37797,215092
15500,179449,37815,215076
15510,179453,37788,215091
15520,179452,37801,215084
15533,179458,37818,215091
15540,179445,37806,215082
15549,179446,37814,215082
15560,179440,37803,215068
15571,179446,37830,215080
15581,179451,37812,215069
15590,179458,37817,215079
15600,179447,37805,215111
15610,179443,37818,215085
15620,179447,37819,215101
15630,179452,37815,215119
15640,179449,37800,215095
15650,179440,37825,215103
15661,179432,37824,215108
15670,179453,37830,215095
15680,179439,37817,215094
15690,179463,37818,215100
15700,179453,37821,215109
15709,179443,37827,215088
15720,179452,37828,215062
15730,179451,37823,215103
15740,179454,37840,215095
15750,179426,37829,215089
15760,179450,37831,215094
15770,179451,37826,215106
15780,179434,37822,215102
15790,179426,37831,215105
15800,179437,37827,215087
15810,179436,37811,215103
15820,179442,37818,215089
15830,179429,37826,215093
15839,179442,37833,215101
15850,179457,37806,215093
15860,179453,37828,215091
15870,179454,37841,215099
15880,179449,37820,215120
15890,179444,37823,215109
15900,179442,37806,215111
15910,179445,37835,215123
15920,179456,37828,215122
15930,179454,37825,215123
15940,179447,37836,215151
15950,179469,37837,215130
15960,179462,37842,215135
15970,179463,37840,215129
15980,179460,37840,215139
15990,179469,37835,215154
16000,179470,37839,215148
16009,179473,37839,215136
16020,179437,37843,215161
16030,179481,37844,215131
16040,179465,37854,215138
16049,179438,37854,215155
16060,179470,37835,215133
16070,179460,37829,215134
16080,179469,37850,215128
16089,179477,37854,215148
16099,179478,37841,215147
16109,179475,37830,215135
16119,179478,37836,215171
16130,179469,37818,215161
16140,179472,37835,215130
16150,179467,37837,215157
16159,179462,37825,215164
16169,179493,37822,215179
16179,179473,37842,215155
16190,179485,37839,215159
16199,179479,37842,215187
16209,179468,37827,215175
16220,179485,37839,215154
16230,179482,37849,215166
16239,179473,37832,215173
16250,179469,37852,215165
16259,179491,37855,215185
16270,179486,37828,215187
16279,179478,37843,215176
16290,179468,37843,215172
16299,179471,37841,215146
16309,179490,37854,215155
16320,179470,37853,215182
16330,179477,37849,215162
16339,179475,37847,215151
16349,179497,37837,215166
16359,179482,37847,215177
16370,179500,37840,215176
16379,179484,37851,215173
16389,179488,37840,215183
16399,179487,37840,215160
16409,179489,37838,215170
16419,179490,37832,215172
16429,179473,37863,215182
16440,179517,37860,215195
16450,179500,37847,215189
16459,179472,37866,215207
16469,179497,37841,215167
16479,179496,37841,215210
16490,179488,37866,215198
16499,179515,37851,215180
16509,179494,37858,215205
16519,179493,37847,215178
16530,179482,37860,215198
16539,179514,37869,215175
16549,179503,37862,215198
16559,179488,37861,215194
16569,179507,37855,215209
16580,179489,37856,215193
16589,179500,37853,215206
16599,179493,37855,215204
16609,179496,37854,215207
16619,179491,37849,215201
16628,179496,37861,215214
16639,179506,37859,215212
16649,179513,37866,215204
16659,179505,37860,215200
16669,179527,37846,215211
16678,179513,37869,215187
16689,179502,37872,215205
16700,179511,37860,215176
16709,179506,37865,215192
16719,179487,37867,215214
16729,179510,37867,215199
16739,179506,37869,215230
16749,179508,37860,215190
16759,179506,37864,215214
16769,179520,37877,215193
16779,179501,37884,215218
16790,179499,37869,215228
16798,179507,37867,215208
16809,179508,37868,215213
16819,179495,37878,215210
16830,179512,37850,215209
16839,179508,37883,215210
16849,179511,37874,215234
16859,179515,37870,215223
16869,179523,37879,215206
16878,179521,37885,215212
16888,179507,37880,215216
16899,179531,37884,215204
16909,179533,37882,215203
16918,179531,37860,215192
16928,179530,37892,215214
16939,179526,37871,215228
16949,179522,37875,215210
16958,179508,37860,215219
16969,179532,37871,215215
16978,179514,37866,215182
16989,179493,37875,215222
16999,179516,37879,215178
17009,179498,37875,215242
17018,179512,37873,215182
17029,179492,37877,215223
17039,179516,37866,215232
17049,179500,37871,215217
17058,179525,37885,215224
17069,179498,37870,215248
17080,179533,37873,215213
17089,179519,37882,215214
17099,179512,37873,215225
17109,179513,37883,215211
17119,179519,37878,215205
17128,179518,37883,215236
17139,179514,37871,215206
17149,179501,37877,215220
17159,179504,37882,215208
17168,179508,37863,215214
17179,179492,37874,215218
17189,179517,37868,215220
17199,179503,37881,215208
17208,179494,37874,215173
17218,179509,37867,215211
17229,179510,37880,215205
17239,179513,37874,215214
17249,179505,37875,215197
17259,179508,37880,215200
17269,179497,37875,215193
17279,179501,37881,215211
17289,179513,37866,215190
17299,179470,37878,215217
17309,179501,37875,215231
17319,179457,37874,215213
17329,179488,37877,215228
17338,179495,37870,215221
17348,179515,37888,215247
17359,179506,37886,215224
17369,179501,37884,215214
17378,179517,37874,215227
17388,179503,37867,215216
17398,179501,37863,215205
17409,179518,37877,215218
17418,179501,37882,215222
17428,179498,37865,215218
17439,179504,37877,215219
17449,179504,37863,215231
17458,179479,37878,215228
17468,179495,37873,215202
17479,179488,37887,215213
17489,179481,37885,215216
17499,179503,37878,215209
17508,179490,37875,215217
17518,179494,37880,215193
17528,179490,37881,215206
17539,179505,37891,215200
17548,179481,37884,215219
17558,179497,37884,215218
17568,179488,37888,215209
17579,179483,37886,215216
17588,179500,37869,215218
17598,179490,37871,215219
17608,179486,37876,215225
17618,179507,37868,215211
17628,179503,37883,215223
17638,179493,37879,215210
17649,179477,37875,215215
17658,179493,37874,215196
17668,179487,37863,215216
17678,179496,37884,215223
17689,179495,37867,215217
17699,179494,37872,215189
17708,179490,37875,215205
17718,179508,37888,215213
17728,179501,37879,215203
17738,179512,37863,215195
17749,179517,37866,215203
17758,179495,37878,215192
17768,179500,37872,215182
17779,179486,37874,215176
17789,179495,37883,215170
17798,179468,37878,215202
17808,179492,37860,215190
17818,179484,37873,215191
17828,179480,37874,215200
17838,179493,37868,215218
17848,179490,37866,215180
17859,179481,37867,215192
17869,179503,37876,215205
17878,179498,37873,215219
17888,179486,37856,215197
17898,179481,37864,215200
17908,179486,37858,215202
17917,179496,37857,215199
17927,179490,37870,215199
17938,179502,37870,215172
17948,179479,37872,215191
17958,179498,37871,215202
17968,179500,37852,215201
17978,179487,37869,215163
17988,179478,37862,215190
17998,179493,37854,215166
18008,179476,37868,215192
18017,179480,37880,215175
18028,179455,37874,215198
18038,179483,37878,215184
18048,179483,37864,215199
18057,179483,37871,215157
18068,179464,37867,215169
18078,179481,37858,215152
18088,179473,37853,215173
18097,179483,37866,215185
18107,179468,37869,215184
18118,179485,37856,215160
18128,179489,37862,215156
18138,179470,37870,215190
18148,179483,37858,215169
18158,179477,37863,215170
18167,179482,37851,215179
18178,179477,37855,215185
18188,179474,37871,215181
18198,179470,37869,215185
18208,179490,37852,215189
18218,179475,37869,215186
18228,179454,37870,215191
18238,179469,37867,215174
18248,179484,37867,215173
18257,179459,37869,215180
18268,179475,37847,215185
18278,179466,37870,215191
18288,179473,37860,215156
18298,179452,37862,215172
18308,179473,37871,215186
18318,179480,37861,215181
18328,179476,37861,215172
18337,179469,37867,215202
18348,179455,37866,215172
18357,179461,37869,215144
18368,179471,37856,215168
18378,179462,37882,215172
18388,179476,37873,215181
18398,179459,37865,215171
18408,179479,37868,215157
18417,179445,37858,215182
18427,179469,37855,215173
18438,179467,37853,215165
18448,179470,37871,215173
18458,179453,37869,215166
18467,179437,37865,215181
18478,179458,37870,215156
18488,179449,37887,215173
18498,179445,37872,215160
18507,179468,37856,215179
18517,179447,37852,215175
18528,179424,37874,215189
18538,179445,37859,215180
18547,179457,37873,215171
18557,179433,37860,215175
18568,179462,37864,215168
18577,179457,37878,215136
18587,179455,37844,215178
18597,179436,37861,215150
18607,179439,37856,215165
18618,179428,37853,215166
18627,179446,37866,215182
18637,179433,37867,215163
18648,179453,37845,215180
18658,179432,37865,215130
18667,179445,37859,215131
18677,179443,37858,215143
18687,179443,37850,215150
18698,179424,37856,215154
18708,179436,37862,215141
18717,179431,37857,215150
18727,179414,37857,215137
18738,179399,37859,215153
18748,179419,37860,215132
18757,179399,37853,215165
18767,179426,37826,215160
18777,179424,37851,215153
18787,179412,37859,215138
18797,179409,37845,215148
18807,179428,37850,215157
18817,179413,37825,215139
18828,179413,37833,215136
18837,179404,37836,215125
18847,179391,37852,215159
18857,179410,37853,215142
18867,179408,37841,215157
18877,179417,37829,215165
18887,179410,37841,215163
18897,179387,37846,215162
18907,179414,37847,215164
18916,179417,37841,215138
18927,179402,37849,215126
18937,179414,37846,215116
18948,179395,37838,215123
18957,179395,37842,215111
18967,179374,37838,215129
18977,179387,37845,215113
18988,179390,37849,215127
18998,179406,37841,215136
19007,179398,37858,215130
19017,179393,37825,215134
19027,179396,37848,215146
19037,179399,37832,215137
19047,179378,37843,215155
19056,179389,37838,215150
19067,179390,37840,215134
19078,179389,37839,215127
19087,179398,37834,215117
19097,179384,37842,215138
19107,179375,37850,215145
19117,179394,37837,215116
19126,179393,37850,215164
19136,179399,37838,215143
19146,179386,37845,215147
19157,179394,37830,215134
19167,179384,37829,215150
19177,179385,37847,215125
19187,179375,37843,215125
19197,179362,37838,215148
19207,179379,37845,215124
19217,179364,37843,215129
19227,179376,37840,215094
19237,179344,37840,215134
19247,179350,37849,215131
19257,179373,37849,215114
19267,179365,37838,215124
19277,179385,37835,215127
19287,179368,37827,215105
19296,179374,37838,215125
19307,179379,37835,215149
19316,179363,37841,215113
19327,179372,37831,215132
19337,179365,37847,215124
19347,179372,37854,215129
19357,179357,37848,215140
19367,179358,37829,215122
19376,179350,37831,215108
19387,179351,37827,215113
19397,179353,37832,215106
19407,179350,37838,215112
19416,179344,37829,215106
19426,179347,37837,215096
19436,179325,37827,215114
19447,179354,37833,215109
19457,179362,37833,215097
19467,179345,37833,215115
19477,179349,37830,215090
19487,179324,37823,215076
19497,179338,37833,215103
19506,179347,37837,215090
19517,179322,37828,215092
19527,179353,37824,215098
19537,179351,37836,215088
19546,179339,37839,215094
19557,179328,37833,215082
19567,179322,37827,215096
19577,179339,37826,215088
19586,179330,37831,215085
19596,179355,37821,215091
19606,179331,37842,215103
19617,179338,37833,215125
19626,179328,37840,215094
19636,179326,37833,215098
19646,179324,37819,215100
19656,179341,37812,215092
19666,179329,37839,215104
19676,179328,37809,215087
19687,179330,37829,215103
19697,179335,37829,215074
19707,179326,37827,215048
19716,179304,37846,215084
19726,179327,37822,215070
19737,179292,37826,215077
19747,179305,37825,215081
19756,179303,37830,215086
19766,179321,37816,215078
19776,179327,37826,215053
19786,179307,37827,215077
19796,179326,37822,215079
19806,179302,37826,215051
19816,179323,37790,215057
19827,179323,37811,215052
19836,179331,37817,215069
19846,179304,37824,215086
19856,179312,37817,215036
19866,179308,37812,215063
19876,179313,37836,215045
19886,179320,37828,215066
19896,179311,37837,215056
19906,179312,37824,215058
19916,179310,37813,215068
19926,179314,37822,215054
19936,179309,37819,215053
19947,179313,37820,215077
19957,179313,37815,215034
19966,179316,37821,215032
19976,179290,37831,215068
19986,179298,37842,215077
19997,179312,37843,215059
20006,179291,37822,215066
20016,179314,37832,215069
20026,179318,37831,215071
20037,179318,37813,215079
20046,179315,37824,215098
20056,179312,37822,215091
20066,179296,37832,215068
20076,179302,37826,215079
20085,179315,37820,215058
20096,179310,37840,215086
20106,179307,37830,215084
20116,179329,37815,215072
20125,179325,37850,215088
20136,179313,37830,215065
20146,179290,37840,215089
20156,179330,37834,215099
20166,179319,37834,215099
20176,179322,37827,215084
20186,179313,37835,215058
20196,179312,37840,215083
20207,179324,37840,215087
20216,179318,37841,215056
20226,179310,37845,215081
20236,179315,37850,215103
20246,179321,37837,215086
20256,179295,37854,215096
20266,179275,37843,215119
20276,179312,37823,215103
20286,179320,37846,215100
20295,179330,37855,215108
20305,179321,37849,215107
20316,179320,37841,215110
20326,179323,37845,215092
20335,179320,37835,215102
20346,179309,37857,215098
20355,179324,37853,215065
20366,179328,37841,215090
20375,179311,37852,215116
20386,179344,37835,215100
20396,179321,37838,215106
20406,179333,37843,215104
20416,179327,37831,215107
20426,179310,37853,215096
20436,179315,37846,215123
20446,179327,37836,215113
20456,179327,37842,215112
20465,179318,37858,215106
20475,179341,37844,215124
20486,179306,37844,215114
20496,179315,37840,215106
20506,179339,37841,215123
20516,179341,37857,215100
20526,179356,37853,215125
20535,179314,37853,215133
20545,179335,37860,215137
20556,179352,37843,215137
20566,179311,37844,215130
20576,179336,37847,215115
20585,179302,37853,215129
20596,179329,37849,215116
20606,179326,37846,215119
20616,179341,37853,215119
20625,179319,37851,215126
20636,179336,37847,215123
20646,179323,37868,215134
20656,179332,37843,215138
20666,179333,37833,215132
20675,179339,37846,215137
20685,179326,37844,215125
20696,179334,37854,215142
20706,179314,37839,215117
20715,179318,37841,215148
20725,179295,37860,215163
20736,179346,37840,215143
20746,179351,37856,215161
20755,179327,37859,215151
20765,179346,37864,215150
20776,179329,37850,215168
20786,179336,37869,215148
20795,179328,37862,215172
20805,179344,37868,215153
20816,179349,37852,215154
20826,179355,37872,215162
20835,179364,37841,215146
20845,179319,37871,215159
20855,179341,37865,215165
20866,179346,37869,215158
20894,179358,37873,215166
20896,179354,37864,215174
20905,179356,37868,215190
20916,179340,37880,215169
20925,179362,37862,215174
20935,179350,37864,215183
20945,179368,37879,215174
20956,179353,37874,215160
20965,179354,37881,215167
20975,179344,37878,215165
20985,179336,37863,215179
20996,179364,37866,215175
21005,179356,37876,215181
21015,179340,37883,215197
21025,179343,37875,215180
21036,179360,37875,215190
21045,179384,37872,215191
21055,179365,37875,215174
21065,179375,37868,215190
21075,179359,37878,215169
21084,179355,37880,215168
21095,179352,37893,215185
21105,179372,37895,215177
21115,179372,37867,215179
21125,179380,37874,215197
21135,179377,37866,215163
21145,179373,37877,215146
21155,179349,37870,215186
21165,179372,37883,215164
21175,179364,37866,215182
21185,179383,37883,215143
21195,179358,37887,215181
21206,179362,37860,215177
21215,179367,37887,215141
21225,179352,37877,215180
21235,179350,37871,215189
21245,179355,37880,215153
21255,179361,37883,215185
21265,179352,37878,215168
21275,179372,37875,215175
21285,179373,37876,215185
21295,179374,37884,215184
21305,179370,37891,215183
21315,179358,37885,215195
21325,179358,37864,215172
21334,179394,37882,215175
21345,179373,37885,215183
21354,179367,37890,215169
21365,179383,37871,215196
21375,179354,37878,215180
21385,179365,37855,215185
21395,179364,37879,215192
21405,179356,37886,215161
21416,179353,37875,215194
21425,179375,37884,215164
21435,179350,37881,215153
21445,179360,37878,215182
21455,179359,37893,215177
21464,179353,37879,215179
21474,179381,37862,215185
21485,179383,37888,215171
21495,179371,37879,215174
21505,179387,37881,215195
21515,179360,37894,215159
21525,179365,37892,215187
21535,179357,37864,215165
21544,179379,37887,215191
21555,179373,37882,215159
21565,179360,37874,215184
21575,179363,37884,215193
21584,179370,37877,215158
21594,179368,37885,215167
21605,179377,37883,215198
21615,179372,37881,215149
21625,179358,37870,215143
21635,179356,37866,215169
21645,179354,37878,215166
21655,179341,37877,215149
21665,179373,37877,215152
21675,179350,37879,215176
21685,179361,37876,215162
21695,179345,37898,215181
21705,179367,37890,215164
21714,179351,37891,215176
21724,179352,37887,215151
21735,179367,37890,215171
21745,179361,37875,215175
21754,179349,37877,215171
21764,179360,37883,215196
21774,179351,37858,215173
21784,179365,37882,215207
21794,179355,37871,215172
21804,179389,37894,215192
21814,179367,37877,215153
21825,179352,37867,215195
21834,179363,37885,215162
21844,179352,37875,215157
21854,179365,37890,215141
21865,179360,37866,215167
21875,179348,37885,215156
21884,179368,37891,215164
21894,179358,37866,215179
21904,179365,37868,215169
21915,179336,37882,215172
21924,179354,37889,215192
21934,179361,37878,215182
21945,179381,37894,215209
21955,179353,37885,215145
21964,179344,37878,215149
21974,179357,37875,215144
21984,179349,37883,215174
21995,179349,37885,215145
22004,179341,37881,215153
22014,179349,37884,215144
22024,179331,37881,215148
22034,179358,37871,215167
22044,179338,37868,215138
22054,179338,37868,215156
22064,179329,37872,215149
22074,179351,37864,215169
22083,179355,37870,215157
22094,179356,37850,215156
22104,179345,37878,215151
22114,179358,37853,215141
22125,179343,37858,215130
22134,179331,37872,215146
22144,179348,37860,215150
22155,179326,37861,215138
22165,179331,37854,215128
22174,179316,37863,215148
22184,179354,37875,215159
22194,179344,37866,215165
22204,179333,37867,215170
22214,179325,37869,215135
22224,179336,37876,215168
22234,179320,37861,215132
22245,179322,37850,215138
22253,179328,37851,215108
22264,179312,37869,215113
22275,179337,37867,215113
22285,179338,37875,215155
22294,179331,37876,215138
22304,179330,37853,215149
22314,179327,37870,215131
22324,179332,37861,215142
22334,179338,37849,215142
22344,179336,37851,215146
22354,179339,37848,215140
22364,179325,37856,215081
22374,179316,37861,215128
22384,179322,37860,215157
22394,179343,37859,215136
22405,179325,37845,215090
22414,179323,37861,215120
22424,179321,37853,215092
22433,179323,37857,215109
22444,179324,37865,215108
22454,179326,37850,215116
22464,179306,37861,215087
22474,179348,37878,215116
22484,179310,37871,215133
22494,179333,37856,215132
22503,179324,37877,215130
22514,179320,37875,215128
22524,179321,37858,215146
22534,179328,37868,215125
22543,179336,37866,215118
22553,179315,37860,215132
22563,179342,37855,215138
22574,179318,37862,215109
22583,179324,37869,215111
22593,179335,37863,215127
22604,179322,37875,215108
22614,179323,37865,215131
22624,179314,37854,215123
22633,179317,37862,215101
22644,179320,37840,215138
22654,179312,37861,215108
22664,179307,37865,215130
22674,179324,37867,215132
22684,179320,37860,215127
22694,179310,37865,215130
22704,179328,37868,215107
22713,179326,37869,215123
22723,179323,37871,215152
22734,179322,37870,215129
22744,179328,37861,215159
22753,179322,37865,215109
22763,179318,37869,215142
22774,179324,37853,215137
22784,179314,37883,215131
22793,179321,37849,215121
22803,179325,37880,215121
22813,179319,37863,215119
22823,179324,37863,215085
22833,179329,37843,215096
22843,179314,37849,215105
22853,179318,37845,215132
22864,179322,37838,215088
22874,179317,37863,215109
22883,179308,37840,215116
22893,179314,37843,215099
22904,179306,37840,215132
22914,179306,37842,215100
22923,179309,37854,215108
22933,179307,37843,215102
22943,179316,37846,215105
22954,179284,37858,215096
22963,179285,37848,215118
22973,179304,37862,215083
22983,179293,37845,215138
22994,179294,37834,215117
23003,179313,37855,215091
23013,179308,37845,215131
23023,179309,37825,215106
23033,179309,37853,215115
23042,179293,37844,215117
23053,179302,37844,215102
23063,179292,37843,215123
23073,179297,37843,215091
23083,179292,37833,215105
23093,179296,37826,215077
23103,179282,37830,215090
23114,179299,37831,215089
23124,179284,37846,215094
23133,179264,37840,215091
23143,179287,37849,215076
23153,179278,37847,215119
23163,179292,37864,215108
23173,179276,37839,215104
23183,179293,37839,215080
23193,179276,37847,215100
23203,179280,37835,215076
23213,179263,37851,215114
23223,179283,37820,215091
23233,179260,37843,215090
23243,179265,37857,215108
23253,179270,37847,215123
23263,179286,37830,215113
23273,179261,37848,215104
23284,179264,37829,215107
23292,179289,37855,215101
23303,179256,37845,215112
23314,179252,37842,215091
23324,179269,37844,215093
23333,179255,37843,215093
23343,179270,37835,215089
23353,179254,37838,215099
23363,179251,37841,215101
23374,179267,37821,215077
23383,179264,37819,215075
23393,179251,37850,215083
23403,179263,37815,215052
23413,179265,37836,215068
23422,179254,37844,215069
23433,179253,37852,215084
23444,179255,37837,215097
23454,179259,37831,215090
23463,179251,37843,215085
23473,179269,37833,215052
23483,179243,37833,215075
23493,179241,37834,215072
23502,179244,37839,215075
23513,179249,37838,215079
23523,179234,37842,215091
23533,179229,37836,215081
23543,179250,37822,215053
23553,179247,37843,215047
23563,179218,37839,215076
23573,179241,37839,215066
23583,179246,37838,215066
23592,179252,37833,215070
23602,179243,37838,215066
23613,179245,37824,215067
23623,179232,37824,215050
23633,179237,37836,215051
23643,179244,37821,215052
23653,179217,37826,215055
23663,179251,37834,215053
23672,179233,37836,215057
23682,179245,37820,215052
23693,179232,37827,215058
23703,179237,37808,215030
23713,179233,37824,215029
23723,179238,37834,215059
23733,179231,37836,215056
23743,179236,37836,215078
23752,179227,37842,215067
23762,179230,37843,215053
23772,179194,37835,215060
23783,179227,37803,215047
23793,179218,37838,215020
23803,179207,37829,215044
23813,179222,37831,215044
23823,179225,37822,215037
23833,179235,37836,215059
23842,179234,37839,215047
23852,179228,37828,215032
23862,179229,37818,215060
23874,179235,37813,215028
23883,179215,37826,215054
23893,179221,37832,215053
23903,179212,37842,215035
23913,179208,37828,215034
23922,179219,37831,215033
23932,179226,37838,215022
23942,179203,37822,215035
23953,179211,37828,215016
23962,179223,37823,215020
23973,179208,37826,215019
23983,179215,37830,215033
23993,179213,37846,215032
24002,179216,37820,215026
24012,179226,37822,215014
24022,179216,37856,215038
24033,179219,37845,215026
24042,179200,37847,215017
24052,179208,37844,215012
24062,179238,37833,215047
24073,179216,37843,215033
24083,179224,37845,215031
24092,179211,37833,215046
24102,179220,37825,215042
24113,179219,37825,215026
24123,179232,37857,215039
24132,179216,37828,215041
24142,179220,37844,215024
24153,179226,37830,215030
24163,179214,37846,215033
24172,179192,37846,215038
24182,179218,37867,215034
24192,179215,37848,215036
24203,179205,37854,215041
24212,179214,37845,215034
24222,179218,37851,215047
24232,179203,37860,215033
24242,179209,37847,215035
24251,179202,37860,215041
24262,179201,37866,215037
24273,179234,37852,215044
24283,179228,37868,215038
24292,179222,37837,215031
24302,179225,37854,215045
24312,179219,37855,215048
24322,179222,37833,215048
24333,179217,37839,215046
24342,179223,37869,215045
24353,179223,37858,215035
24363,179239,37846,215043
24373,179204,37861,215049
24382,179220,37853,215047
24392,179236,37856,215066
24402,179230,37867,215057
24413,179226,37855,215044
24422,179208,37867,215042
24432,179245,37861,215045
24442,179216,37853,215040
24453,179226,37850,215028
24462,179234,37843,215045
24472,179229,37842,215028
24482,179223,37839,215045
24492,179201,37864,215038
24501,179224,37862,215048
24511,179220,37843,215084
24522,179222,37859,215071
24533,179226,37855,215063
24542,179230,37850,215060
24552,179218,37854,215061
24562,179224,37856,215086
24573,179229,37844,215071
24583,179226,37858,215053
24592,179224,37852,215054
24602,179213,37850,215076
24612,179217,37852,215069
24622,179237,37850,215059
24632,179219,37863,215070
24642,179226,37857,215081
24652,179231,37851,215067
24662,179225,37860,215082
24671,179221,37863,215091
24681,179236,37877,215085
24693,179239,37867,215091
24702,179222,37862,215077
24712,179248,37852,215086
24722,179232,37872,215077
24732,179233,37864,215094
24742,179224,37874,215085
24751,179227,37862,215091
24761,179237,37867,215088
24772,179239,37858,215069
24782,179236,37862,215087
24791,179246,37857,215093
24801,179236,37868,215098
24812,179263,37858,215103
24822,179239,37862,215067
24833,179252,37865,215108
24842,179239,37879,215102
24852,179259,37877,215102
24862,179261,37863,215116
24872,179256,37871,215112
24881,179252,37870,215131
24892,179245,37883,215125
24901,179260,37866,215092
24912,179271,37863,215122
24922,179273,37878,215095
24932,179269,37876,215138
24942,179270,37864,215133
24952,179270,37880,215095
24961,179268,37885,215133
24972,179245,37883,215130
24982,179282,37881,215108
24992,179261,37896,215125
25001,179249,37883,215150
25011,179275,37872,215130
25021,179275,37881,215141
25032,179277,37860,215130
25041,179272,37888,215139
25051,179272,37865,215136
25061,179269,37884,215130
25072,179277,37880,215150
25082,179298,37882,215115
25091,179268,37898,215128
25101,179278,37892,215136
25112,179272,37892,215146
25122,179272,37887,215132
25131,179278,37882,215135
25141,179278,37878,215147
25151,179274,37892,215141
25162,179292,37885,215139
25171,179275,37894,215154
25181,179285,37901,215143
25192,179282,37891,215153
25202,179279,37901,215156
25211,179288,37889,215139
25221,179292,37899,215146
25231,179297,37898,215139
25241,179289,37890,215146
25251,179312,37886,215150
25261,179289,37899,215131
25271,179301,37878,215150
25281,179289,37889,215144
25291,179293,37909,215120
25301,179289,37887,215135
25311,179286,37888,215162
25321,179302,37876,215146
25332,179300,37882,215139
25341,179286,37896,215150
25351,179299,37882,215125
25361,179299,37910,215157
25371,179300,37895,215151
25380,179297,37891,215146
25391,179283,37900,215147
25401,179291,37890,215120
25412,179302,37895,215149
25421,179303,37897,215146
25431,179288,37881,215129
25441,179281,37879,215126
25451,179293,37879,215135
25461,179284,37894,215135
25471,179283,37894,215164
25481,179279,37891,215156
25491,179285,37910,215136
25500,179301,37904,215140
25510,179307,37893,215166
25521,179277,37887,215142
25532,179309,37877,215144
25541,179285,37889,215138
25551,179278,37888,215157
25561,179274,37887,215141
25571,179280,37884,215150
25581,179284,37876,215148
25590,179282,37889,215148
25601,179301,37878,215154
25613,179296,37879,215148
25621,179281,37897,215165
25630,179289,37900,215146
25641,179284,37895,215152
25651,179285,37897,215151
25661,179285,37885,215178
25671,179299,37891,215154
25681,179295,37886,215171
25691,179259,37893,215132
25701,179279,37888,215133
25710,179278,37884,215154
25720,179289,37887,215156
25730,179278,37894,215152
25741,179282,37872,215145
25750,179272,37883,215149
25761,179275,37887,215138
25771,179284,37883,215147
25781,179293,37888,215127
25791,179285,37899,215151
25800,179283,37870,215148
25810,179284,37888,215156
25821,179295,37878,215156
25831,179284,37904,215159
25840,179279,37871,215162
25850,179259,37897,215135
25861,179288,37885,215138
25871,179275,37891,215119
25881,179273,37884,215152
25891,179275,37895,215158
25901,179283,37885,215157
25911,179271,37887,215158
25920,179275,37880,215153
25930,179278,37892,215129
25940,179266,37901,215160
25951,179255,37893,215155
25960,179287,37896,215135
25971,179256,37894,215141
25981,179275,37890,215141
25991,179254,37894,215166
26000,179283,37891,215155
26010,179285,37877,215145
26021,179283,37897,215169
26031,179278,37882,215154
26041,179272,37887,215155
26050,179281,37889,215146
26060,179279,37894,215136
26071,179277,37885,215112
26081,179281,37887,215114
26090,179279,37880,215105
26101,179263,37891,215126
26111,179257,37876,215140
26121,179282,37893,215143
26130,179268,37889,215122
26140,179291,37866,215139
26150,179265,37876,215136
26161,179259,37885,215132
26170,179251,37876,215125
26180,179263,37891,215122
26190,179266,37878,215132
26201,179257,37889,215142
26210,179262,37878,215125
26220,179241,37877,215144
26230,179254,37876,215122
26241,179276,37869,215115
26250,179269,37880,215117
26260,179251,37876,215132
26271,179257,37891,215137
26280,179280,37876,215114
26291,179282,37865,215116
26300,179255,37868,215119
26310,179257,37878,215112
26321,179239,37878,215124
26331,179265,37871,215105
26340,179252,37874,215136
26350,179264,37890,215117
26361,179250,37870,215101
26371,179264,37877,215113
26380,179235,37877,215125
26390,179234,37879,215112
26400,179268,37881,215096
26411,179248,37859,215114
26420,179253,37868,215110
26430,179239,37864,215112
26440,179245,37872,215097
26451,179227,37869,215123
26460,179258,37868,215116
26470,179244,37871,215120
26480,179230,37873,215115
26491,179237,37855,215128
26500,179236,37863,215104
26510,179243,37874,215126
26520,179236,37870,215104
26530,179259,37873,215109
26541,179250,37868,215095
26550,179219,37879,215112
26560,179237,37869,215117
26570,179246,37866,215097
26581,179220,37872,215115
26590,179234,37866,215102
26600,179247,37869,215114
26610,179240,37874,215097
26621,179232,37873,215125
26630,179234,37869,215125
26640,179260,37855,215114
26650,179233,37852,215114
26661,179227,37876,215120
26670,179241,37867,215111
26680,179231,37860,215125
26690,179240,37860,215117
26701,179254,37865,215140
26710,179250,37845,215118
26719,179239,37860,215116
26730,179246,37850,215107
26740,179250,37875,215112
26750,179238,37837,215112
26760,179221,37856,215112
26770,179230,37861,215123
26780,179228,37873,215115
26791,179236,37853,215137
26800,179218,37870,215100
26810,179235,37868,215117
26820,179233,37859,215128
26831,179229,37857,215129
26839,179228,37853,215091
26850,179231,37865,215128
26860,179239,37866,215124
26874,179250,37868,215134
26879,179234,37857,215146
26890,179232,37864,215137
26900,179238,37858,215139
26910,179250,37859,215123
26919,179254,37852,215122
26930,179239,37837,215118
26940,179219,37859,215114
26950,179243,37850,215099
26959,179222,37842,215121
26970,179243,37846,215119
26980,179235,37840,215136
26990,179226,37847,215146
27000,179227,37860,215129
27009,179220,37868,215127
27020,179237,37844,215124
27030,179214,37844,215133
27040,179228,37837,215108
27049,179226,37851,215133
27059,179234,37840,215143
27069,179223,37834,215118
27080,179235,37823,215129
27090,179204,37851,215126
27099,179207,37843,215128
27110,179210,37839,215127
27120,179214,37844,215153
27129,179227,37829,215144
27139,179207,37838,215141
27149,179232,37841,215142
27159,179223,37830,215137
27169,179215,37844,215148
27180,179214,37837,215137
27190,179207,37845,215115
27200,179189,37830,215129
27209,179204,37823,215125
27219,179204,37835,215122
27229,179197,37834,215120
27239,179207,37835,215078
27249,179188,37836,215106
27259,179202,37826,215116
27270,179190,37841,215105
27280,179192,37826,215099
27290,179207,37830,215107
27299,179182,37826,215116
27309,179209,37832,215107
27320,179193,37831,215130
27330,179190,37830,215096
27339,179204,37821,215134
27349,179173,37841,215120
27359,179191,37827,215121
27369,179209,37812,215137
27379,179181,37837,215140
27389,179191,37848,215133
27399,179176,37826,215152
27410,179193,37807,215135
27418,179177,37834,215124
27429,179185,37815,215141
27440,179161,37827,215131
27450,179178,37830,215130
27459,179159,37819,215151
27469,179168,37828,215152
27479,179182,37825,215146
27489,179142,37829,215131
27500,179172,37836,215119
27509,179163,37835,215128
27519,179178,37833,215116
27529,179172,37820,215113
27539,179135,37833,215109
27549,179152,37813,215133
27559,179158,37830,215124
27570,179161,37831,215124
27580,179161,37825,215118
27589,179176,37820,215117
27599,179145,37819,215127
27609,179164,37824,215127
27620,179175,37817,215138
27629,179167,37839,215127
27639,179172,37822,215117
27649,179155,37818,215128
27659,179158,37833,215130
27668,179165,37824,215146
27678,179170,37817,215140
27689,179145,37836,215138
27699,179162,37834,215126
27708,179164,37836,215143
27719,179163,37826,215125
27729,179165,37830,215126
27739,179169,37834,215118
27749,179168,37834,215113
27758,179150,37826,215119
27769,179164,37829,215119
27779,179172,37826,215129
27790,179183,37827,215102
27799,179163,37838,215107
27809,179177,37822,215115
27819,179171,37822,215137
27829,179159,37826,215127
27838,179172,37826,215142
27848,179180,37823,215132
27859,179179,37833,215129
27869,179172,37829,215120
27878,179169,37818,215122
27889,179150,37826,215135
27898,179165,37830,215092
27909,179181,37812,215125
27918,179172,37829,215105
27929,179154,37829,215119
27938,179176,37831,215083
27949,179167,37837,215115
27958,179169,37815,215093
27969,179175,37825,215105
27979,179176,37831,215123
27989,179176,37829,215115
27999,179176,37825,215119
28009,179175,37830,215117
28019,179164,37826,215118
28029,179182,37833,215125
28039,179179,37833,215110
28048,179158,37829,215112
28059,179179,37834,215111
28069,179174,37833,215115
28079,179174,37826,215108
28088,179168,37834,215113
28098,179152,37825,215127
28108,179177,37840,215113
28119,179178,37818,215121
28128,179181,37840,215123
28138,179162,37815,215129
28149,179175,37826,215135
28158,179175,37827,215126
28168,179160,37839,215149
28179,179174,37839,215111
28189,179184,37838,215106
28199,179138,37820,215123
28208,179156,37841,215125
28218,179166,37844,215118
28228,179172,37847,215138
28239,179176,37829,215138
28249,179187,37835,215118
28258,179155,37840,215145
28269,179180,37823,215143
28278,179177,37827,215143
28288,179179,37839,215145
28298,179184,37840,215148
28309,179185,37811,215143
28319,179182,37834,215143
28329,179177,37833,215141
28338,179193,37840,215149
28348,179175,37833,215145
28358,179170,37844,215149
28369,179188,37821,215140
28377,179187,37831,215136
28388,179173,37825,215163
28398,179184,37848,215135
28409,179164,37837,215155
28417,179188,37855,215144
28428,179180,37845,215155
28439,179193,37835,215138
28449,179189,37838,215138
28458,179176,37844,215150
28468,179178,37844,215157
28478,179195,37846,215159
28488,179176,37838,215159
28499,179195,37855,215173
28508,179181,37854,215150
28518,179200,37835,215128
28528,179201,37824,215141
28538,179196,37840,215161
28547,179188,37846,215161
28558,179194,37835,215151
28568,179201,37850,215156
28579,179202,37818,215147
28588,179196,37834,215135
28598,179181,37843,215150
28608,179207,37844,215164
28619,179182,37853,215158
28628,179199,37836,215168
28638,179208,37825,215159
28648,179181,37842,215178
28658,179200,37843,215152
28667,179170,37844,215172
28678,179203,37849,215166
28688,179197,37831,215159
28698,179186,37834,215164
28708,179194,37826,215154
28718,179192,37840,215144
28728,179198,37841,215167
28739,179182,37835,215171
28749,179180,37844,215154
28758,179183,37851,215170
28768,179207,37838,215153
28778,179216,37843,215158
28788,179197,37835,215169
28798,179205,37837,215168
28808,179204,37860,215156
28818,179199,37860,215164
28828,179199,37829,215153
28838,179219,37857,215181
28848,179207,37833,215163
28858,179201,37839,215164
28868,179202,37836,215169
28877,179183,37842,215163
28887,179207,37848,215163
28898,179206,37850,215150
28908,179202,37850,215164
28917,179217,37845,215159
28927,179195,37853,215158
28938,179207,37843,215159
28948,179198,37850,215192
28958,179215,37824,215177
28968,179205,37851,215189
28977,179216,37848,215174
28988,179199,37851,215182
28998,179207,37848,215171
29008,179200,37834,215178
29017,179211,37843,215159
29028,179215,37852,215178
29038,179215,37854,215188
29048,179211,37852,215173
29058,179213,37848,215198
29068,179225,37848,215187
29078,179237,37845,215187
29087,179230,37834,215175
29097,179209,37858,215202
29108,179205,37853,215201
29118,179222,37839,215204
29127,179233,37857,215159
29138,179209,37851,215178
29148,179217,37869,215183
29158,179231,37851,215211
29167,179234,37843,215188
29177,179227,37868,215201
29187,179223,37875,215200
29198,179224,37870,215205
29208,179219,37861,215176
29218,179249,37859,215201
29228,179227,37859,215178
29238,179227,37866,215194
29248,179235,37882,215202
29257,179239,37861,215202
29267,179233,37872,215203
29278,179246,37866,215204
29288,179243,37867,215214
29297,179229,37867,215208
29308,179237,37866,215197
29317,179233,37872,215185
29328,179237,37855,215195
29337,179240,37861,215186
29348,179252,37850,215185
29357,179232,37859,215177
29368,179244,37861,215185
29377,179249,37861,215162
29387,179231,37863,215196
29397,179252,37869,215163
29408,179232,37872,215190
29416,179256,37869,215165
29427,179247,37871,215187
29437,179241,37874,215181
29448,179237,37865,215207
29457,179249,37875,215193
29467,179225,37856,215204
29478,179255,37871,215200
29488,179245,37868,215180
29498,179258,37863,215186
29507,179273,37880,215203
29517,179259,37854,215179
29527,179253,37860,215167
29538,179257,37859,215176
29547,179257,37856,215175
29557,179261,37876,215195
29567,179254,37858,215185
29578,179250,37861,215191
29587,179235,37872,215185
29597,179260,37863,215169
29607,179252,37879,215176
29617,179238,37857,215178
29627,179260,37866,215179
29636,179257,37868,215197
29647,179259,37858,215185
29658,179248,37861,215198
29667,179251,37879,215144
29677,179245,37867,215154
29687,179238,37876,215155
29697,179241,37877,215161
29707,179244,37866,215171
29717,179256,37862,215156
29727,179245,37878,215161
29737,179249,37862,215187
29748,179260,37870,215181
29756,179264,37875,215179
29767,179260,37860,215175
29778,179242,37871,215181
29788,179254,37863,215155
29797,179249,37869,215174
29807,179233,37864,215154
29817,179253,37859,215168
29827,179247,37862,215149
29837,179262,37857,215172
29847,179220,37865,215161
29857,179250,37867,215148
29867,179242,37872,215177
29876,179250,37875,215155
29887,179248,37871,215170
29897,179258,37869,215140
29907,179249,37871,215160
29916,179258,37875,215138
29927,179251,37865,215155
29937,179244,37867,215159
29947,179218,37874,215172
29957,179235,37876,215159
29966,179233,37875,215160
29977,179239,37877,215142
29987,179242,37875,215143
29997,179240,37880,215162
30006,179244,37872,215167
30016,179250,37859,215173
30027,179218,37892,215167
30037,179245,37871,215163
30047,179239,37870,215161
30056,179249,37871,215186
30067,179240,37875,215157
30077,179241,37890,215170
30087,179246,37862,215171
30097,179262,37876,215123
30107,179254,37866,215134
30117,179229,37869,215154
30126,179256,37873,215151
30136,179243,37874,215179
30146,179248,37872,215144
30157,179236,37867,215158
30166,179256,37874,215124
30176,179232,37882,215134
30187,179225,37878,215139
30197,179242,37882,215135
30207,179247,37854,215145
30216,179246,37857,215128
30227,179252,37858,215127
30237,179252,37855,215143
30247,179228,37873,215145
30256,179231,37869,215138
30266,179239,37858,215143
30277,179234,37857,215140
30287,179239,37859,215150
30296,179225,37856,215158
30307,179230,37853,215158
30316,179237,37858,215127
30327,179233,37843,215132
30336,179236,37849,215125
30347,179250,37839,215140
30357,179239,37864,215118
30367,179206,37859,215131
30376,179236,37860,215147
30386,179227,37845,215144
30396,179219,37837,215141
30407,179205,37848,215135
30416,179223,37852,215116
30427,179202,37847,215138
30436,179232,37844,215126
30447,179205,37846,215127
30457,179232,37858,215125
30466,179216,37844,215125
30476,179226,37852,215113
30487,179235,37830,215136
30496,179228,37845,215075
30506,179219,37827,215109
30517,179234,37851,215119
30527,179234,37845,215122
30537,179208,37846,215132
30546,179230,37848,215111
30556,179222,37854,215128
30566,179208,37852,215108
30577,179217,37845,215121
30586,179233,37850,215114
30596,179224,37832,215125
30606,179213,37850,215122
30616,179234,37838,215090
30625,179226,37848,215096
30636,179218,37846,215132
30646,179230,37850,215111
30656,179216,37839,215110
30666,179224,37831,215108
30676,179221,37849,215108
30686,179228,37839,215123
30697,179219,37835,215122
30707,179234,37828,215104
30716,179200,37845,215115
30726,179216,37843,215125
30736,179198,37835,215116
30746,179211,37832,215125
30756,179216,37840,215100
30766,179198,37848,215103
30776,179219,37842,215116
30787,179214,37820,215113
30796,179208,37832,215113
30806,179223,37835,215093
30816,179187,37843,215107
30826,179201,37839,215118
30836,179208,37836,215099
30846,179207,37835,215124
30856,179207,37849,215100
30866,179208,37837,215115
30875,179198,37832,215122
30885,179207,37848,215130
30896,179215,37841,215124
30907,179208,37837,215112
30916,179206,37843,215107
30926,179250,37835,215104
30936,179210,37840,215112
30946,179177,37844,215130
30957,179194,37841,215131
30966,179176,37834,215134
30976,179219,37842,215113
30986,179187,37842,215118
30997,179206,37833,215100
31006,179187,37835,215100
31016,179196,37837,215106
31026,179208,37829,215099
31036,179210,37827,215117
31045,179202,37825,215079
31055,179212,37824,215096
31065,179177,37829,215092
31076,179214,37811,215098
31085,179137,37838,215091
31095,179208,37795,215110
31105,179169,37836,215084
31116,179177,37821,215111
31125,179120,37823,215090
31135,179183,37811,215118
31146,179191,37836,215094
31156,179169,37827,215084
31166,179191,37815,215099
31176,179171,37820,215121
31186,179167,37816,215100
31196,179171,37810,215084
31206,179195,37824,215094
31215,179173,37815,215079
31225,179195,37822,215096
31236,179174,37820,215099
31246,179180,37818,215117
31255,179173,37806,215090
31266,179194,37803,215092
31276,179169,37821,215088
31286,179164,37802,215101
31295,179157,37810,215106
31305,179185,37803,215082
31316,179178,37813,215084
31326,179169,37798,215069
31335,179150,37803,215081
31346,179168,37810,215079
31355,179178,37806,215063
31366,179165,37801,215076
31375,179170,37802,215045
31386,179179,37800,215086
31396,179152,37794,215075
31406,179163,37813,215092
31416,179184,37811,215092
31425,179149,37798,215090
31435,179141,37812,215087
31446,179172,37799,215095
31456,179161,37799,215075
31465,179174,37804,215084
31475,179164,37804,215065
31485,179176,37802,215072
31495,179159,37795,215068
31505,179150,37809,215049
31515,179139,37799,215086
31525,179130,37807,215063
31536,179144,37807,215056
31545,179162,37803,215061
31555,179149,37804,215068
31565,179127,37810,215044
31576,179130,37786,215050
31585,179149,37795,215049
31595,179148,37796,215048
31605,179134,37799,215045
31615,179134,37794,215060
31625,179125,37794,215049
31635,179122,37795,215064
31645,179139,37809,215051
31655,179118,37795,215046
31665,179133,37786,215036
31675,179132,37797,215053
31685,179146,37814,215061
31695,179130,37801,215057
31706,179140,37791,215055
31714,179121,37794,215017
31725,179121,37795,215045
31735,179134,37795,215060
31746,179098,37802,215055
31755,179121,37802,215041
31765,179153,37808,215017
31776,179140,37791,215042
31786,179134,37790,215017
31795,179116,37807,215035
31805,179126,37796,215060
31815,179120,37794,215040
31825,179105,37797,215045
31834,179133,37783,215027
31845,179123,37802,215030
31855,179123,37804,215000
31866,179122,37795,215058
31875,179117,37800,215000
31885,179113,37789,215027
31895,179117,37777,215011
31906,179125,37768,215032
31916,179113,37787,215018
31925,179125,37791,215021
31935,179104,37779,215028
31945,179101,37793,215021
31956,179124,37798,215033
31965,179115,37794,215021
31975,179110,37787,215018
31985,179132,37796,215033
31996,179117,37778,215037
32005,179134,37801,215014
32015,179114,37781,215036
32025,179115,37797,215000
32036,179112,37778,215021
32045,179105,37783,214985
32055,179104,37805,215001
32065,179111,37808,215013
32075,179111,37806,214993
32084,179077,37789,215009
32094,179097,37792,215029
32104,179100,37793,215023
32115,179101,37795,215013
32125,179101,37792,215019
32134,179108,37785,215006
32145,179103,37785,215032
32155,179109,37798,215028
32165,179108,37786,214984
32174,179099,37794,215005
32185,179094,37792,215002
32195,179102,37795,215000
32205,179131,37795,215028
32215,179107,37805,215007
32225,179059,37807,215015
32235,179099,37803,214999
32245,179093,37797,214922
32254,179097,37789,215017
32264,179108,37789,215005
32274,179113,37777,215003
32285,179110,37794,215044
32294,179105,37787,215021
32305,179091,37802,215000
32315,179087,37795,214991
32325,179094,37797,215025
32335,179076,37803,215013
32345,179109,37795,214991
32355,179074,37801,215003
32365,179103,37799,215033
32375,179087,37803,215010
32384,179096,37793,215020
32395,179103,37781,215009
32405,179100,37787,215028
32415,179108,37800,215037
32424,179101,37779,215038
32435,179102,37787,215051
32445,179095,37795,215024
32455,179088,37805,215045
32464,179110,37804,215048
32475,179113,37785,215031
32485,179121,37803,215034
32495,179097,37801,215036
32504,179114,37808,215051
32514,179118,37801,215055
32524,179102,37809,215061
32535,179113,37804,215039
32544,179103,37808,215081
32554,179126,37795,215040
32565,179122,37789,215055
32575,179097,37800,215071
32584,179113,37797,215061
32594,179122,37817,215050
32604,179127,37816,215081
32615,179123,37813,215058
32625,179140,37806,215079
32634,179113,37809,215072
32644,179130,37814,215087
32655,179122,37801,215073
32665,179121,37809,215081
32674,179142,37811,215052
32684,179135,37803,215098
32694,179132,37808,215064
32705,179140,37814,215055
32714,179134,37803,215046
32725,179107,37801,215032
32734,179123,37821,215057
32745,179100,37799,215077
32754,179130,37819,215086
32764,179132,37801,215085
32774,179134,37802,215089
32784,179122,37813,215031
32794,179139,37815,215068
32804,179120,37810,215114
32815,179127,37822,215096
32825,179150,37817,215092
32834,179131,37822,215069
32844,179141,37834,215084
32854,179143,37821,215085
32864,179118,37811,215068
32874,179119,37817,215090
32884,179140,37816,215089
32894,179146,37812,215085
32905,179138,37825,215080
32914,179132,37804,215099
32924,179146,37813,215101
32934,179131,37827,215100
32944,179142,37803,215099
32955,179136,37811,215103
32964,179140,37820,215076
32974,179143,37808,215099
32984,179152,37811,215041
32995,179139,37794,215102
33004,179149,37820,215091
33014,179143,37816,215096
33024,179166,37818,215077
33035,179142,37816,215104
33044,179157,37820,215103
33054,179130,37827,215106
33064,179149,37825,215082
33074,179128,37827,215116
33083,179160,37804,215113
33094,179148,37824,215121
33104,179159,37823,215122
33114,179165,37823,215092
33124,179143,37816,215139
33134,179166,37837,215123
33144,179158,37838,215132
33154,179166,37816,215141
33164,179177,37837,215128
33173,179158,37811,215136
33183,179157,37829,215114
33194,179160,37809,215121
33204,179147,37826,215114
33213,179171,37824,215123
33224,179172,37821,215109
33234,179173,37845,215113
33244,179161,37848,215130
33253,179170,37828,215143
33263,179172,37827,215114
33274,179184,37839,215121
33284,179150,37847,215136
33293,179172,37842,215139
33303,179191,37813,215141
33313,179182,37826,215137
33324,179188,37830,215118
33333,179194,37828,215147
33344,179183,37828,215163
33354,179191,37848,215146
33364,179169,37843,215156
33374,179186,37840,215149
33383,179187,37832,215156
33394,179198,37849,215167
33404,179199,37820,215157
33414,179176,37833,215162
33423,179198,37841,215167
33434,179195,37842,215158
33444,179196,37859,215178
33454,179189,37846,215153
33463,179208,37831,215183
33473,179221,37851,215169
33483,179201,37872,215146
33494,179214,37841,215123
33503,179209,37831,215114
33513,179220,37842,215142
33523,179204,37829,215137
33534,179208,37849,215145
33543,179214,37846,215133
33554,179217,37843,215123
33564,179208,37859,215150
33574,179197,37836,215146
33583,179220,37850,215140
33594,179203,37834,215144
33604,179214,37843,215142
33614,179186,37841,215152
33624,179216,37851,215139
33633,179185,37843,215120
33643,179218,37844,215109
33653,179203,37852,215135
33664,179208,37809,215103
33674,179189,37840,215094
33684,179205,37836,215100
33694,179190,37838,215089
33704,179200,37841,215095
33713,179214,37840,215105
33723,179199,37820,215093
33734,179190,37827,215105
33744,179201,37839,215094
33753,179200,37839,215099
33763,179176,37858,215101
33773,179188,37839,215088
33783,179179,37838,215082
33793,179198,37832,215088
33803,179180,37831,215111
33813,179202,37842,215076
33823,179174,37841,215106
33833,179197,37828,215095
33842,179205,37804,215074
33853,179197,37829,215104
33864,179190,37847,215110
33874,179202,37836,215109
33883,179187,37843,215115
33893,179184,37834,215105
33903,179183,37834,215105
33913,179189,37828,215118
33922,179201,37817,215085
33933,179205,37810,215123
33943,179196,37834,215076
33953,179187,37814,215097
33963,179192,37829,215084
33974,179189,37840,215100
33984,179190,37858,215093
33994,179195,37829,215085
34003,179186,37854,215106
34013,179196,37853,215104
34023,179185,37827,215089
34034,179175,37840,215091
34043,179188,37839,215103
34053,179176,37846,215102
34063,179194,37808,215091
34073,179190,37843,215081
34083,179196,37832,215083
34093,179203,37842,215079
34103,179172,37858,215069
34114,179187,37839,215062
34124,179175,37846,215035
34133,179180,37821,215056
34143,179186,37841,215065
34153,179183,37843,215055
34163,179190,37830,215063
34173,179180,37834,215045
34183,179174,37837,215072
34193,179161,37843,215076
34204,179187,37833,215064
34213,179184,37842,215074
34223,179173,37847,215089
34234,179170,37833,215060
34244,179149,37852,215063
34253,179182,37838,215036
34263,179146,37846,215055
34273,179178,37827,215047
34283,179148,37832,215068
34293,179174,37831,215061
34303,179162,37841,215049
34313,179147,37833,215062
34323,179165,37834,215053
34333,179161,37831,215065
34342,179150,37836,215051
34353,179173,37830,215062
34363,179183,37837,215069
34373,179164,37823,215044
34382,179139,37827,215074
34393,179151,37824,215065
34403,179155,37818,215069
34413,179161,37803,215085
34422,179147,37817,215081
34432,179162,37821,215072
34442,179166,37831,215105
34453,179157,37805,215079
34462,179119,37825,215037
34473,179136,37837,215062
34483,179135,37834,215056
34493,179158,37824,215047
34502,179141,37829,215073
34512,179143,37813,215067
34523,179150,37821,215038
34533,179139,37806,215075
34542,179135,37826,215071
34553,179141,37806,215077
34563,179144,37814,215072
34573,179136,37812,215063
34583,179133,37821,215044
34592,179139,37807,215052
34602,179131,37813,215080
34613,179128,37803,215061
34623,179124,37818,215065
34633,179137,37804,215052
34643,179125,37822,215046
34653,179129,37810,215036
34663,179116,37805,215065
34672,179115,37812,215047
34682,179133,37820,215040
34692,179124,37805,215044
34702,179122,37810,215042
34713,179126,37821,215041
34723,179121,37816,215032
34733,179118,37815,215039
34743,179083,37795,215039
34752,179120,37807,215033
34762,179097,37810,215049
34772,179092,37813,215028
34782,179115,37821,215034
34791,179126,37806,215033
34802,179123,37794,215037
34812,179124,37808,215021
34822,179113,37810,215053
34832,179105,37805,215045
34842,179118,37796,215037
34853,179102,37808,215030
34863,179091,37809,215043
34873,179089,37807,215044
34882,179109,37802,215018
34892,179111,37814,215053
34903,179127,37803,215044
34913,179117,37812,215050
34922,179102,37798,215021
34933,179089,37807,215022
34942,179105,37805,215051
34953,179110,37791,215036
34962,179111,37807,215010
34972,179090,37814,215036
34982,179092,37803,215047
34993,179085,37812,215044
35001,179106,37823,215029
35012,179118,37802,215035
35022,179095,37816,215015
35032,179101,37796,215039
35041,179102,37812,215038
35051,179113,37820,215028
35063,179097,37793,215044
35073,179103,37801,215021
35083,179107,37804,215026
35092,179102,37807,215008
35102,179098,37796,215021
35112,179111,37804,215018
35122,179106,37795,214998
35132,179086,37818,215010
35142,179101,37791,214977
35152,179077,37825,215011
35162,179100,37808,214996
35171,179086,37810,214991
35181,179084,37802,215006
35192,179092,37793,215003
35202,179093,37809,214969
35212,179064,37795,215016
35222,179085,37803,215006
35232,179101,37785,215022
35242,179098,37802,215006
35252,179085,37784,215014
35262,179081,37794,215016
35272,179079,37796,215011
35282,179088,37797,215002
35291,179085,37801,214994
35301,179086,37786,214988
35312,179089,37813,214996
35322,179080,37786,215007
35333,179090,37811,215009
35342,179088,37794,214985
35352,179087,37799,215013
35362,179091,37785,214994
35372,179083,37795,214981
35381,179086,37799,215028
35392,179081,37799,215017
35402,179091,37800,214995
35412,179070,37810,215005
35421,179088,37800,214999
35432,179068,37806,215002
35442,179075,37809,215007
35452,179075,37816,215006
35461,179095,37787,215000
35472,179057,37794,214990
35482,179081,37806,214979
35492,179098,37801,214994
35501,179079,37791,214995
35512,179074,37801,214990
35522,179079,37806,214987
35532,179077,37807,214993
35541,179081,37791,215016
35551,179070,37801,215025
35561,179082,37782,215009
35572,179079,37783,215002
35582,179077,37824,215006
35591,179094,37818,215004
35602,179095,37803,215001
35612,179078,37804,215010
35622,179088,37803,215001
35631,179084,37815,215004
35641,179087,37793,214995
35652,179072,37797,215015
35662,179086,37803,215023
35671,179072,37814,215005
35681,179075,37810,215022
35691,179096,37809,215019
35701,179077,37828,215040
35713,179104,37805,215033
35721,179090,37804,215051
35731,179095,37809,215037
35742,179084,37810,215059
35751,179083,37818,215053
35761,179076,37800,215019
35772,179071,37811,215066
35782,179100,37808,215045
35791,179086,37810,215038
35801,179092,37803,215037
35811,179070,37810,215043
35822,179086,37825,215019
35832,179075,37814,215044
35841,179062,37817,215050
35853,179069,37819,215060
35862,179090,37813,215054
35872,179095,37806,215034
35881,179087,37824,215067
35891,179094,37810,215026
35901,179096,37812,215064
35911,179091,37820,215062
35920,179077,37833,215084
35932,179104,37795,215051
35942,179093,37820,215048
35952,179100,37820,215057
35961,179086,37807,215038
35971,179108,37816,215046
35981,179100,37814,215055
35991,179098,37802,215057
36000,179087,37805,215053
36012,179092,37824,215077
36021,179081,37803,215057
36032,179103,37810,215062
36041,179104,37821,215060
36051,179071,37814,215067
36061,179076,37799,215063
36071,179102,37814,215069
36081,179102,37804,215089
36090,179105,37814,215081
36101,179095,37808,215079
36111,179083,37817,215067
36121,179094,37806,215054
36130,179088,37800,215053
36154,179107,37803,215056
36161,179098,37810,215056
36170,179088,37814,215040
36181,179073,37828,215069
36191,179096,37818,215058
36201,179104,37795,215069
36210,179095,37802,215064
36220,179101,37801,215070
36231,179104,37784,215067
36242,179097,37817,215059
36251,179101,37811,215035
36261,179084,37820,215047
36271,179093,37799,215069
36281,179091,37808,215054
36291,179101,37819,215060
36301,179110,37814,215067
36311,179101,37819,215059
36321,179090,37823,215069
36331,179080,37815,215072
36341,179098,37816,215049
36351,179099,37808,215063
36361,179095,37814,215079
36372,179089,37808,215067
36381,179108,37821,215075
36391,179092,37816,215063
36401,179109,37806,215054
36411,179102,37818,215064
36421,179092,37818,215047
36431,179110,37795,215051
36441,179105,37820,215065
36451,179109,37814,215075
36460,179104,37823,215068
36470,179101,37814,215084
36481,179105,37806,215067
36491,179100,37824,215055
36500,179113,37809,215073
36511,179108,37803,215093
36521,179090,37829,215074
36531,179110,37821,215082
36541,179108,37801,215065
36550,179095,37820,215073
36561,179107,37828,215071
36571,179105,37835,215052
36581,179090,37825,215077
36590,179092,37838,215074
36600,179095,37825,215082
36611,179104,37823,215093
36621,179127,37839,215065
36630,179104,37831,215077
36641,179116,37803,215082
36651,179084,37819,215084
36661,179112,37842,215071
36670,179107,37827,215075
36680,179102,37836,215081
36694,179099,37846,215092
36701,179110,37828,215081
36710,179122,37823,215096
36720,179112,37829,215089
36731,179096,37835,215095
36741,179125,37830,215048
36750,179117,37826,215082
36761,179114,37832,215091
36771,179121,37838,215092
36781,179097,37825,215091
36791,179114,37848,215074
36800,179120,37826,215073
36814,179125,37826,215075
36821,179123,37824,215090
36831,179110,37829,215086
36840,179114,37841,215078
36850,179127,37834,215084
36861,179121,37820,215080
36871,179113,37822,215111
36880,179118,37833,215085
36890,179128,37829,215096
36901,179113,37826,215077
36911,179106,37837,215090
36920,179119,37829,215099
36930,179121,37829,215068
36941,179123,37827,215090
36951,179102,37827,215086
36960,179105,37843,215092
36973,179124,37826,215067
36981,179132,37826,215076
36991,179104,37823,215063
37000,179107,37829,215063
37010,179125,37829,215063
37020,179114,37832,215097
37030,179103,37834,215072
37040,179119,37832,215071
37049,179111,37825,215074
37060,179110,37824,215071
37070,179098,37818,215073
37081,179094,37822,215071
37090,179092,37818,215052
37100,179116,37818,215068
37110,179116,37823,215079
37121,179123,37834,215040
37130,179097,37825,215067
37140,179116,37824,215064
37150,179100,37828,215073
37160,179117,37822,215070
37169,179101,37835,215055
37180,179094,37833,215058
37190,179107,37820,215056
37200,179074,37815,215069
37209,179111,37838,215072
37220,179090,37827,215065
37231,179086,37825,215070
37240,179105,37825,215065
37250,179101,37821,215071
37260,179106,37824,215059
37270,179092,37825,215044
37280,179094,37833,215036
37291,179101,37811,215063
37299,179104,37818,215063
37310,179095,37822,215044
37320,179107,37827,215040
37330,179118,37824,215085
37339,179103,37816,215051
37350,179088,37816,215055
37360,179091,37830,215074
37370,179112,37827,215033
37379,179083,37822,215055
37389,179096,37825,215070
37400,179106,37818,215068
37411,179088,37807,215049
37420,179101,37816,215044
37430,179102,37825,215051
37440,179074,37823,215057
37450,179102,37815,215066
37460,179083,37829,215078
37470,179083,37827,215061
37480,179098,37824,215064
37490,179100,37831,215037
37500,179073,37826,215077
37509,179091,37818,215059
37519,179101,37819,215049
37530,179090,37825,215058
37540,179085,37829,215057
37550,179086,37815,215050
37559,179090,37820,215070
37570,179102,37807,215047
37580,179092,37838,215054
37589,179095,37826,215028
37600,179070,37824,215036
37610,179105,37808,215073
37620,179109,37823,215055
37629,179095,37821,215062
37639,179092,37820,215051
37649,179096,37815,215030
37660,179101,37818,215046
37670,179108,37816,215044
37680,179102,37821,215052
37690,179095,37820,215036
37700,179077,37823,215042
37709,179091,37816,215044
37719,179080,37817,215049
37729,179091,37828,215060
37740,179091,37825,215036
37750,179095,37814,215062
37759,179112,37808,215058
37770,179093,37815,215040
37779,179099,37816,215062
37790,179096,37803,215060
37799,179087,37817,215050
37810,179101,37800,215040
37819,179101,37813,215046
37830,179083,37796,215033
37839,179108,37812,215028
37850,179086,37795,215027
37860,179093,37815,215026
37870,179092,37798,215020
37879,179091,37810,215043
37889,179089,37808,215036
37900,179091,37817,215031
37910,179088,37825,215026
37919,179081,37813,215046
37930,179065,37804,215038
37940,179098,37814,215013
37950,179098,37798,215048
37959,179075,37802,215043
37969,179075,37803,215049
37980,179085,37805,215040
37990,179096,37800,215017
38000,179057,37806,215036
38009,179065,37802,215042
38019,179079,37804,215018
38029,179088,37810,215062
38040,179091,37795,215055
38049,179092,37799,215053
38059,179084,37804,215025
38069,179084,37809,215058
38079,179106,37788,215034
38089,179087,37787,215031
38099,179088,37805,215049
38109,179080,37804,215010
38120,179058,37805,215047
38129,179081,37793,215048
38139,179082,37809,215048
38149,179079,37797,215051
38159,179068,37814,215022
38168,179083,37801,215047
38179,179065,37803,215031
38189,179085,37801,215047
38200,179068,37795,215046
38209,179075,37812,215048
38219,179076,37806,215034
38229,179077,37809,215036
38239,179077,37805,215074
38249,179089,37787,215064
38259,179094,37790,215033
38269,179055,37810,215051
38279,179067,37800,215041
38290,179087,37791,215048
38298,179089,37801,215026
38309,179075,37790,215038
38319,179068,37809,215015
38330,179076,37793,215030
38339,179074,37799,215035
38349,179074,37800,215014
38359,179080,37801,215034
38370,179087,37814,215034
38379,179069,37805,215050
38389,179052,37817,215053
38399,179080,37820,215053
38409,179086,37805,215053
38418,179078,37789,215045
38428,179075,37803,215047
38439,179092,37792,215048
38450,179060,37821,215053
38458,179080,37798,215022
38469,179095,37812,215045
38478,179082,37793,215047
38489,179079,37791,215039
38500,179074,37827,215044
38509,179086,37807,215056
38519,179081,37790,215050
38529,179089,37795,215034
38539,179086,37808,215039
38548,179075,37790,215034
38559,179075,37796,215025
38569,179066,37801,215025
38579,179076,37781,215003
38589,179072,37789,215042
38598,179069,37800,215013
38609,179072,37798,215037
38620,179070,37794,215043
38629,179070,37787,215036
38639,179059,37789,215048
38649,179070,37777,215052
38659,179065,37780,215020
38668,179059,37788,215022
38678,179069,37783,215027
38688,179055,37789,215043
38699,179072,37775,215045
38709,179071,37798,215035
38718,179060,37777,215005
38729,179066,37779,215013
38738,179064,37774,215027
38749,179057,37784,215024
38759,179062,37788,215026
38769,179063,37784,215027
38779,179071,37790,215056
38789,179049,37783,215022
38798,179055,37798,215011
38808,179061,37768,215037
38819,179052,37783,215017
38829,179055,37785,215023
38838,179043,37776,215020
38848,179046,37777,215010
38859,179039,37777,215011
38869,179029,37770,215017
38878,179042,37783,215020
38889,179044,37772,215014
38899,179041,37779,215000
38909,179038,37775,215014
38918,179020,37782,215042
38928,179028,37772,214999
38939,179029,37790,215037
38949,179030,37784,215030
38958,179019,37771,215032
38968,179024,37781,215010
38978,179032,37771,215013
38988,179028,37758,215013
38999,179014,37763,215006
39008,179021,37774,215019
39018,179019,37755,215014
39029,179031,37769,214995
39039,179025,37770,215005
39048,179032,37778,214989
39059,179006,37772,215029
39069,179028,37761,214986
39079,178998,37762,215001
39088,179001,37776,215012
39098,179010,37779,215017
39108,179004,37788,215016
39119,179027,37773,214979
39128,179007,37773,214997
39138,179007,37769,215017
39149,179018,37739,215004
39159,178995,37764,214991
39168,179011,37773,214957
39178,179002,37775,214993
39188,179007,37768,214994
39198,179014,37769,215009
39208,179006,37761,214985
39218,179006,37784,214993
39228,179002,37760,215002
39238,178989,37766,214973
39248,179016,37756,215016
39258,179003,37776,214987
39268,178998,37765,214994
39278,179022,37774,214991
39288,179004,37778,214992
39298,179009,37775,214975
39308,178990,37762,214993
39318,178998,37765,215023
39328,179000,37759,215014
39338,178990,37761,215010
39348,179012,37772,215002
39358,178979,37780,215014
39369,179003,37758,214991
39377,179010,37771,214981
39388,179007,37761,214989
39398,178997,37764,214994
39408,179004,37769,214992
39418,178989,37754,214970
39428,179002,37765,214983
39438,178997,37764,214988
39449,178987,37760,214982
39458,178994,37759,214994
39468,178996,37749,215002
39478,179011,37765,214996
39488,178984,37761,215005
39498,178991,37750,214992
39507,178985,37757,215016
39518,178993,37766,214992
39528,179001,37750,215003
39539,179004,37746,215002
39548,178985,37770,214991
39558,178982,37754,215003
39568,178987,37763,215007
39578,178983,37754,214984
39587,178991,37759,215009
39598,178973,37764,215015
39608,178991,37752,215005
39618,178983,37767,215012
39628,178987,37757,215000
39637,178989,37758,215022
39647,178999,37747,215022
39658,178982,37760,215002
39668,179003,37743,214990
39677,178982,37768,214979
39688,178989,37752,214986
39698,179004,37760,214991
39708,178989,37747,214995
39717,178986,37763,214996
39728,179011,37749,215001
39738,178995,37764,214976
39748,179003,37743,214993
39758,178991,37751,214968
39768,178985,37760,214970
39778,178973,37757,214989
39788,178976,37766,214991
39797,178987,37765,214980
39807,178974,37771,215000
39818,178997,37749,214981
39828,178982,37754,214990
39837,178982,37759,214984
39848,178967,37745,214995
39857,178975,37766,214981
39868,178968,37759,214992
39878,178974,37754,214978
39888,178981,37752,214987
39898,178964,37779,214972
39908,178977,37767,214976
39917,178976,37752,214991
39927,178996,37770,214968
39938,178977,37762,214991
39948,178983,37762,215020
39958,178981,37774,215009
39967,179004,37760,214993
39977,178985,37767,215013
39987,178973,37763,215003
39998,178976,37742,215001
40007,178980,37771,214983
40018,178986,37750,214995
40028,178989,37761,215004
40038,178991,37750,214993
40047,178974,37763,214962
40058,178966,37770,214996
40068,178974,37770,215005
40078,178980,37759,215007
40087,178985,37764,215022
40097,178987,37758,215010
40108,178960,37762,215019
40118,178980,37773,215001
40127,178978,37782,215014
40138,178967,37760,215018
40148,178981,37762,215009
40158,178982,37779,215015
40167,178975,37767,215011
40177,178983,37775,214988
40187,178975,37777,215004
40198,178962,37760,215008
40208,178990,37763,214996
40217,178988,37763,215003
40227,178982,37767,214999
40238,178973,37770,215006
40248,178975,37760,214997
40257,178971,37767,215010
40267,178987,37748,215007
40277,178970,37759,215012
40287,178966,37766,215000
40297,178975,37760,214998
40307,178973,37770,215039
40317,179001,37740,215029
40328,178976,37767,215040
40336,178975,37765,215025
40347,178962,37767,215028
40357,178975,37757,215018
40368,178975,37747,215015
40377,178970,37765,215038
40387,178982,37752,215024
40397,178962,37763,215027
40408,178994,37752,215032
40417,178981,37766,215047
40427,178979,37765,215027
40437,178977,37746,215023
40447,178981,37776,215000
40457,178988,37760,215043
40466,178992,37770,215014
40477,178957,37769,215035
40488,178975,37761,215024
40498,178983,37753,215029
40507,178985,37763,215028
40517,178985,37756,215029
40527,178964,37752,215031
40537,178988,37767,215041
40546,178976,37768,215013
40557,178969,37771,215034
40567,178984,37767,215039
40578,178984,37752,215031
40587,178978,37762,215018
40597,178970,37762,215030
40607,178974,37783,215045
40617,178974,37761,215051
40626,178985,37760,215048
40636,178981,37763,215059
40647,178966,37778,215058
40657,178980,37752,215048
40667,178980,37748,215041
40676,178972,37767,215027
40687,178980,37772,215036
40697,178987,37774,215043
40708,178979,37768,215049
40717,178983,37782,215056
40727,178993,37765,215073
40737,179000,37770,215062
40747,178999,37761,215048
40757,178996,37762,215050
40767,178962,37765,215046
40777,178986,37779,215056
40787,178986,37768,215059
40796,178976,37776,215078
40807,179011,37761,215050
40817,179000,37759,215030
40827,178996,37771,215078
40837,178994,37785,215040
40847,178990,37777,215041
40857,178989,37768,215064
40867,178991,37766,215070
40876,179008,37776,215056
40886,178984,37782,215065
40897,179000,37781,215072
40907,178990,37777,215071
40916,178995,37780,215066
40926,179012,37786,215073
40937,178999,37775,215085
40947,179012,37782,215066
40957,179017,37783,215081
40966,179006,37788,215087
40977,179001,37764,215073
40987,178999,37777,215060
40997,178989,37782,215073
41006,178991,37774,215054
41017,179030,37774,215077
41027,179006,37768,215068
41037,179003,37778,215032
41046,179018,37775,215068
41056,179013,37784,215064
41067,179015,37778,215074
41077,179002,37764,215080
41086,179015,37770,215065
41097,179001,37766,215086
41107,179023,37780,215093
41117,179008,37760,215091
41126,179023,37780,215094
41136,179021,37767,215090
41147,179015,37770,215092
41157,179037,37777,215074
41166,179019,37774,215090
41177,178998,37786,215081
41187,179043,37769,215083
41197,179013,37773,215081
41207,179029,37774,215053
41216,179014,37764,215086
41226,179014,37776,215086
41237,179034,37771,215094
41247,179018,37761,215086
41256,179014,37778,215084
41266,179026,37769,215067
41276,179018,37787,215089
41286,178990,37782,215069
41296,179005,37777,215082
41307,179009,37786,215080
41316,179020,37766,215054
41327,179016,37757,215066
41336,179004,37756,215055
41346,179021,37755,215067
41356,179025,37765,215046
41367,179029,37769,215070
41376,179012,37765,215076
41386,178989,37772,215083
41396,179019,37779,215084
41406,178984,37780,215083
41416,178998,37777,215072
41426,179000,37782,215078
41436,178994,37773,215069
41446,178984,37771,215079
41457,179011,37766,215087
41466,179013,37771,215080
41476,179024,37777,215067
41487,178997,37764,215075
41496,179006,37766,215065
41506,179010,37762,215077
41516,179027,37779,215086
41526,179003,37773,215084
41537,179030,37762,215091
41546,179000,37770,215093
41556,179000,37759,215087
41566,179020,37763,215092
41576,179017,37759,215078
41586,179021,37774,215087
41596,179007,37770,215063
41606,179014,37787,215051
41617,178998,37774,215069
41626,178999,37773,215061
41636,178998,37780,215065
41646,179014,37784,215080
41656,179003,37775,215076
41666,179001,37768,215061
41676,179000,37775,215083
41686,178974,37771,215077
41696,178990,37779,215092
41707,179001,37769,215085
41715,179025,37778,215077
41726,179016,37769,215078
41736,179009,37770,215081
41747,179010,37778,215061
41755,179019,37775,215079
41766,179023,37756,215082
41776,179007,37770,215060
41787,179009,37746,215057
41795,179010,37773,215060
41806,179033,37740,215064
41816,179005,37762,215051
41827,178994,37749,215036
41836,179022,37778,215047
41846,178990,37757,215052
41856,179012,37752,215052
41866,179017,37755,215088
41875,178984,37758,215068
41886,179015,37762,215073
41896,179000,37771,215055
41906,179025,37772,215088
41916,179006,37758,215086
41926,179020,37759,215081
41935,178994,37768,215077
41946,179020,37758,215078
41956,179009,37760,215079
41965,179044,37741,215088
41975,179020,37747,215047
41985,179026,37763,215070
41996,179007,37740,215052
42005,179016,37746,215070
42016,178997,37732,215065
42026,179006,37753,215024
42036,178988,37753,215052
42045,178962,37746,215050
42056,179005,37741,215068
42066,179005,37749,215054
42076,178992,37732,215064
42085,179015,37740,215063
42096,179004,37743,215035
42106,178999,37744,215043
42116,178994,37750,215037
42125,178999,37761,215030
42135,178977,37731,215053
42146,179000,37756,215035
42156,178994,37735,215034
42166,178960,37742,215051
42176,178967,37739,215048
42186,178954,37730,215037
42196,178970,37754,215045
42206,178979,37733,215057
42215,178992,37746,215069
42225,178975,37744,215075
42236,178980,37737,215044
42246,178985,37742,215035
42255,179000,37749,215063
42265,178952,37730,215043
42275,178971,37747,215059
42286,178999,37748,215042
42295,178985,37745,215009
42306,178968,37729,215065
42316,178984,37750,215030
42326,178984,37747,215014
42335,178963,37745,215052
42345,178972,37740,215042
42356,178976,37745,215033
42366,178972,37738,215056
42375,178994,37731,215031
42385,178966,37750,215033
42395,178958,37738,215031
42406,178995,37734,215046
42415,178977,37747,215045
42425,178961,37743,215002
42436,178983,37741,215009
42446,178958,37739,215010
42456,178969,37733,215040
42465,178979,37749,215017
42475,178973,37737,215044
42485,178978,37734,215036
42496,178963,37739,215032
42505,178965,37741,215037
42515,178980,37739,215047
42525,178992,37739,215055
42536,178968,37745,215033
42545,178978,37744,215049
42555,178960,37748,215035
42565,178987,37750,215049
42575,178988,37714,215026
42585,178978,37734,215034
42595,178957,37726,215003
42606,178930,37732,215026
42616,178961,37740,215017
42625,178961,37737,214995
42635,178970,37733,215023
42645,178975,37736,215015
42655,178939,37738,215014
42665,178985,37719,214986
42675,178945,37738,215025
42685,178978,37732,215014
42695,178969,37723,215023
42706,178959,37722,215065
42715,178961,37719,215013
42725,178958,37718,215034
42735,178965,37712,215011
42746,178971,37702,215009
42755,178955,37717,215004
42765,178961,37720,215020
42775,178935,37720,215015
42785,178957,37720,215007
42794,178935,37709,215024
42805,178962,37716,214995
42815,178961,37710,215020
42825,178946,37706,215019
42835,178961,37706,214998
42845,178937,37716,215006
42855,178962,37720,215008
42865,178962,37721,215027
42875,178965,37708,215023
42885,178942,37678,215011
42895,178948,37719,215004
42905,178945,37705,214987
42915,178910,37711,215016
42925,178942,37701,214997
42935,178960,37702,215011
42946,178928,37706,215024
42955,178937,37709,214996
42965,178932,37699,214996
42975,178950,37704,214988
42985,178944,37703,215008
42995,178930,37700,214989
43004,178945,37703,214992
43014,178939,37700,215008
43024,178937,37701,215027
43035,178946,37688,215015
43045,178933,37676,214995
43055,178931,37696,215001
43065,178927,37714,215007
43075,178943,37705,215022
43084,178932,37718,215031
43095,178950,37709,214995
43105,178946,37705,214994
43115,178923,37696,215006
43125,178960,37702,215008
43135,178943,37712,215013
43145,178928,37705,215007
43155,178934,37690,215005
43165,178937,37699,215021
43174,178915,37694,215005
43185,178941,37714,215013
43195,178934,37707,215002
43205,178905,37711,214996
43215,178924,37713,215006
43225,178925,37707,215010
43235,178913,37702,215000
43245,178920,37697,214980
43255,178929,37701,214987
43265,178924,37711,214984
43275,178929,37688,214990
43285,178925,37678,214987
43294,178932,37693,214983
43304,178929,37690,215009
43315,178940,37712,214988
43325,178919,37679,214994
43334,178917,37698,214992
43344,178924,37694,215014
43355,178949,37683,215011
43365,178945,37681,215007
43375,178935,37713,215010
43384,178934,37698,214989
43395,178923,37687,214982
43405,178925,37708,215016
43415,178915,37690,214970
43424,178912,37697,215018
43434,178926,37690,215000
43444,178913,37696,215000
43455,178920,37692,214993
43465,178947,37682,214985
43474,178922,37700,215008
43485,178912,37704,214982
43495,178922,37683,214992
43504,178910,37684,214989
43515,178926,37670,214998
43525,178911,37694,214950
43535,178934,37677,214973
43544,178916,37684,214960
43554,178912,37670,214965
43564,178905,37681,214966
43575,178922,37689,215004
43584,178921,37672,214987
43594,178917,37685,214999
43604,178910,37712,215004
43614,178910,37673,214983
43625,178905,37676,214956
43634,178901,37684,215004
43645,178893,37677,214979
43655,178916,37681,214993
43665,178897,37675,214997
43674,178886,37680,214997
43684,178891,37675,214991
43694,178915,37672,214983
43704,178892,37675,214987
43714,178899,37687,214969
43724,178900,37690,214982
43734,178895,37668,214970
43744,178903,37688,214975
43754,178898,37657,214977
43764,178900,37663,214979
43774,178899,37665,214988
43785,178899,37651,214983
43794,178896,37670,214972
43804,178876,37673,214971
43814,178889,37662,214969
43824,178887,37638,214977
43834,178883,37676,214952
43844,178873,37679,214972
43854,178891,37664,214937
43864,178881,37657,214977
43874,178880,37666,214957
43884,178886,37653,214953
43894,178870,37656,214947
43905,178852,37639,214969
43915,178877,37663,214951
43924,178846,37663,214962
43934,178872,37655,214964
43944,178868,37664,214931
43955,178878,37658,214962
43964,178876,37652,214978
43974,178861,37668,214958
43984,178862,37648,214961
43994,178864,37658,214940
44003,178872,37668,214944
44014,178872,37667,214961
44024,178865,37670,214979
44034,178863,37659,214947
44043,178880,37692,214970
44054,178858,37654,214955
44064,178861,37664,214961
44074,178840,37659,214958
44083,178878,37643,214946
44094,178864,37647,214948
44104,178868,37636,214939
44114,178859,37652,214959
44124,178864,37650,214952
44134,178860,37653,214944
44144,178859,37665,214956
44154,178861,37665,214954
44164,178861,37667,214950
44173,178849,37664,214912
44183,178848,37670,214944
44194,178827,37669,214945
44204,178852,37656,214934
44213,178849,37667,214946
44223,178860,37654,214942
44233,178857,37648,214929
44244,178844,37645,214943
44254,178849,37670,214936
44264,178848,37650,214934
44274,178856,37654,214940
44284,178854,37680,214942
44293,178850,37676,214916
44304,178849,37683,214940
44314,178837,37662,214912
44324,178820,37664,214946
44333,178837,37662,214936
44343,178851,37674,214946
44354,178842,37667,214935
44364,178843,37682,214940
44374,178864,37675,214925
44383,178855,37696,214942
44394,178862,37675,214917
44404,178843,37678,214941
44414,178857,37666,214916
44423,178846,37683,214945
44434,178843,37684,214933
44444,178839,37687,214931
44454,178860,37673,214919
44463,178842,37662,214929
44473,178833,37668,214920
44483,178865,37669,214936
44494,178851,37654,214909
44504,178856,37680,214940
44513,178844,37678,214937
44523,178832,37670,214937
44533,178843,37663,214944
44543,178848,37661,214948
44554,178841,37654,214921
44564,178828,37652,214935
44574,178845,37671,214913
44583,178854,37660,214931
44593,178849,37673,214932
44603,178849,37681,214908
44614,178857,37660,214923
44624,178838,37661,214920
44633,178829,37668,214909
44643,178845,37652,214914
44653,178833,37674,214932
44664,178839,37662,214888
44674,178839,37668,214909
44684,178819,37678,214926
44694,178838,37665,214910
44704,178836,37666,214921
44713,178832,37688,214885
44735,178840,37664,214914
44744,178830,37663,214916
44753,178851,37673,214917
44763,178829,37670,214905
44773,178845,37675,214906
44783,178857,37673,214914
44793,178841,37686,214907
44803,178847,37662,214918
44814,178816,37670,214924
44824,178839,37672,214917
44833,178840,37680,214897
44843,178827,37671,214914
44854,178828,37671,214885
44864,178840,37671,214919
44874,178854,37676,214887
44883,178839,37683,214911
44894,178844,37674,214903
44904,178820,37678,214907
44914,178848,37680,214906
44923,178822,37669,214924
44934,178847,37671,214910
44944,178820,37674,214930
44954,178849,37676,214937
44963,178833,37667,214944
44973,178834,37686,214948
44983,178845,37670,214941
44993,178841,37672,214940
45002,178843,37667,214932
45012,178848,37675,214932
45023,178830,37682,214935
45034,178841,37678,214919
45043,178875,37676,214949
45054,178859,37688,214948
45063,178852,37689,214936
45073,178841,37675,214937
45083,178853,37682,214928
45093,178844,37680,214952
45103,178857,37680,214954
45114,178849,37691,214949
45124,178836,37669,214946
45133,178847,37693,214973
45143,178852,37688,214952
45153,178834,37691,214952
45163,178846,37700,214934
45173,178861,37689,214966
45182,178871,37680,214957
45193,178850,37702,214958
45204,178853,37703,214953
45213,178866,37696,214979
45223,178858,37691,214971
45233,178861,37698,214964
45243,178860,37685,214954
45252,178862,37692,214985
45263,178866,37687,214970
45273,178872,37689,214932
45283,178831,37697,214978
45293,178866,37700,214970
45303,178876,37684,214963
45313,178874,37685,214973
45323,178878,37681,214967
45333,178854,37695,214977
45342,178868,37691,214991
45352,178860,37697,214966
45363,178863,37674,214994
45374,178872,37683,214986
45383,178867,37698,215015
45393,178874,37688,215000
45403,178870,37688,215000
45413,178866,37682,215001
45422,178870,37680,215008
45432,178868,37681,215023
45443,178887,37685,214998
45453,178874,37677,214999
45462,178888,37674,215003
45472,178871,37684,215005
45483,178897,37680,215011
45493,178866,37689,215003
45502,178881,37679,215005
45512,178865,37685,215025
45522,178876,37693,215007
45533,178883,37696,215010
45542,178889,37673,215006
45553,178872,37693,215026
45563,178859,37688,215010
45574,178891,37705,215006
45583,178897,37697,215013
45592,178893,37681,215011
45602,178893,37710,215014
45612,178908,37694,215004
45623,178875,37692,215026
45632,178893,37699,215024
45642,178883,37694,215042
45652,178902,37707,215036
45662,178900,37691,215042
45672,178923,37687,215011
45682,178909,37715,215043
45693,178906,37707,215018
45703,178904,37693,215013
45712,178914,37701,215018
45723,178904,37711,215037
45733,178902,37708,215013
45743,178897,37695,215052
45752,178922,37714,215040
45762,178907,37707,215056
45773,178911,37702,215055
45783,178910,37706,215020
45792,178899,37695,215053
45802,178922,37691,215037
45812,178931,37688,215049
45822,178915,37703,215054
45833,178899,37703,215053
45842,178916,37720,215040
45852,178924,37712,215027
45862,178909,37712,215051
45872,178938,37712,215066
45882,178913,37721,215056
45893,178930,37688,215063
45903,178920,37713,215072
45913,178942,37717,215044
45922,178919,37711,215062
45932,178921,37722,215075
45942,178921,37737,215061
45952,178951,37706,215079
45961,178949,37705,215056
45972,178940,37703,215050
45982,178940,37718,215059
45992,178930,37712,215054
46001,178922,37721,215069
46013,178923,37721,215075
46022,178934,37712,215062
46033,178957,37711,215064
46042,178938,37727,215059
46052,178922,37728,215069
46062,178926,37724,215055
46072,178926,37732,215043
46082,178946,37701,215074
46092,178949,37725,215071
46102,178951,37726,215084
46112,178941,37734,215043
46122,178933,37735,215057
46132,178943,37723,215056
46142,178945,37740,215061
46153,178929,37720,215065
46163,178949,37722,215045
46172,178949,37718,215017
46182,178941,37722,215057
46192,178949,37722,215053
46202,178934,37733,215059
46212,178937,37731,215059
46222,178944,37709,215041
46232,178947,37732,215047
46242,178946,37715,215060
46253,178948,37724,215045
46261,178946,37729,215075
46273,178934,37711,215053
46282,178938,37720,215048
46292,178947,37705,215035
46302,178937,37720,215068
46312,178927,37736,215059
46322,178956,37715,215051
46332,178946,37719,215055
46341,178936,37710,215062
46352,178939,37711,215043
46362,178924,37722,215037
46372,178944,37719,215064
46381,178928,37714,215057
46391,178934,37733,215058
46402,178933,37706,215059
46413,178911,37721,215061
46422,178936,37728,215051
46432,178942,37725,215033
46442,178915,37709,215037
46452,178941,37713,215030
46461,178938,37722,215032
46472,178933,37720,215046
46482,178945,37727,215045
46492,178932,37725,215033
46501,178931,37717,215035
46511,178924,37707,215030
46522,178944,37724,215039
46532,178934,37721,215048
46541,178934,37720,215037
46552,178933,37718,215062
46562,178930,37722,215019
46572,178931,37720,215038
46582,178923,37718,215027
46591,178929,37718,215034
46602,178935,37707,215034
46612,178934,37713,215015
46622,178921,37708,215051
46632,178937,37711,215021
46642,178934,37723,215042
46652,178912,37725,215044
46662,178940,37720,215039
46671,178920,37709,215030
46681,178924,37720,215047
46691,178934,37712,215020
46702,178925,37724,215026
46712,178922,37717,215053
46722,178911,37727,215041
46732,178928,37714,215006
46742,178920,37730,215014
46751,178928,37729,215022
46761,178911,37724,215025
46771,178927,37728,215027
46782,178909,37717,215036
46791,178942,37719,215041
46801,178933,37707,215047
46812,178911,37721,215039
46822,178927,37709,215048
46832,178916,37724,215024
46841,178921,37711,215044
46851,178915,37720,215024
46861,178922,37714,215034
46871,178929,37719,215013
46881,178932,37699,215040
46891,178910,37727,215049
46901,178933,37708,215034
46911,178929,37724,215035
46921,178920,37708,215018
46931,178922,37735,215029
46941,178922,37732,215039
46951,178934,37724,215032
46961,178930,37712,215036
46974,178936,37739,215018
46981,178939,37724,215040
46992,178924,37699,215005
47001,178932,37722,215035
47011,178923,37716,215032
47022,178920,37707,215025
47032,178906,37715,215013
47041,178926,37714,215022
47051,178899,37718,215015
47061,178923,37714,215024
47071,178936,37719,215025
47082,178917,37710,215028
47091,178917,37724,215048
47101,178915,37710,215052
47112,178904,37714,215051
47122,178911,37702,215028
47131,178897,37707,215042
47141,178898,37716,215013
47151,178913,37714,215021
47162,178907,37699,215016
47171,178927,37696,215007
47181,178905,37714,215033
47191,178904,37701,215028
47201,178914,37702,215018
47211,178905,37712,215012
47221,178914,37706,215023
47231,178890,37698,215013
47242,178904,37697,215021
47251,178888,37703,215023
47261,178910,37711,214997
47271,178894,37705,215001
47281,178901,37693,214978
47291,178903,37701,215009
47301,178902,37691,215001
47311,178894,37705,214998
47321,178907,37701,214983
47331,178908,37702,215016
47341,178918,37700,215000
47351,178911,37714,215003
47361,178891,37703,215026
47372,178874,37710,215006
47380,178909,37690,215009
47391,178881,37695,215032
47401,178903,37698,215011
47411,178914,37696,215029
47421,178909,37680,215026
47431,178896,37706,214999
47441,178894,37691,215011
47451,178897,37700,214984
47461,178884,37706,215005
47471,178902,37695,214997
47481,178895,37695,215009
47491,178908,37702,214992
47501,178901,37707,215012
47511,178894,37710,215005
47521,178913,37700,215043
47531,178890,37700,215044
47541,178891,37698,215046
47551,178890,37699,215024
47561,178902,37702,215039
47571,178896,37684,215027
47581,178902,37707,215031
47591,178859,37719,215012
47601,178908,37702,215029
47611,178892,37705,215004
47621,178906,37712,215009
47630,178901,37701,215016
47641,178901,37697,214997
47651,178895,37713,215022
47661,178877,37698,215004
47670,178891,37701,215018
47681,178901,37693,215009
47691,178885,37701,215012
47701,178884,37685,215020
47710,178882,37695,215010
47721,178896,37673,215017
47731,178876,37702,215019
47741,178891,37695,215010
47750,178882,37692,214993
47761,178870,37694,215019
47771,178881,37713,215036
47781,178898,37691,215010
47791,178875,37709,215005
47801,178879,37701,215017
47811,178889,37695,214979
47821,178877,37708,215008
47831,178887,37690,214999
47841,178870,37689,215008
47851,178871,37692,214983
47861,178888,37694,214990
47871,178880,37680,214984
47880,178869,37699,214996
47890,178859,37695,214981
47901,178865,37689,214976
47911,178882,37693,215002
47920,178885,37696,214986
47930,178865,37685,214987
47940,178880,37673,215003
47950,178857,37671,214998
47960,178861,37676,214997
47970,178866,37677,214989
47980,178859,37677,214980
47990,178871,37687,214968
48000,178873,37684,214985
48010,178857,37681,214984
48021,178859,37672,214956
48031,178867,37678,214956
48041,178880,37670,214974
48050,178865,37680,214989
48060,178839,37681,215002
48070,178848,37688,214980
48080,178847,37677,215003
48090,178851,37672,215009
48100,178862,37678,214986
48114,178866,37676,214988
48120,178855,37670,214985
48130,178847,37661,214990
48140,178835,37673,214972
48151,178850,37687,214972
48161,178852,37669,214973
48170,178838,37676,214958
48180,178837,37676,214973
48191,178855,37664,214970
48201,178835,37674,214961
48210,178820,37668,214979
48220,178831,37676,214966
48230,178841,37679,214980
48240,178842,37659,214947
48250,178826,37673,214970
48260,178839,37671,214949
48270,178848,37669,214967
48280,178826,37677,214947
48290,178843,37681,214952
48299,178838,37688,214957
48310,178817,37657,214946
48321,178815,37668,214916
48331,178820,37668,214973
48340,178829,37674,214948
48350,178813,37666,214937
48360,178826,37665,214959
48370,178811,37682,214955
48379,178849,37658,214943
48390,178815,37657,214949
48401,178822,37664,214939
48411,178812,37669,214921
48420,178807,37681,214938
48430,178817,37681,214942
48440,178808,37665,214946
48451,178815,37678,214934
48460,178832,37670,214947
48470,178829,37673,214924
48480,178796,37675,214957
48490,178816,37670,214938
48500,178804,37667,214945
48510,178815,37656,214941
48520,178806,37675,214948
48530,178819,37679,214945
48541,178793,37665,214945
48550,178813,37670,214944
48560,178813,37664,214947
48574,178828,37674,214942
48580,178827,37678,214948
48589,178821,37678,214955
48600,178815,37675,214952
48610,178821,37673,214939
48620,178824,37673,214919
48630,178820,37638,214918
48640,178815,37680,214895
48650,178814,37671,214920
48660,178844,37664,214906
48669,178808,37675,214908
48680,178818,37665,214939
48690,178814,37671,214922
48700,178818,37674,214934
48710,178795,37671,214935
48720,178818,37675,214920
48730,178817,37673,214915
48740,178815,37655,214935
48750,178772,37680,214928
48759,178814,37660,214934
48769,178792,37669,214951
48780,178813,37654,214951
48791,178810,37660,214935
48800,178840,37674,214921
48810,178815,37668,214905
48820,178806,37666,214930
48830,178813,37676,214947
48839,178810,37673,214923
48849,178814,37655,214928
48860,178820,37677,214923
48870,178801,37672,214933
48879,178823,37659,214964
48890,178820,37658,214953
48900,178813,37663,214938
48910,178795,37665,214934
48919,178796,37673,214940
48929,178812,37654,214944
48940,178816,37689,214947
48950,178827,37653,214942
48959,178812,37670,214944
48969,178818,37671,214927
48979,178793,37678,214929
48989,178818,37693,214937
49000,178800,37676,214953
49009,178823,37675,214945
49019,178799,37686,214945
49029,178822,37675,214957
49040,178827,37672,214954
49049,178804,37690,214969
49060,178818,37679,214940
49070,178819,37683,214942
49080,178810,37694,214959
49089,178816,37658,214959
49099,178826,37682,214956
49109,178817,37677,214962
49120,178817,37678,214970
49129,178819,37686,214958
49139,178830,37667,214960
