timestamp,red,green,ir
6410,177398,36789,213863
6418,177408,36783,213871
6429,177416,36752,213892
6439,177404,36777,213873
6450,177380,36789,213900
6459,177397,36795,213893
6469,177400,36778,213873
6494,177404,36773,213875
6499,177387,36782,213845
6508,177384,36774,213809
6519,177407,36778,213787
6529,177411,36780,213760
6539,177386,36794,213738
6548,177386,36790,213723
6559,177414,36785,213740
6569,177398,36774,213718
6579,177385,36786,213743
6589,177368,36776,213758
6598,177379,36780,213753
6613,177372,36774,213773
6619,177384,36774,213797
6628,177396,36781,213772
6638,177378,36788,213801
6648,177365,36782,213764
6659,177357,36784,213770
6671,177383,36785,213752
6694,177390,36781,213778
6698,177380,36784,213772
6708,177380,36773,213760
6718,177378,36778,213752
6728,177371,36783,213755
6739,177375,36770,213762
6751,177388,36784,213749
6759,177373,36775,213771
6772,177352,36786,213768
6779,177357,36766,213781
6789,177359,36773,213746
6798,177363,36764,213769
6808,177362,36772,213756
6819,177351,36774,213763
6829,177348,36769,213738
6838,177350,36765,213783
6848,177340,36767,213817
6858,177349,36782,213811
6869,177329,36777,213838
6879,177336,36774,213834
6888,177338,36767,213843
6899,177339,36782,213885
6909,177340,36776,213912
6918,177341,36771,213932
6928,177366,36782,213946
6938,177378,36765,213952
6949,177344,36795,213947
6958,177375,36782,213933
6968,177392,36773,213922
6978,177383,36772,213902
6989,177404,36786,213925
6999,177398,36773,213918
7008,177396,36775,213894
7018,177393,36770,213946
7033,177399,36782,213934
7039,177403,36775,213946
7048,177389,36777,213919
7058,177390,36783,213916
7068,177389,36783,213905
7079,177392,36760,213899
7088,177384,36788,213914
7098,177390,36780,213955
7109,177363,36771,213954
7118,177371,36777,213972
7128,177367,36784,213978
7138,177370,36777,213962
7148,177383,36776,213965
7159,177367,36786,213965
7168,177376,36777,213932
7178,177374,36778,213942
7188,177378,36786,213948
7199,177387,36782,213934
7208,177356,36781,213932
7218,177374,36779,213944
7228,177406,36775,213923
7239,177384,36777,213926
7251,177361,36775,213923
7258,177375,36773,213928
7268,177354,36779,213904
7278,177369,36745,213922
7289,177372,36769,213929
7297,177363,36759,213946
7308,177370,36766,213945
7319,177376,36773,213966
7329,177367,36780,213963
7338,177368,36748,213967
7348,177352,36777,213992
7358,177363,36774,213998
7368,177381,36779,213982
7378,177372,36771,213992
7388,177369,36775,213942
7399,177358,36781,213986
7409,177385,36787,213983
7418,177377,36774,213984
7428,177376,36783,213979
7438,177386,36782,213972
7448,177363,36788,213975
7458,177397,36786,213961
7467,177379,36795,213973
7478,177384,36781,213988
7488,177406,36793,213981
7498,177405,36776,213993
7507,177386,36787,213987
7518,177402,36776,213977
7528,177407,36776,213994
7538,177410,36777,213987
7548,177386,36780,214002
7558,177411,36783,213980
7568,177419,36790,213976
7578,177417,36786,213992
7588,177404,36776,214005
7597,177407,36789,213989
7608,177424,36765,214016
7618,177421,36773,214055
7628,177473,36790,214079
7638,177461,36798,214110
7648,177540,36815,214201
7658,177615,36819,214370
7667,177723,36829,214579
7678,177823,36821,214781
7688,177919,36836,214956
7698,177980,36845,215119
7708,178040,36821,215240
7717,178078,36835,215305
7728,178157,36824,215402
7738,178185,36832,215452
7748,178201,36843,215522
7758,178228,36835,215549
7768,178242,36848,215589
7778,178261,36842,215606
7788,178249,36824,215597
7797,178236,36825,215594
7807,178259,36822,215606
7818,178240,36824,215552
7828,178229,36834,215516
7877,178038,36816,215102
7888,177945,36808,214980
7897,177893,36810,214843
7908,177853,36808,214750
7917,177801,36809,214659
7927,177749,36795,214539
7938,177679,36785,214470
7948,177664,36797,214412
7958,177630,36790,214341
7967,177603,36793,214315
7978,177596,36796,214309
7988,177592,36787,214314
7998,177578,36796,214301
8007,177591,36797,214276
8018,177563,36788,214254
8028,177562,36777,214266
8038,177555,36788,214289
8047,177552,36781,214292
8058,177553,36786,214280
8068,177526,36771,214280
8078,177538,36784,214272
8087,177542,36772,214267
8097,177534,36774,214287
8107,177524,36767,214248
8118,177529,36779,214231
8127,177534,36798,214246
8137,177534,36779,214252
8147,177535,36804,214225
8158,177533,36770,214218
8167,177541,36779,214209
8177,177526,36772,214227
8188,177512,36786,214226
8198,177532,36784,214233
8208,177519,36786,214233
8217,177511,36771,214247
8227,177489,36787,214254
8238,177509,36771,214249
8248,177516,36775,214263
8257,177531,36772,214288
8267,177521,36781,214281
8278,177522,36780,214295
8288,177520,36779,214250
8296,177517,36781,214267
8307,177516,36781,214244
8318,177510,36769,214253
8328,177521,36768,214252
8336,177511,36776,214252
8347,177514,36771,214259
8358,177512,36779,214277
8368,177500,36780,214282
8377,177507,36758,214279
8387,177480,36775,214301
8397,177486,36765,214293
8407,177481,36777,214297
8417,177498,36766,214286
8427,177492,36746,214299
8437,177498,36770,214307
8447,177492,36772,214274
8458,177477,36764,214282
8467,177496,36786,214285
8477,177458,36772,214298
8487,177485,36773,214301
8497,177476,36765,214290
8506,177486,36771,214286
8517,177470,36775,214268
8527,177479,36770,214270
8537,177480,36767,214265
8546,177465,36761,214273
8557,177470,36776,214295
8567,177476,36773,214274
8577,177482,36760,214285
8586,177477,36764,214277
8597,177470,36763,214292
8607,177467,36781,214287
8618,177462,36745,214273
8627,177462,36759,214264
8637,177438,36753,214309
8647,177434,36750,214273
8658,177463,36773,214291
8667,177461,36766,214292
8677,177470,36756,214311
8687,177436,36754,214301
8697,177456,36748,214296
8707,177433,36767,214312
8717,177465,36770,214293
8727,177421,36748,214299
8737,177448,36744,214311
8747,177438,36755,214281
8756,177443,36761,214288
8767,177439,36754,214287
8777,177438,36764,214267
8787,177453,36761,214294
8797,177452,36764,214293
8807,177449,36760,214296
8817,177457,36753,214295
8827,177445,36748,214296
8836,177450,36759,214298
8846,177454,36748,214270
8857,177438,36761,214301
8868,177440,36748,214297
8877,177445,36756,214287
8887,177440,36759,214282
8897,177410,36766,214297
8907,177426,36757,214284
8916,177444,36757,214300
8926,177430,36761,214301
8937,177421,36763,214275
8947,177439,36756,214293
8957,177435,36747,214301
8966,177453,36766,214327
8977,177448,36757,214307
8987,177437,36755,214275
8997,177420,36750,214304
9006,177443,36768,214277
9017,177431,36769,214306
9027,177453,36745,214292
9037,177443,36746,214301
9046,177443,36743,214297
9056,177424,36772,214301
9066,177454,36751,214281
9077,177451,36733,214290
9086,177445,36736,214277
9097,177444,36749,214287
9107,177431,36771,214284
9117,177436,36750,214285
9126,177453,36734,214287
9136,177444,36747,214275
9146,177445,36754,214308
9157,177456,36731,214291
9166,177450,36752,214289
9176,177447,36746,214314
9187,177442,36749,214314
9196,177439,36739,214286
9207,177443,36739,214313
9216,177456,36742,214281
9227,177442,36750,214308
9237,177449,36744,214301
9247,177451,36747,214302
9256,177446,36746,214329
9266,177432,36749,214318
9277,177453,36754,214305
9287,177441,36749,214322
9296,177447,36757,214322
9306,177463,36755,214338
9317,177456,36744,214337
9327,177444,36729,214333
9336,177465,36756,214340
9346,177463,36746,214342
9357,177456,36725,214336
9367,177461,36749,214338
9376,177444,36755,214343
9386,177467,36754,214334
9397,177497,36725,214366
9407,177464,36741,214360
9416,177470,36741,214350
9426,177459,36739,214367
9436,177460,36744,214335
9446,177473,36752,214341
9457,177473,36742,214364
9466,177467,36731,214346
9476,177475,36754,214358
9486,177459,36748,214325
9497,177467,36749,214362
9506,177463,36749,214354
9516,177459,36753,214364
9526,177482,36737,214347
9537,177456,36750,214372
9546,177468,36736,214357
9556,177472,36753,214374
9566,177472,36755,214361
9576,177468,36738,214368
9585,177485,36752,214365
9596,177486,36745,214388
9606,177479,36753,214364
9616,177469,36739,214365
9625,177480,36741,214377
9636,177496,36757,214362
9646,177488,36756,214377
9656,177492,36734,214368
9666,177470,36760,214362
9675,177494,36755,214351
9686,177477,36719,214361
9696,177480,36740,214348
9707,177490,36741,214367
9716,177486,36752,214348
9726,177487,36752,214358
9736,177485,36759,214365
9747,177478,36728,214353
9756,177493,36753,214369
9766,177492,36755,214355
9776,177500,36753,214342
9787,177484,36729,214340
9796,177495,36750,214323
9806,177481,36752,214346
9816,177481,36754,214334
9827,177481,36741,214337
9836,177480,36741,214302
9846,177509,36752,214338
9856,177488,36742,214351
9866,177508,36753,214333
9875,177479,36755,214329
9886,177501,36727,214329
9896,177504,36738,214349
9906,177490,36761,214353
9916,177489,36753,214341
9926,177477,36759,214342
9936,177487,36747,214357
9946,177505,36750,214321
9956,177487,36750,214339
9966,177500,36735,214349
9976,177478,36759,214330
9986,177511,36744,214344
9997,177528,36738,214350
10006,177503,36751,214328
10016,177496,36746,214334
10026,177510,36742,214320
10036,177486,36747,214343
10045,177507,36753,214345
10056,177502,36746,214339
10066,177502,36739,214342
10076,177489,36752,214351
10085,177512,36762,214328
10095,177518,36744,214328
10106,177482,36758,214330
10116,177486,36755,214315
10125,177513,36732,214316
10136,177507,36742,214350
10146,177502,36739,214324
10156,177511,36744,214337
10166,177505,36755,214338
10175,177517,36745,214321
10186,177510,36754,214316
10195,177513,36749,214324
10206,177519,36733,214336
10215,177509,36745,214343
10226,177516,36731,214327
10236,177517,36740,214310
10246,177515,36746,214335
10255,177509,36756,214344
10265,177486,36754,214328
10276,177513,36748,214283
10286,177512,36757,214328
10295,177524,36748,214337
10306,177514,36759,214324
10316,177510,36750,214319
10326,177515,36749,214309
10335,177527,36729,214346
10345,177514,36750,214354
10356,177522,36760,214327
10366,177511,36757,214349
10375,177519,36762,214342
10385,177517,36740,214332
10395,177499,36753,214328
10405,177526,36758,214332
10416,177517,36745,214347
10425,177529,36760,214341
10435,177523,36739,214345
10446,177528,36742,214329
10456,177513,36762,214336
10465,177498,36762,214328
10476,177519,36761,214350
10486,177525,36748,214337
10496,177533,36758,214329
10505,177511,36749,214318
10515,177505,36753,214341
10526,177524,36741,214333
10536,177504,36749,214309
10545,177522,36740,214297
10555,177508,36735,214312
10565,177502,36741,214312
10576,177514,36755,214320
10585,177531,36730,214308
10595,177523,36754,214319
10606,177533,36747,214341
10615,177513,36753,214317
10625,177521,36745,214327
10635,177521,36744,214352
10645,177544,36747,214324
10656,177519,36746,214347
10666,177508,36745,214322
10675,177502,36753,214323
10685,177530,36753,214340
10695,177510,36734,214337
10705,177533,36736,214328
10715,177521,36752,214322
10725,177512,36752,214346
10735,177537,36733,214327
10746,177512,36730,214318
10755,177513,36746,214332
10765,177512,36748,214341
10775,177535,36750,214330
10785,177489,36752,214325
10795,177513,36755,214328
10805,177510,36753,214327
10815,177520,36755,214337
10825,177528,36741,214315
10834,177509,36726,214348
10845,177511,36748,214347
10855,177518,36742,214335
10866,177495,36759,214329
10875,177522,36750,214342
10885,177523,36751,214325
10895,177512,36752,214337
10905,177518,36756,214314
10916,177505,36754,214339
10925,177500,36744,214335
10935,177536,36744,214313
10945,177537,36746,214303
10956,177517,36729,214340
10965,177499,36762,214341
10975,177507,36748,214343
10985,177514,36760,214331
10996,177519,36753,214337
11005,177521,36749,214312
11015,177514,36765,214333
11025,177512,36759,214341
11035,177533,36751,214340
11044,177541,36762,214336
11055,177511,36762,214352
11065,177482,36758,214341
11075,177514,36759,214328
11084,177537,36750,214345
11095,177522,36762,214346
11105,177543,36749,214347
11115,177532,36747,214347
11125,177534,36758,214351
11135,177531,36756,214364
11145,177529,36749,214364
11155,177540,36753,214349
11165,177524,36768,214368
11174,177527,36756,214364
11185,177543,36750,214336
11195,177542,36761,214332
11205,177546,36742,214354
11214,177527,36768,214332
11225,177551,36758,214331
11235,177532,36768,214316
11245,177528,36752,214318
11254,177525,36749,214340
11264,177523,36756,214331
11274,177548,36746,214338
11285,177548,36762,214340
11294,177548,36768,214336
11305,177567,36770,214344
11315,177544,36750,214331
11325,177540,36766,214308
11334,177538,36745,214328
11344,177523,36748,214296
11355,177536,36761,214316
11365,177538,36760,214335
11375,177547,36754,214291
11384,177485,36750,214324
11395,177562,36734,214338
11405,177546,36760,214339
11415,177515,36764,214342
11424,177494,36752,214325
11435,177538,36732,214330
11445,177528,36750,214352
11455,177546,36744,214348
11464,177531,36752,214345
11474,177521,36761,214342
11484,177537,36750,214315
11494,177536,36740,214346
11504,177557,36744,214333
11514,177549,36747,214323
11525,177529,36744,214326
11535,177531,36760,214334
11544,177523,36756,214333
11554,177542,36751,214337
11564,177534,36758,214342
11575,177533,36748,214349
11584,177548,36750,214367
11594,177531,36752,214346
11605,177549,36740,214347
11615,177549,36740,214327
11625,177516,36749,214312
11634,177538,36751,214336
11644,177544,36745,214328
11655,177535,36761,214333
11665,177532,36736,214334
11674,177536,36755,214356
11684,177534,36760,214349
11694,177547,36744,214332
11704,177542,36750,214323
11714,177528,36752,214327
11724,177552,36754,214360
11734,177537,36739,214340
11745,177542,36740,214384
11754,177540,36753,214343
11764,177550,36759,214339
11775,177538,36764,214340
11785,177554,36739,214348
11794,177536,36750,214332
11804,177536,36759,214333
11814,177540,36762,214334
11824,177552,36764,214303
11834,177555,36744,214335
11844,177565,36755,214357
11854,177545,36762,214328
11864,177552,36764,214357
11874,177552,36740,214327
11884,177555,36744,214329
11894,177543,36760,214330
11904,177562,36766,214331
11915,177543,36763,214363
11924,177557,36762,214340
11934,177558,36755,214336
11944,177556,36745,214352
11954,177530,36762,214347
11963,177566,36767,214326
11974,177538,36756,214366
11984,177575,36765,214345
11994,177552,36768,214354
12004,177549,36752,214353
12014,177571,36764,214345
12024,177561,36743,214319
12034,177553,36765,214340
12044,177577,36742,214353
12054,177562,36757,214318
12064,177569,36767,214333
12074,177560,36769,214327
12083,177557,36767,214311
12093,177547,36765,214328
12104,177568,36755,214337
12114,177560,36769,214337
12124,177591,36764,214326
12134,177566,36745,214313
12144,177568,36757,214328
12154,177577,36762,214318
12164,177586,36758,214308
12173,177565,36772,214340
12184,177570,36767,214323
12194,177554,36757,214305
12205,177543,36760,214318
12214,177568,36752,214311
12224,177547,36763,214309
12234,177540,36763,214338
12244,177563,36763,214353
12254,177568,36752,214334
12264,177558,36779,214317
12274,177559,36762,214330
12284,177565,36758,214321
12293,177571,36761,214343
12303,177555,36749,214310
12314,177562,36764,214312
12324,177572,36738,214300
12333,177561,36752,214317
12343,177555,36760,214317
12353,177541,36764,214313
12364,177556,36753,214303
12374,177556,36769,214321
12383,177545,36762,214318
12394,177541,36763,214313
12404,177554,36780,214314
12414,177557,36754,214306
12423,177552,36763,214321
12434,177549,36768,214309
12444,177530,36761,214305
12454,177550,36756,214307
12463,177539,36773,214315
12473,177534,36776,214308
12483,177534,36756,214306
12493,177548,36765,214301
12503,177540,36741,214289
12513,177550,36760,214288
12524,177536,36764,214304
12534,177532,36758,214287
12543,177563,36774,214277
12554,177561,36756,214303
12564,177537,36760,214302
12574,177547,36757,214302
12583,177538,36726,214297
12593,177544,36767,214291
12603,177521,36769,214239
12613,177532,36769,214279
12623,177532,36770,214313
12633,177529,36775,214299
12643,177523,36773,214298
12654,177541,36763,214297
12664,177526,36783,214315
12673,177521,36767,214305
12683,177530,36750,214313
12694,177524,36773,214278
12704,177504,36778,214299
12713,177532,36761,214306
12723,177533,36767,214301
12733,177527,36770,214311
12743,177556,36751,214315
12753,177523,36765,214320
12763,177524,36792,214294
12773,177533,36765,214288
12784,177532,36755,214286
12792,177534,36754,214284
12803,177525,36740,214292
12813,177515,36766,214296
12824,177518,36742,214273
12833,177530,36779,214282
12843,177510,36761,214289
12853,177507,36779,214308
12863,177522,36753,214305
12873,177544,36781,214305
12882,177534,36774,214328
12893,177527,36772,214306
12903,177529,36749,214289
12913,177537,36772,214288
12923,177520,36771,214284
12933,177519,36782,214271
12943,177525,36760,214286
12953,177534,36775,214260
12962,177514,36769,214283
12973,177526,36780,214280
12983,177529,36795,214280
12993,177522,36773,214276
13003,177535,36775,214274
13013,177518,36779,214265
13023,177510,36773,214277
13033,177524,36761,214279
13042,177531,36754,214294
13053,177512,36772,214276
13063,177512,36770,214290
13073,177520,36756,214263
13083,177497,36775,214302
13093,177519,36768,214305
13103,177523,36775,214287
13113,177510,36773,214289
13123,177530,36761,214290
13132,177536,36775,214267
13143,177514,36758,214280
13153,177520,36769,214260
13164,177526,36753,214289
13172,177520,36773,214271
13182,177533,36765,214292
13193,177530,36761,214272
13203,177528,36758,214268
13213,177518,36769,214271
13223,177515,36765,214273
13233,177502,36763,214283
13243,177514,36797,214265
13253,177519,36760,214282
13263,177518,36743,214260
13273,177513,36763,214272
13283,177530,36751,214266
13292,177519,36766,214266
13302,177507,36747,214290
13313,177521,36785,214247
13323,177510,36764,214277
13333,177499,36764,214276
13342,177521,36763,214295
13353,177515,36766,214276
13363,177509,36778,214276
13373,177517,36778,214296
13382,177537,36769,214295
13392,177513,36776,214294
13403,177517,36773,214286
13413,177522,36787,214290
13422,177517,36791,214291
13433,177544,36781,214283
13443,177535,36770,214293
13453,177528,36763,214298
13462,177515,36765,214285
13472,177528,36782,214303
13482,177535,36787,214309
13493,177516,36778,214268
13502,177522,36786,214299
13512,177532,36779,214275
13523,177525,36756,214289
13533,177535,36772,214287
13542,177503,36787,214292
13552,177525,36783,214310
13574,177525,36784,214312
13583,177543,36776,214304
13592,177536,36788,214306
13602,177510,36782,214329
13612,177538,36785,214312
13623,177528,36788,214307
13632,177532,36781,214301
13642,177532,36793,214326
13652,177532,36791,214318
13662,177535,36791,214340
13672,177536,36774,214304
13683,177535,36780,214315
13693,177530,36781,214321
13703,177516,36807,214332
13712,177534,36789,214323
13722,177533,36786,214304
13733,177540,36764,214329
13743,177539,36793,214328
13752,177542,36781,214350
13762,177523,36789,214317
13772,177543,36780,214311
13782,177509,36805,214314
13792,177541,36778,214343
13802,177546,36758,214326
13813,177533,36779,214343
13823,177547,36779,214311
13833,177553,36777,214336
13842,177544,36762,214333
13852,177541,36778,214328
13862,177546,36775,214340
13873,177554,36793,214340
13882,177540,36794,214347
13892,177539,36777,214333
13902,177535,36783,214340
13912,177555,36785,214350
13921,177549,36779,214329
13932,177551,36789,214336
13942,177546,36786,214348
13953,177533,36778,214329
13962,177538,36782,214345
13972,177547,36770,214315
13982,177544,36781,214358
13992,177546,36764,214347
14001,177546,36781,214348
14011,177530,36790,214339
14022,177550,36771,214350
14033,177541,36785,214344
14042,177550,36787,214321
14052,177538,36774,214342
14062,177541,36789,214331
14072,177547,36782,214346
14082,177535,36786,214357
14091,177567,36776,214363
14101,177550,36766,214346
14113,177561,36782,214345
14122,177538,36795,214335
14132,177557,36787,214333
14142,177555,36794,214367
14152,177561,36790,214363
14162,177561,36779,214348
14172,177555,36777,214350
14182,177536,36791,214347
14192,177540,36783,214350
14203,177549,36782,214371
14212,177555,36800,214356
14221,177554,36773,214372
14232,177541,36783,214369
14242,177552,36804,214350
14252,177553,36783,214387
14262,177547,36762,214369
14272,177540,36799,214392
14282,177553,36810,214374
14291,177552,36796,214376
14302,177564,36793,214369
14312,177553,36799,214365
14322,177542,36790,214383
14332,177563,36784,214382
14341,177562,36793,214370
14352,177578,36801,214374
14362,177569,36797,214379
14372,177572,36795,214374
14381,177556,36791,214390
14391,177578,36799,214399
14402,177577,36793,214383
14412,177570,36786,214395
14421,177571,36786,214394
14431,177551,36804,214401
14441,177581,36794,214385
14453,177551,36810,214388
14462,177580,36796,214388
14472,177566,36799,214372
14482,177581,36787,214388
14492,177572,36783,214372
14501,177575,36789,214363
14511,177583,36795,214355
14522,177564,36801,214373
14532,177593,36793,214380
14541,177561,36802,214378
14552,177582,36791,214363
14562,177561,36803,214367
14572,177576,36796,214377
14582,177557,36801,214394
14591,177586,36785,214392
14601,177569,36793,214383
14611,177581,36802,214396
14622,177589,36787,214381
14631,177586,36800,214372
14641,177576,36794,214398
14651,177583,36779,214409
14661,177580,36793,214375
14672,177563,36793,214392
14682,177586,36799,214393
14692,177583,36786,214376
14702,177576,36794,214388
14711,177581,36784,214393
14721,177567,36800,214384
14732,177576,36800,214405
14741,177593,36787,214387
14751,177602,36790,214375
14761,177581,36794,214388
14771,177580,36770,214400
14781,177587,36801,214396
14791,177582,36793,214392
14801,177582,36802,214381
14811,177566,36801,214415
14821,177574,36804,214387
14831,177580,36791,214389
14841,177604,36789,214389
14852,177584,36780,214382
14862,177581,36789,214387
14872,177584,36809,214371
14881,177578,36788,214388
14891,177583,36798,214413
14901,177582,36803,214412
14911,177589,36795,214365
14921,177582,36784,214403
14931,177584,36806,214373
14941,177579,36800,214386
14951,177584,36790,214394
14961,177576,36813,214403
14971,177591,36795,214400
14981,177591,36802,214413
14992,177579,36796,214387
15001,177590,36796,214391
15011,177593,36788,214386
15021,177599,36783,214401
15031,177598,36795,214381
15041,177600,36783,214388
15051,177595,36809,214393
15061,177594,36800,214421
15071,177593,36780,214420
15081,177593,36795,214382
15091,177589,36794,214397
15101,177592,36789,214371
15111,177577,36799,214384
15121,177608,36806,214397
15130,177593,36802,214421
15140,177590,36794,214393
15151,177599,36805,214379
15161,177582,36808,214384
15170,177618,36786,214401
15181,177587,36798,214392
15191,177618,36805,214397
15201,177614,36814,214409
15211,177587,36817,214406
15221,177604,36816,214400
15231,177613,36805,214385
15241,177600,36820,214400
15251,177608,36795,214382
15261,177606,36818,214399
15271,177597,36817,214388
15281,177593,36807,214356
15291,177606,36816,214366
15300,177575,36810,214368
15311,177591,36814,214375
15321,177601,36807,214350
15331,177611,36806,214380
15340,177602,36801,214357
15350,177604,36808,214360
15361,177604,36810,214374
15371,177612,36792,214365
15380,177625,36791,214385
15391,177601,36795,214383
15401,177601,36802,214368
15411,177597,36802,214368
15420,177602,36809,214405
15430,177611,36825,214406
15440,177602,36805,214402
15451,177580,36817,214386
15460,177616,36812,214370
15471,177601,36798,214369
15481,177605,36797,214388
15491,177606,36802,214370
15500,177610,36805,214386
15510,177611,36816,214358
15520,177613,36787,214374
15531,177605,36815,214386
15541,177600,36806,214346
15551,177597,36791,214390
15561,177614,36806,214380
15571,177608,36800,214381
15581,177606,36807,214359
15590,177605,36795,214347
15600,177581,36802,214391
15610,177604,36802,214368
15620,177584,36810,214367
15631,177600,36802,214374
15641,177614,36805,214376
15651,177616,36806,214348
15661,177600,36813,214373
15670,177596,36808,214369
15680,177593,36812,214372
15690,177603,36803,214377
15700,177603,36804,214386
15710,177584,36816,214385
15721,177596,36809,214363
15731,177618,36817,214343
15740,177593,36795,214371
15750,177606,36812,214385
15760,177607,36807,214389
15770,177601,36806,214403
15781,177623,36801,214389
15791,177591,36808,214369
15800,177612,36808,214372
15810,177609,36804,214390
15821,177619,36817,214391
15831,177613,36808,214382
15840,177602,36805,214371
15850,177582,36805,214393
15860,177609,36798,214391
15870,177609,36811,214403
15879,177605,36800,214393
15890,177617,36803,214382
15901,177601,36815,214382
15911,177596,36810,214387
15920,177605,36797,214367
15930,177608,36803,214372
15940,177574,36810,214389
15950,177611,36816,214373
15960,177598,36807,214398
15970,177599,36795,214388
15980,177596,36802,214392
15991,177603,36791,214397
16000,177594,36818,214394
16010,177610,36807,214393
16020,177610,36817,214383
16030,177608,36790,214407
16040,177594,36804,214376
16050,177616,36819,214389
16060,177611,36794,214383
16070,177608,36814,214368
16080,177585,36815,214378
16090,177609,36813,214366
16100,177617,36811,214339
16110,177593,36808,214351
16121,177619,36814,214370
16130,177608,36824,214373
16140,177605,36805,214372
16150,177593,36828,214380
16160,177604,36821,214379
16169,177617,36799,214387
16180,177595,36817,214381
16190,177632,36803,214401
16200,177611,36799,214395
16210,177585,36810,214377
16219,177612,36807,214392
16230,177623,36796,214383
16241,177602,36817,214389
16250,177629,36803,214387
16260,177604,36801,214391
16270,177605,36811,214387
16280,177594,36811,214373
16290,177622,36802,214377
16300,177612,36797,214375
16310,177586,36804,214356
16320,177603,36808,214377
16330,177607,36802,214364
16340,177580,36814,214373
16350,177577,36809,214375
16360,177599,36795,214358
16370,177600,36809,214396
16379,177622,36799,214377
16389,177609,36802,214384
16400,177601,36800,214388
16410,177590,36812,214361
16419,177599,36798,214386
16429,177604,36808,214354
16440,177590,36812,214368
16450,177611,36800,214359
16459,177597,36798,214385
16469,177612,36795,214373
16480,177616,36805,214383
16490,177612,36784,214374
16500,177590,36805,214369
16509,177600,36802,214385
16520,177610,36777,214362
16530,177606,36800,214365
16540,177598,36785,214377
16550,177589,36799,214368
16560,177597,36805,214385
16570,177612,36808,214376
16580,177609,36791,214375
16589,177608,36789,214387
16600,177596,36802,214388
16610,177590,36800,214377
16619,177618,36793,214365
16629,177610,36799,214379
16640,177593,36800,214379
16650,177598,36802,214374
16660,177597,36787,214376
16669,177599,36792,214386
16680,177606,36794,214359
16690,177613,36804,214383
16700,177608,36778,214383
16709,177604,36813,214388
16720,177601,36796,214401
16730,177614,36802,214376
16740,177612,36778,214377
16750,177607,36794,214373
16760,177606,36808,214387
16770,177612,36806,214374
16780,177602,36814,214380
16790,177602,36803,214389
16799,177599,36803,214378
16809,177613,36798,214376
16820,177603,36803,214390
16830,177593,36818,214381
16839,177611,36801,214370
16849,177602,36802,214380
16860,177602,36797,214390
16870,177591,36805,214369
16878,177606,36792,214387
16890,177623,36809,214395
16900,177607,36805,214380
16910,177606,36801,214381
16918,177608,36799,214362
16929,177625,36810,214374
16940,177610,36808,214362
16950,177618,36809,214356
16958,177599,36806,214352
16969,177614,36801,214369
16980,177616,36806,214348
16990,177607,36808,214383
16999,177611,36789,214346
17009,177606,36788,214377
17020,177612,36802,214326
17030,177616,36803,214380
17039,177595,36792,214381
17049,177595,36793,214373
17059,177616,36805,214349
17070,177604,36790,214350
17080,177607,36795,214350
17089,177606,36804,214355
17099,177597,36778,214353
17110,177605,36786,214369
17119,177599,36783,214336
17129,177588,36777,214360
17139,177604,36799,214337
17149,177604,36804,214351
17160,177586,36803,214361
17169,177601,36786,214351
17179,177595,36788,214338
17189,177610,36783,214371
17199,177604,36788,214362
17208,177605,36780,214371
17219,177612,36786,214358
17229,177600,36796,214363
17240,177618,36773,214359
17250,177616,36791,214360
17259,177588,36782,214353
17269,177607,36800,214343
17279,177593,36772,214365
17290,177601,36783,214359
17299,177584,36788,214374
17309,177589,36791,214353
17319,177601,36799,214361
17329,177607,36795,214346
17339,177598,36788,214367
17349,177601,36805,214370
17359,177592,36784,214363
17369,177608,36792,214356
17379,177601,36769,214367
17389,177604,36789,214349
17399,177597,36794,214371
17409,177595,36788,214331
17418,177592,36797,214346
17428,177593,36785,214370
17439,177607,36785,214368
17449,177583,36788,214359
17459,177596,36785,214337
17469,177590,36785,214338
17479,177577,36794,214368
17489,177588,36803,214350
17500,177562,36790,214354
17509,177565,36798,214354
17519,177562,36793,214362
17529,177579,36778,214347
17539,177578,36792,214337
17548,177596,36791,214357
17558,177566,36783,214347
17568,177574,36779,214337
17579,177579,36780,214347
17589,177587,36781,214330
17599,177575,36797,214337
17609,177575,36802,214339
17619,177552,36791,214326
17628,177567,36778,214337
17638,177568,36784,214322
17648,177570,36805,214337
17659,177570,36795,214322
17669,177564,36788,214340
17678,177568,36787,214304
17689,177570,36766,214331
17699,177564,36788,214314
17708,177566,36793,214307
17719,177551,36792,214306
17729,177559,36788,214284
17739,177548,36784,214321
17749,177567,36783,214311
17758,177565,36791,214316
17769,177556,36793,214320
17778,177554,36790,214326
17789,177559,36793,214323
17798,177577,36779,214312
17809,177543,36786,214313
17819,177568,36777,214308
17829,177567,36791,214313
17838,177536,36791,214336
17848,177552,36793,214333
17859,177559,36778,214312
17869,177549,36775,214316
17878,177553,36767,214322
17888,177556,36776,214315
17899,177572,36791,214324
17909,177543,36779,214310
17918,177560,36784,214318
17928,177559,36786,214298
17938,177539,36784,214320
17948,177572,36776,214285
17958,177550,36772,214303
17968,177562,36791,214290
17978,177541,36786,214320
17989,177536,36777,214323
17999,177549,36784,214311
18008,177541,36772,214313
18018,177547,36773,214310
18028,177546,36781,214325
18039,177546,36779,214313
18048,177546,36782,214301
18058,177528,36794,214316
18069,177559,36774,214312
18079,177559,36776,214274
18088,177553,36777,214318
18098,177551,36774,214313
18108,177546,36778,214292
18119,177549,36768,214295
18128,177551,36768,214317
18138,177540,36768,214296
18149,177550,36766,214311
18158,177540,36774,214290
18168,177556,36768,214331
18178,177543,36772,214307
18188,177546,36764,214298
18199,177540,36791,214290
18208,177538,36778,214318
18218,177542,36777,214305
18228,177529,36786,214311
18238,177526,36781,214288
18248,177538,36785,214305
18258,177533,36798,214306
18268,177530,36781,214304
18278,177544,36762,214308
18289,177549,36767,214302
18298,177540,36783,214284
18308,177538,36776,214308
18318,177524,36779,214310
18328,177547,36772,214328
18338,177531,36773,214299
18348,177544,36784,214320
18358,177537,36776,214323
18368,177544,36778,214296
18377,177546,36782,214301
18388,177545,36770,214305
18398,177563,36787,214312
18408,177541,36777,214322
18418,177529,36769,214322
18428,177553,36770,214313
18438,177547,36793,214317
18448,177552,36787,214311
18458,177535,36786,214319
18467,177542,36785,214302
18478,177528,36784,214302
18489,177523,36777,214335
18499,177545,36787,214298
18508,177552,36784,214311
18518,177535,36776,214314
18528,177543,36775,214287
18539,177539,36767,214311
18548,177570,36782,214317
18558,177554,36777,214311
18568,177545,36782,214312
18578,177542,36781,214285
18587,177562,36777,214311
18598,177555,36785,214322
18608,177559,36781,214295
18618,177558,36780,214325
18627,177545,36770,214333
18637,177548,36772,214338
18647,177555,36784,214308
18658,177522,36777,214344
18668,177539,36761,214336
18678,177562,36765,214316
18688,177567,36775,214319
18698,177535,36759,214323
18708,177547,36762,214327
18718,177555,36777,214338
18728,177554,36767,214340
18738,177552,36777,214342
18748,177556,36765,214333
18757,177547,36756,214333
18768,177531,36772,214350
18778,177538,36761,214345
18788,177531,36764,214344
18797,177542,36766,214325
18808,177540,36777,214343
18818,177551,36772,214319
18828,177551,36760,214320
18837,177546,36768,214346
18847,177554,36777,214339
18858,177553,36770,214343
18868,177539,36773,214343
18877,177557,36772,214346
18887,177544,36760,214342
18897,177558,36754,214347
18907,177544,36770,214336
18917,177546,36759,214339
18928,177551,36762,214349
18938,177550,36760,214309
18948,177549,36759,214339
18958,177532,36780,214345
18967,177550,36767,214314
18978,177520,36759,214343
18988,177543,36772,214329
18998,177525,36775,214365
19007,177531,36767,214345
19018,177560,36778,214358
19028,177552,36768,214362
19038,177567,36756,214330
19047,177552,36768,214355
19057,177551,36766,214353
19068,177541,36784,214350
19078,177554,36773,214326
19087,177550,36775,214362
19097,177537,36769,214344
19108,177533,36780,214354
19118,177550,36765,214352
19127,177551,36773,214351
19137,177571,36783,214349
19147,177551,36772,214372
19157,177565,36762,214371
19167,177545,36764,214363
19177,177559,36769,214329
19188,177570,36772,214372
19198,177563,36780,214368
19208,177558,36773,214363
19217,177561,36776,214370
19227,177561,36770,214347
19238,177550,36769,214372
19248,177550,36775,214355
19257,177554,36785,214360
19267,177542,36780,214354
19278,177553,36770,214372
19288,177561,36775,214383
19297,177556,36770,214363
19307,177558,36785,214374
19317,177550,36779,214379
19328,177563,36766,214348
19337,177582,36777,214341
19347,177564,36779,214377
19357,177570,36772,214365
19367,177574,36769,214347
19377,177582,36757,214341
19387,177563,36762,214353
19397,177579,36767,214339
19407,177564,36760,214335
19417,177552,36763,214344
19427,177572,36760,214356
19437,177579,36761,214360
19447,177554,36776,214347
19457,177557,36764,214367
19466,177557,36772,214353
19477,177560,36753,214362
19488,177560,36766,214374
19497,177571,36770,214369
19507,177547,36748,214376
19517,177583,36759,214346
19527,177580,36757,214360
19537,177578,36762,214349
19547,177580,36757,214349
19557,177569,36762,214376
19567,177559,36760,214356
19577,177567,36761,214353
19586,177555,36774,214348
19597,177573,36772,214350
19607,177586,36772,214367
19617,177573,36750,214376
19626,177571,36768,214365
19637,177577,36750,214368
19647,177574,36760,214338
19657,177558,36761,214363
19667,177586,36768,214367
19677,177570,36772,214328
19687,177559,36757,214361
19697,177571,36767,214371
19707,177580,36754,214358
19716,177579,36763,214360
19727,177546,36765,214373
19737,177580,36769,214352
19748,177563,36767,214378
19756,177576,36776,214373
19767,177554,36766,214403
19777,177594,36771,214384
19787,177578,36771,214360
19796,177568,36746,214383
19806,177589,36772,214387
19817,177583,36774,214358
19827,177591,36766,214380
19836,177564,36762,214370
19846,177599,36779,214385
19857,177574,36763,214377
19867,177591,36762,214394
19876,177569,36757,214371
19886,177594,36772,214399
19896,177582,36760,214376
19906,177576,36766,214385
19916,177587,36757,214388
19926,177584,36776,214384
19936,177576,36756,214380
19946,177579,36774,214355
19957,177588,36785,214384
19967,177581,36758,214384
19977,177583,36777,214345
19987,177569,36782,214377
19997,177590,36774,214379
20006,177581,36768,214389
20016,177559,36770,214375
20026,177592,36772,214382
20037,177573,36771,214405
20046,177583,36781,214370
20056,177578,36770,214400
20066,177609,36772,214376
20077,177605,36774,214380
20086,177597,36777,214371
20096,177583,36773,214391
20107,177574,36774,214375
20116,177603,36769,214370
20126,177609,36770,214355
20137,177586,36777,214362
20147,177591,36768,214323
20157,177589,36766,214353
20166,177587,36761,214366
20176,177585,36779,214343
20186,177607,36776,214358
20196,177596,36753,214354
20207,177598,36766,214373
20216,177588,36760,214336
20227,177601,36744,214367
20237,177589,36774,214375
20247,177589,36761,214387
20256,177599,36750,214386
20266,177586,36744,214376
20276,177601,36759,214389
20286,177594,36752,214351
20296,177588,36781,214371
20306,177587,36761,214367
20316,177590,36754,214373
20327,177601,36747,214370
20336,177589,36766,214343
20346,177586,36757,214378
20357,177562,36760,214373
20367,177604,36756,214379
20376,177586,36755,214392
20386,177580,36763,214381
20396,177585,36751,214382
20406,177593,36768,214383
20416,177590,36748,214370
20426,177601,36758,214366
20436,177577,36765,214367
20446,177583,36762,214368
20457,177580,36747,214367
20466,177588,36755,214362
20476,177588,36764,214384
20486,177603,36768,214365
20496,177580,36771,214382
20506,177581,36766,214385
20516,177604,36767,214359
20526,177622,36767,214389
20536,177601,36754,214384
20546,177567,36756,214370
20556,177590,36763,214372
20567,177595,36754,214393
20577,177602,36762,214378
20586,177595,36758,214372
20596,177600,36765,214377
20606,177591,36766,214394
20616,177590,36756,214373
20625,177586,36749,214356
20636,177598,36762,214370
20646,177600,36780,214398
20656,177596,36769,214394
20666,177598,36773,214396
20676,177607,36751,214381
20686,177592,36765,214383
20696,177600,36754,214390
20707,177600,36752,214395
20716,177600,36757,214377
20726,177585,36775,214390
20736,177607,36762,214384
20746,177590,36772,214382
20756,177609,36773,214371
20766,177604,36767,214386
20776,177605,36773,214408
20786,177604,36762,214369
20795,177602,36768,214396
20805,177609,36768,214397
20816,177586,36771,214377
20826,177549,36777,214366
20835,177597,36752,214402
20846,177579,36771,214390
20856,177607,36770,214398
20867,177620,36783,214394
20875,177611,36778,214397
20886,177601,36786,214395
20896,177616,36772,214386
20906,177610,36772,214398
20916,177616,36777,214389
20925,177605,36764,214397
20936,177615,36762,214386
20946,177600,36772,214393
20956,177602,36759,214382
20965,177612,36766,214380
20975,177627,36755,214376
20986,177607,36766,214374
20996,177634,36774,214368
21005,177626,36769,214369
21015,177600,36757,214394
21026,177615,36752,214383
21036,177609,36756,214377
21045,177605,36768,214368
21055,177605,36770,214394
21065,177592,36765,214387
21076,177612,36756,214389
21085,177615,36764,214380
21095,177614,36767,214385
21105,177615,36763,214364
21116,177599,36761,214393
21126,177616,36767,214406
21136,177618,36777,214367
21146,177635,36773,214348
21156,177593,36774,214379
21166,177603,36774,214377
21175,177614,36768,214382
21185,177619,36762,214384
21196,177620,36767,214398
21206,177610,36766,214385
21216,177631,36742,214387
21226,177608,36776,214351
21236,177599,36763,214384
21246,177620,36760,214371
21255,177604,36774,214392
21265,177596,36766,214377
21275,177607,36757,214351
21286,177610,36750,214378
21296,177601,36769,214340
21306,177582,36764,214346
21316,177600,36764,214360
21326,177584,36776,214372
21335,177620,36770,214356
21346,177589,36762,214383
21356,177599,36762,214364
21366,177612,36751,214375
21375,177601,36762,214371
21385,177609,36752,214394
21396,177609,36768,214355
21406,177596,36763,214392
21416,177611,36763,214370
21425,177605,36768,214389
21436,177606,36772,214388
21446,177595,36768,214390
21456,177619,36762,214385
21465,177594,36768,214389
21476,177607,36766,214380
21486,177599,36752,214387
21496,177604,36777,214371
21505,177611,36760,214380
21515,177613,36785,214387
21525,177600,36766,214396
21535,177618,36749,214376
21545,177613,36771,214386
21555,177615,36765,214387
21566,177624,36754,214382
21575,177619,36774,214385
21585,177616,36755,214380
21595,177615,36772,214405
21606,177618,36755,214393
21616,177607,36770,214359
21625,177630,36764,214374
21635,177603,36772,214383
21645,177615,36770,214380
21655,177610,36766,214391
21665,177633,36759,214377
21675,177617,36767,214399
21686,177634,36774,214396
21696,177603,36785,214372
21706,177630,36770,214376
21715,177576,36776,214377
21725,177595,36762,214383
21735,177611,36771,214372
21745,177641,36785,214388
21755,177627,36759,214383
21765,177614,36767,214388
21775,177623,36742,214363
21786,177639,36749,214385
21795,177600,36769,214360
21805,177620,36765,214364
21815,177609,36775,214376
21826,177593,36768,214352
21834,177603,36759,214361
21845,177623,36758,214345
21855,177609,36768,214373
21866,177599,36760,214355
21875,177624,36765,214366
21885,177594,36762,214366
21895,177603,36773,214370
21905,177599,36763,214368
21915,177594,36759,214380
21925,177591,36766,214389
21935,177606,36764,214363
21945,177555,36753,214342
21956,177598,36769,214395
21965,177574,36771,214389
21975,177609,36752,214386
21985,177598,36760,214380
21995,177611,36768,214390
22005,177608,36765,214364
22015,177585,36761,214373
22026,177608,36752,214371
22036,177604,36763,214385
22045,177593,36768,214386
22055,177574,36777,214377
22065,177585,36765,214390
22075,177602,36749,214389
22084,177595,36769,214395
22095,177602,36754,214370
22105,177604,36764,214365
22115,177608,36757,214360
22125,177584,36770,214350
22135,177621,36742,214374
22145,177586,36754,214349
22155,177572,36765,214367
22165,177584,36775,214388
22175,177593,36753,214379
22185,177605,36751,214376
22195,177605,36753,214374
22205,177607,36752,214379
22215,177572,36754,214356
22225,177592,36766,214367
22235,177590,36759,214370
22245,177546,36761,214380
22254,177581,36751,214363
22265,177589,36772,214384
22275,177581,36765,214357
22285,177548,36766,214354
22295,177554,36779,214376
22305,177579,36770,214356
22315,177582,36743,214374
22325,177575,36767,214366
22335,177568,36748,214373
22345,177585,36766,214377
22355,177577,36773,214367
22365,177578,36773,214379
22375,177573,36759,214386
22385,177581,36768,214379
22395,177567,36770,214377
22405,177574,36760,214392
22415,177563,36762,214364
22424,177562,36765,214353
22435,177578,36766,214386
22445,177598,36768,214373
22455,177584,36770,214369
22464,177549,36763,214364
22475,177584,36772,214364
22485,177590,36765,214371
22495,177584,36777,214364
22504,177558,36760,214368
22515,177578,36767,214353
22525,177557,36761,214363
22535,177586,36771,214337
22544,177560,36778,214362
22554,177586,36753,214356
22565,177591,36755,214357
22574,177574,36770,214340
22584,177559,36738,214333
22595,177587,36770,214352
22605,177575,36765,214327
22615,177566,36768,214354
22625,177579,36774,214360
22634,177572,36763,214337
22644,177570,36778,214349
22655,177584,36779,214321
22665,177580,36766,214327
22674,177576,36776,214326
22684,177565,36764,214328
22695,177573,36764,214326
22705,177595,36768,214327
22714,177573,36755,214329
22725,177587,36757,214339
22734,177573,36783,214319
22745,177560,36754,214333
22754,177584,36775,214339
22765,177551,36761,214303
22775,177581,36768,214305
22785,177569,36765,214339
22794,177591,36759,214335
22804,177572,36750,214336
22814,177581,36759,214327
22824,177570,36759,214315
22834,177580,36759,214342
22844,177586,36748,214341
22854,177591,36767,214319
22865,177563,36761,214340
22875,177566,36767,214313
22884,177560,36763,214323
22895,177593,36768,214304
22905,177533,36772,214305
22915,177552,36768,214309
22924,177577,36762,214310
22934,177574,36767,214291
22944,177556,36754,214304
22955,177560,36768,214327
22964,177566,36752,214306
22974,177538,36751,214310
22984,177576,36763,214323
22995,177567,36750,214304
23004,177558,36767,214312
23014,177547,36762,214318
23024,177562,36767,214307
23035,177570,36762,214283
23044,177554,36761,214278
23054,177567,36771,214313
23064,177580,36785,214264
23074,177532,36770,214304
23084,177563,36771,214305
23094,177548,36773,214294
23105,177544,36749,214303
23114,177558,36762,214278
23125,177575,36752,214300
23134,177561,36772,214262
23144,177564,36749,214289
23154,177565,36757,214284
23165,177559,36763,214286
23174,177568,36768,214296
23184,177561,36768,214317
23194,177579,36752,214319
23204,177540,36758,214310
23214,177556,36756,214289
23224,177553,36767,214316
23234,177561,36760,214291
23244,177576,36785,214319
23254,177570,36762,214306
23264,177557,36763,214281
23274,177556,36756,214307
23284,177549,36767,214320
23294,177576,36750,214298
23304,177555,36774,214299
23314,177555,36760,214316
23324,177543,36768,214333
23333,177564,36761,214310
23343,177568,36774,214318
23354,177557,36762,214325
23364,177568,36768,214336
23374,177569,36760,214329
23383,177561,36780,214335
23394,177563,36770,214313
23404,177568,36775,214342
23415,177553,36756,214318
23424,177569,36775,214308
23434,177563,36769,214325
23444,177585,36772,214314
23454,177562,36752,214286
23463,177580,36748,214286
23474,177546,36771,214306
23484,177565,36779,214315
23494,177560,36763,214315
23503,177552,36764,214313
23514,177569,36768,214306
23524,177559,36759,214315
23534,177552,36757,214311
23543,177570,36763,214329
23554,177551,36757,214298
23564,177562,36760,214340
23574,177561,36766,214329
23583,177566,36760,214317
23593,177548,36761,214308
23604,177572,36753,214286
23614,177560,36765,214300
23625,177552,36731,214315
23634,177551,36757,214299
23644,177567,36757,214320
23654,177548,36755,214317
23664,177555,36756,214293
23674,177557,36750,214304
23684,177546,36776,214310
23694,177551,36766,214296
23704,177556,36776,214341
23714,177543,36757,214329
23724,177553,36757,214316
23734,177550,36757,214304
23744,177551,36757,214311
23753,177545,36760,214322
23763,177555,36755,214321
23773,177557,36755,214316
23784,177548,36745,214321
23794,177541,36764,214304
23804,177555,36755,214331
23814,177580,36756,214297
23824,177544,36766,214317
23833,177564,36758,214331
23843,177565,36749,214308
23853,177570,36764,214314
23863,177552,36741,214341
23874,177561,36744,214353
23884,177557,36751,214299
23894,177541,36748,214295
23904,177567,36755,214321
23914,177538,36759,214336
23923,177549,36756,214343
23934,177552,36758,214342
23944,177564,36750,214314
23954,177559,36761,214347
23963,177566,36780,214332
23973,177576,36769,214341
23984,177575,36765,214352
23993,177586,36757,214352
24003,177571,36767,214360
24014,177571,36757,214332
24024,177550,36762,214360
24033,177570,36768,214347
24043,177578,36763,214329
24053,177571,36776,214347
24064,177579,36764,214355
24074,177576,36757,214351
24083,177583,36775,214335
24093,177580,36747,214342
24103,177580,36756,214333
24114,177569,36757,214340
24124,177579,36768,214365
24133,177569,36764,214339
24143,177573,36753,214353
24153,177569,36758,214343
24163,177597,36753,214353
24173,177582,36772,214356
24183,177585,36788,214349
24193,177577,36772,214364
24204,177592,36779,214357
24213,177582,36763,214348
24223,177577,36773,214373
24233,177607,36748,214364
24243,177581,36778,214349
24253,177584,36774,214348
24263,177579,36762,214370
24274,177595,36744,214340
24284,177563,36764,214338
24293,177595,36761,214336
24303,177580,36759,214358
24313,177596,36763,214341
24323,177585,36771,214310
24333,177609,36745,214345
24343,177597,36764,214361
24353,177598,36757,214330
24364,177583,36754,214364
24373,177592,36748,214353
24383,177593,36743,214363
24393,177595,36744,214356
24403,177588,36741,214347
24414,177578,36745,214353
24423,177593,36750,214319
24433,177557,36744,214338
24443,177606,36731,214332
24453,177585,36756,214342
24462,177596,36772,214347
24472,177579,36751,214347
24483,177592,36752,214339
24493,177585,36754,214326
24502,177602,36756,214350
24513,177590,36760,214356
24523,177576,36749,214365
24534,177577,36762,214345
24542,177587,36742,214337
24552,177602,36728,214361
24563,177597,36747,214341
24574,177593,36760,214324
24583,177592,36742,214330
24593,177587,36736,214338
24603,177587,36740,214331
24613,177569,36745,214317
24623,177584,36761,214320
24633,177591,36745,214338
24643,177598,36766,214336
24653,177574,36749,214322
24663,177591,36757,214338
24672,177585,36737,214312
24683,177595,36743,214353
24694,177587,36751,214315
24704,177559,36766,214329
24713,177593,36747,214298
24723,177597,36744,214346
24733,177568,36744,214325
24743,177591,36726,214339
24752,177601,36762,214345
24762,177584,36757,214345
24773,177600,36739,214309
24783,177589,36754,214330
24792,177597,36751,214329
24803,177598,36749,214334
24813,177594,36755,214314
24823,177586,36770,214330
24833,177592,36739,214332
24843,177596,36757,214333
24853,177585,36753,214340
24863,177597,36756,214329
24873,177595,36747,214335
24882,177597,36759,214346
24892,177595,36749,214319
24903,177621,36738,214346
24914,177610,36746,214292
24923,177595,36739,214330
24933,177607,36748,214309
24943,177608,36750,214336
24953,177609,36757,214329
24962,177596,36748,214325
24973,177576,36773,214337
24983,177616,36759,214311
24993,177614,36761,214315
25002,177609,36753,214350
25012,177617,36762,214340
25023,177623,36727,214318
25033,177620,36742,214316
25042,177614,36746,214326
25053,177594,36764,214337
25063,177597,36754,214325
25073,177592,36747,214310
25083,177610,36727,214326
25093,177610,36758,214320
25103,177612,36735,214322
25113,177607,36748,214324
25123,177630,36732,214303
25132,177618,36730,214311
25142,177617,36751,214324
25153,177609,36731,214321
25163,177609,36754,214317
25173,177607,36738,214309
25183,177591,36733,214324
25193,177593,36731,214313
25203,177607,36725,214312
25213,177583,36739,214306
25223,177607,36738,214325
25233,177602,36744,214299
25243,177607,36733,214319
25252,177597,36736,214290
25302,177596,36730,214330
25313,177583,36737,214313
25323,177600,36736,214329
25333,177600,36735,214317
25342,177587,36735,214325
25353,177588,36732,214332
25363,177570,36736,214320
25373,177599,36742,214321
25382,177606,36740,214298
25392,177614,36742,214294
25402,177588,36731,214305
25413,177598,36721,214288
25422,177603,36730,214299
25432,177597,36734,214318
25442,177617,36734,214301
25453,177608,36718,214311
25462,177591,36764,214318
25472,177594,36726,214317
25482,177604,36738,214316
25492,177591,36735,214318
25502,177610,36722,214311
25513,177604,36747,214298
25523,177608,36751,214314
25533,177607,36741,214312
25542,177578,36737,214317
25552,177603,36728,214325
25562,177601,36740,214327
25572,177608,36738,214326
25583,177608,36725,214325
25592,177608,36742,214326
25602,177601,36743,214322
25613,177614,36727,214307
25623,177626,36729,214343
25632,177590,36736,214309
25642,177602,36741,214315
25652,177602,36737,214329
25662,177631,36739,214324
25671,177603,36723,214329
25682,177604,36735,214324
25692,177617,36742,214314
25702,177613,36723,214313
25712,177627,36736,214325
25722,177618,36743,214314
25732,177621,36746,214316
25742,177607,36747,214324
25752,177622,36732,214329
25762,177612,36753,214311
25772,177619,36731,214319
25782,177623,36747,214329
25792,177630,36740,214335
25802,177623,36738,214341
25812,177626,36739,214310
25822,177614,36745,214325
25833,177595,36741,214317
25842,177626,36747,214298
25852,177650,36740,214314
25862,177620,36726,214320
25872,177621,36727,214324
25882,177635,36728,214303
25892,177627,36735,214313
25902,177619,36732,214306
25912,177613,36743,214302
25921,177625,36740,214310
25932,177612,36734,214286
25941,177617,36746,214269
25953,177635,36724,214282
25961,177625,36742,214310
25972,177610,36729,214301
25982,177599,36742,214307
25992,177612,36729,214295
26001,177617,36726,214305
26011,177617,36718,214317
26021,177630,36731,214301
26033,177613,36739,214314
26042,177613,36734,214305
26052,177627,36743,214307
26062,177608,36730,214313
26072,177605,36734,214283
26082,177620,36741,214303
26091,177629,36733,214296
26102,177610,36735,214295
26112,177633,36729,214303
26122,177614,36732,214328
26131,177634,36727,214304
26141,177641,36731,214297
26151,177635,36724,214316
26162,177626,36733,214305
26171,177626,36744,214280
26182,177622,36726,214300
26192,177610,36727,214309
26202,177609,36730,214281
26211,177618,36732,214300
26221,177637,36731,214299
26231,177638,36728,214305
26242,177633,36723,214284
26251,177623,36722,214262
26261,177623,36723,214300
26271,177604,36726,214284
26281,177617,36738,214289
26291,177598,36736,214319
26301,177610,36715,214280
26311,177602,36729,214306
26322,177620,36728,214284
26332,177610,36735,214294
26341,177616,36729,214304
26351,177636,36727,214314
26362,177629,36710,214302
26372,177619,36737,214299
26381,177627,36721,214308
26391,177622,36746,214295
26401,177626,36732,214310
26412,177623,36720,214304
26421,177625,36722,214328
26431,177626,36714,214302
26441,177627,36738,214313
26452,177636,36710,214295
26461,177625,36734,214317
26471,177610,36728,214306
26481,177624,36734,214282
26492,177623,36715,214301
26501,177615,36731,214290
26511,177635,36738,214294
26521,177641,36738,214293
26531,177633,36730,214291
26541,177630,36718,214295
26551,177630,36724,214296
26561,177613,36740,214270
26571,177598,36739,214304
26582,177639,36743,214298
26591,177626,36748,214309
26601,177644,36722,214300
26612,177615,36723,214296
26622,177619,36726,214263
26631,177637,36744,214286
26641,177601,36741,214295
26651,177633,36740,214295
26661,177617,36732,214307
26672,177613,36728,214306
26681,177621,36739,214283
26692,177599,36743,214299
26702,177631,36738,214295
26711,177623,36732,214277
26721,177617,36736,214307
26731,177617,36748,214288
26741,177630,36750,214276
26750,177620,36747,214292
26760,177622,36719,214289
26771,177630,36723,214286
26781,177616,36727,214259
26791,177618,36729,214286
26801,177623,36738,214283
26811,177635,36721,214262
26821,177628,36732,214275
26831,177612,36732,214311
26840,177616,36713,214289
26851,177619,36724,214289
26861,177616,36727,214287
26871,177616,36733,214275
26881,177618,36729,214299
26891,177607,36729,214262
26901,177615,36726,214286
26912,177598,36717,214275
26921,177603,36722,214266
26934,177592,36738,214264
26941,177619,36727,214290
26951,177600,36726,214261
26960,177612,36722,214272
26971,177596,36740,214278
26981,177604,36733,214258
26991,177578,36727,214261
27000,177619,36736,214270
27010,177599,36725,214262
27021,177587,36720,214274
27031,177617,36726,214269
27041,177609,36717,214266
27051,177614,36723,214257
27061,177604,36720,214269
27071,177618,36709,214265
27081,177599,36725,214241
27090,177619,36724,214251
27101,177586,36733,214269
27111,177600,36715,214256
27121,177603,36707,214273
27130,177591,36731,214244
27141,177611,36711,214261
27151,177602,36737,214273
27161,177607,36733,214259
27171,177584,36719,214256
27181,177603,36732,214232
27191,177588,36721,214269
27201,177605,36705,214275
27210,177604,36714,214246
27220,177608,36729,214253
27230,177609,36724,214256
27241,177585,36736,214270
27250,177603,36735,214243
27260,177585,36726,214259
27270,177596,36731,214262
27281,177607,36712,214245
27291,177593,36725,214246
27301,177601,36740,214253
27311,177593,36728,214248
27321,177586,36722,214269
27331,177581,36741,214263
27340,177604,36739,214238
27350,177598,36746,214255
27361,177602,36710,214257
27371,177583,36736,214252
27380,177604,36742,214222
27391,177589,36750,214264
27401,177596,36742,214227
27411,177589,36731,214264
27420,177602,36734,214250
27430,177585,36735,214249
27441,177599,36726,214244
27451,177594,36746,214247
27460,177585,36739,214255
27470,177596,36743,214260
27480,177596,36726,214268
27490,177591,36735,214259
27500,177604,36729,214255
27510,177573,36745,214242
27520,177593,36727,214257
27530,177598,36752,214234
27541,177574,36751,214242
27550,177596,36730,214234
27560,177591,36735,214236
27570,177610,36748,214219
27581,177587,36746,214238
27590,177599,36739,214207
27601,177590,36747,214233
27611,177584,36747,214223
27621,177603,36743,214230
27655,177614,36744,214244
27660,177591,36724,214239
27670,177602,36722,214253
27681,177590,36741,214220
27691,177599,36741,214246
27701,177580,36737,214245
27710,177593,36744,214231
27720,177597,36722,214236
27730,177589,36723,214236
27741,177596,36736,214229
27750,177585,36735,214233
27761,177590,36739,214210
27771,177596,36740,214229
27781,177606,36723,214243
27793,177606,36737,214222
27800,177594,36735,214249
27810,177581,36723,214226
27820,177588,36726,214235
27830,177582,36737,214225
27840,177585,36727,214247
27850,177583,36738,214244
27860,177606,36731,214241
27874,177601,36733,214237
27880,177593,36736,214237
27893,177592,36732,214248
27900,177582,36735,214225
27910,177569,36733,214211
27920,177600,36720,214233
27930,177577,36732,214226
27940,177572,36732,214231
27951,177562,36737,214220
27960,177589,36745,214200
27970,177598,36736,214199
27980,177584,36738,214236
27990,177584,36733,214240
28000,177590,36707,214233
28010,177561,36727,214236
28020,177578,36732,214236
28030,177580,36728,214229
28040,177582,36741,214253
28049,177583,36732,214240
28060,177603,36715,214255
28070,177578,36748,214248
28080,177596,36734,214242
28090,177571,36730,214255
28100,177584,36735,214254
28110,177587,36736,214232
28121,177585,36740,214247
28130,177577,36731,214252
28140,177593,36738,214242
28150,177580,36737,214254
28160,177583,36738,214263
28169,177566,36730,214262
28180,177576,36759,214245
28190,177585,36726,214236
28200,177584,36744,214258
28209,177571,36741,214249
28220,177572,36732,214237
28230,177571,36720,214224
28240,177572,36737,214202
28250,177578,36720,214220
28260,177580,36725,214193
28270,177572,36755,214199
28280,177563,36722,214215
28291,177583,36741,214192
28300,177555,36738,214196
28310,177570,36746,214212
28320,177583,36745,214190
28330,177551,36741,214204
28340,177585,36747,214206
28350,177574,36734,214183
28360,177576,36751,214217
28370,177562,36749,214162
28380,177564,36740,214181
28390,177583,36725,214213
28400,177574,36733,214199
28410,177568,36735,214195
28420,177567,36749,214209
28430,177575,36752,214212
28440,177589,36731,214213
28450,177595,36739,214225
28460,177575,36744,214228
28470,177573,36734,214233
28479,177606,36722,214243
28490,177592,36729,214244
28500,177581,36736,214255
28510,177576,36727,214226
28520,177576,36744,214252
28530,177570,36735,214268
28540,177600,36745,214251
28549,177573,36751,214258
28560,177592,36745,214243
28570,177591,36732,214255
28580,177578,36738,214259
28589,177604,36739,214264
28600,177603,36733,214259
28610,177591,36734,214283
28620,177595,36728,214276
28630,177589,36728,214276
28640,177590,36738,214263
28650,177614,36735,214242
28660,177602,36734,214281
28669,177599,36736,214278
28680,177611,36734,214284
28690,177604,36731,214283
28700,177590,36741,214283
28709,177603,36741,214293
28719,177615,36729,214298
28730,177624,36728,214284
28739,177611,36736,214289
28749,177619,36744,214298
28760,177602,36738,214290
28770,177626,36734,214309
28780,177605,36748,214295
28790,177605,36734,214279
28799,177611,36733,214297
28809,177622,36750,214273
28820,177592,36747,214306
28830,177589,36739,214304
28839,177614,36743,214288
28849,177604,36756,214300
28860,177620,36744,214276
28870,177613,36748,214321
28879,177634,36760,214305
28889,177616,36753,214310
28899,177634,36737,214298
28910,177608,36747,214303
28918,177635,36745,214321
28929,177638,36726,214325
28939,177641,36734,214326
28949,177628,36742,214326
28959,177628,36744,214323
28970,177627,36742,214322
28979,177634,36751,214314
28990,177635,36720,214305
28999,177623,36758,214305
29013,177624,36722,214325
29019,177635,36742,214333
29029,177632,36739,214307
29040,177652,36750,214326
29049,177647,36749,214328
29059,177648,36749,214344
29070,177628,36750,214346
29079,177650,36745,214334
29089,177625,36739,214324
29099,177650,36751,214333
29109,177647,36744,214318
29120,177626,36746,214327
29129,177665,36756,214286
29139,177639,36754,214334
29149,177654,36751,214332
29159,177644,36752,214324
29168,177643,36749,214319
29179,177658,36747,214337
29189,177668,36752,214337
29200,177671,36764,214314
29209,177654,36746,214321
29219,177636,36759,214331
29229,177645,36757,214320
29240,177633,36758,214317
29249,177636,36759,214315
29259,177654,36741,214316
29269,177658,36746,214298
29279,177645,36751,214299
29290,177656,36717,214313
29298,177646,36749,214308
29309,177657,36746,214316
29319,177653,36749,214337
29330,177663,36743,214312
29338,177646,36743,214337
29349,177663,36734,214318
29359,177656,36748,214319
29370,177652,36729,214311
29379,177652,36743,214317
29389,177626,36745,214313
29399,177656,36762,214314
29409,177673,36751,214305
29418,177658,36745,214314
29428,177648,36729,214314
29439,177664,36745,214319
29450,177637,36757,214316
29458,177654,36742,214296
29469,177647,36734,214334
29479,177661,36754,214296
29489,177652,36758,214316
29499,177619,36754,214334
29508,177651,36740,214324
29519,177664,36746,214300
29529,177653,36749,214305
29539,177641,36759,214323
29549,177638,36745,214313
29559,177657,36751,214308
29570,177653,36742,214334
29579,177659,36752,214325
29588,177660,36747,214321
29599,177662,36755,214307
29609,177645,36756,214315
29619,177636,36749,214325
29628,177653,36746,214303
29639,177663,36730,214322
29649,177638,36748,214342
29659,177645,36764,214326
29668,177663,36747,214319
29678,177653,36729,214325
29689,177651,36744,214320
29699,177655,36744,214332
29708,177661,36755,214297
29718,177656,36744,214318
29729,177662,36739,214326
29739,177657,36732,214334
29750,177655,36736,214317
29759,177656,36764,214322
29769,177655,36745,214304
29779,177635,36764,214325
29789,177661,36759,214305
29799,177646,36758,214327
29809,177649,36772,214306
29819,177672,36735,214318
29829,177647,36764,214309
29838,177639,36761,214327
29848,177653,36754,214321
29859,177641,36757,214330
29869,177660,36760,214328
29878,177653,36758,214339
29888,177647,36750,214330
29899,177660,36751,214327
29909,177655,36770,214299
29918,177673,36765,214327
29929,177655,36760,214325
29938,177663,36748,214311
29949,177648,36739,214328
29958,177653,36745,214316
29969,177668,36760,214308
29979,177659,36763,214329
29989,177673,36763,214318
29999,177662,36755,214317
30008,177660,36761,214305
30019,177644,36768,214324
30029,177667,36756,214319
30039,177659,36757,214307
30048,177664,36760,214294
30058,177650,36752,214307
30068,177654,36755,214291
30079,177667,36741,214313
30089,177643,36757,214319
30098,177653,36757,214315
30109,177658,36739,214311
30119,177655,36763,214309
30128,177669,36755,214318
30139,177662,36754,214326
30149,177656,36749,214325
30159,177661,36755,214306
30168,177628,36741,214324
30178,177662,36763,214322
30188,177653,36755,214305
30198,177647,36736,214319
30208,177656,36742,214307
30218,177674,36747,214306
30229,177659,36743,214293
30239,177662,36757,214283
30249,177674,36763,214308
30258,177654,36744,214307
30268,177658,36758,214301
30279,177656,36731,214327
30289,177634,36732,214315
30298,177652,36758,214294
30308,177655,36752,214308
30318,177644,36756,214312
30328,177640,36754,214304
30338,177660,36730,214317
30348,177648,36751,214276
30358,177661,36734,214304
30369,177663,36758,214321
30378,177652,36754,214284
30389,177638,36752,214294
30399,177650,36753,214296
30409,177664,36760,214316
30418,177626,36747,214305
30428,177625,36764,214315
30438,177656,36759,214288
30448,177655,36758,214295
30458,177641,36755,214323
30467,177653,36756,214321
30478,177659,36753,214318
30489,177668,36740,214321
30499,177646,36751,214311
30508,177645,36760,214315
30518,177638,36764,214295
30528,177669,36737,214318
30539,177660,36758,214308
30548,177654,36752,214314
30558,177655,36752,214323
30569,177653,36745,214320
30579,177665,36753,214293
30588,177656,36758,214295
30598,177670,36736,214324
30608,177638,36749,214309
30619,177658,36746,214310
30628,177671,36752,214323
30638,177650,36756,214321
30648,177658,36750,214309
30658,177670,36748,214318
30668,177659,36751,214310
30678,177667,36757,214285
30688,177651,36762,214310
30698,177643,36752,214289
30708,177643,36755,214317
30717,177663,36757,214301
30728,177633,36769,214315
30738,177643,36771,214292
30749,177653,36756,214321
30757,177657,36764,214312
30768,177672,36758,214307
30779,177670,36752,214313
30789,177648,36764,214294
30798,177642,36762,214303
30808,177653,36759,214322
30818,177672,36754,214315
30828,177666,36760,214315
30838,177651,36760,214307
30848,177653,36768,214317
30858,177669,36764,214288
30868,177660,36765,214310
30877,177661,36739,214297
30887,177652,36757,214288
30898,177663,36740,214295
30908,177662,36758,214295
30918,177659,36750,214307
30928,177676,36754,214294
30937,177656,36748,214307
30948,177676,36744,214312
30958,177642,36751,214317
30968,177654,36749,214279
30978,177648,36747,214281
30988,177646,36769,214290
30998,177654,36751,214293
31007,177650,36744,214299
31018,177670,36754,214281
31028,177661,36751,214309
31038,177646,36751,214307
31048,177639,36748,214293
31058,177662,36738,214263
31068,177673,36749,214288
31079,177651,36743,214304
31088,177665,36747,214299
31098,177639,36750,214311
31108,177653,36743,214305
31118,177678,36755,214297
31127,177664,36740,214304
31137,177661,36741,214309
31147,177647,36754,214302
31158,177660,36734,214307
31167,177677,36736,214286
31178,177653,36746,214298
31188,177648,36742,214274
31198,177662,36731,214278
31208,177652,36739,214278
31217,177629,36744,214286
31228,177644,36734,214287
31238,177659,36755,214300
31248,177645,36741,214289
31257,177649,36733,214298
31267,177631,36757,214308
31278,177651,36745,214287
31288,177642,36760,214314
31297,177643,36743,214307
31307,177643,36753,214296
31318,177655,36746,214309
31328,177650,36745,214290
31337,177656,36750,214279
31347,177651,36749,214295
31357,177657,36740,214282
31367,177654,36743,214285
31377,177667,36733,214296
31387,177650,36742,214309
31398,177651,36748,214308
31408,177658,36737,214269
31417,177651,36742,214290
31427,177646,36748,214279
31438,177641,36728,214305
31448,177639,36747,214285
31458,177653,36738,214294
31467,177650,36741,214276
31477,177650,36750,214301
31487,177651,36756,214287
31498,177638,36730,214278
31507,177626,36748,214284
31518,177649,36750,214270
31528,177651,36743,214293
31538,177626,36760,214285
31547,177626,36747,214300
31557,177662,36759,214261
31567,177658,36753,214307
31578,177645,36751,214311
31587,177647,36750,214264
31597,177632,36740,214287
31607,177644,36757,214267
31617,177636,36742,214297
31626,177642,36745,214279
31637,177657,36734,214279
31648,177635,36768,214308
31658,177658,36761,214287
31667,177659,36755,214299
31677,177647,36751,214278
31687,177670,36764,214278
31697,177623,36758,214292
31708,177653,36740,214273
31717,177649,36758,214276
31727,177627,36745,214254
31737,177640,36759,214265
31747,177640,36752,214283
31757,177633,36753,214263
31767,177640,36740,214268
31777,177634,36738,214290
31788,177620,36760,214281
31796,177635,36757,214252
31807,177615,36731,214286
31818,177648,36739,214265
31828,177637,36746,214269
31837,177626,36740,214271
31847,177636,36738,214263
31857,177650,36736,214274
31867,177618,36744,214275
31877,177632,36761,214283
31887,177628,36733,214277
31897,177629,36733,214272
31907,177629,36730,214255
31917,177624,36742,214255
31927,177609,36722,214260
31937,177607,36733,214255
31947,177618,36740,214258
31957,177623,36745,214257
31967,177627,36740,214260
31977,177621,36743,214277
31987,177615,36737,214254
31998,177609,36734,214253
32007,177611,36734,214231
32017,177623,36737,214270
32027,177606,36751,214255
32038,177609,36747,214249
32047,177588,36758,214254
32057,177616,36755,214237
32067,177610,36753,214257
32077,177612,36750,214260
32087,177598,36727,214234
32096,177629,36745,214234
32107,177605,36752,214239
32118,177612,36744,214270
32127,177616,36746,214253
32137,177597,36763,214247
32147,177605,36741,214264
32157,177611,36731,214244
32166,177581,36732,214236
32177,177599,36743,214254
32187,177598,36738,214254
32197,177612,36736,214250
32208,177611,36733,214243
32217,177601,36751,214243
32227,177602,36744,214237
32237,177588,36735,214261
32247,177595,36741,214257
32257,177594,36742,214234
32267,177607,36728,214251
32277,177600,36745,214265
32287,177605,36755,214243
32296,177608,36727,214247
32307,177601,36724,214244
32317,177586,36731,214232
32327,177584,36747,214239
32336,177609,36742,214240
32346,177593,36766,214243
32357,177579,36759,214254
32367,177586,36754,214239
32376,177601,36730,214251
32386,177607,36756,214241
32396,177619,36742,214239
32407,177608,36744,214246
32416,177608,36758,214245
32427,177600,36755,214257
32436,177615,36744,214260
32447,177606,36752,214230
32457,177594,36746,214256
32466,177611,36753,214269
32477,177603,36736,214257
32487,177597,36750,214236
32497,177613,36754,214217
32507,177612,36763,214251
32517,177599,36747,214225
32527,177602,36760,214210
32537,177603,36737,214224
32546,177605,36748,214248
32556,177604,36742,214232
32566,177623,36754,214215
32577,177586,36742,214221
32586,177606,36748,214219
32597,177610,36751,214221
32607,177610,36736,214219
32617,177595,36746,214226
32626,177598,36739,214247
32636,177592,36756,214244
32646,177605,36745,214203
32656,177611,36726,214232
32666,177611,36741,214239
32676,177604,36738,214224
32687,177613,36733,214220
32697,177602,36731,214247
32707,177596,36724,214225
32716,177593,36744,214234
32726,177595,36739,214216
32736,177593,36753,214229
32747,177613,36738,214227
32756,177605,36742,214252
32767,177603,36735,214246
32777,177586,36734,214242
32787,177575,36742,214225
32796,177598,36755,214255
32806,177596,36732,214227
32816,177580,36748,214234
32826,177584,36736,214212
32836,177605,36725,214231
32846,177598,36744,214256
32857,177595,36743,214215
32867,177603,36742,214233
32876,177580,36747,214247
32886,177599,36744,214247
32896,177587,36755,214235
32906,177567,36744,214243
32916,177588,36752,214246
32926,177578,36738,214245
32936,177588,36724,214243
32946,177587,36749,214247
32956,177595,36735,214253
32973,177586,36732,214247
32995,177617,36740,214219
32997,177613,36740,214263
33006,177595,36749,214239
33016,177596,36754,214257
33026,177594,36738,214245
33037,177592,36733,214257
33046,177573,36751,214267
33056,177613,36743,214266
33066,177586,36755,214254
33077,177607,36746,214249
33086,177570,36740,214281
33096,177611,36749,214272
33106,177605,36752,214254
33117,177592,36740,214259
33126,177629,36734,214263
33136,177603,36752,214274
33146,177612,36745,214262
33157,177590,36752,214282
33166,177633,36747,214252
33176,177589,36748,214279
33186,177593,36749,214285
33196,177600,36754,214289
33206,177600,36759,214293
33216,177615,36761,214276
33226,177614,36742,214290
33236,177602,36751,214294
33246,177582,36744,214266
33255,177605,36750,214286
33265,177623,36749,214263
33276,177620,36749,214287
33286,177622,36764,214268
33296,177618,36753,214278
33306,177639,36738,214274
33316,177617,36742,214264
33326,177608,36762,214269
33336,177615,36748,214251
33346,177598,36755,214266
33356,177622,36745,214252
33366,177627,36745,214270
33375,177617,36731,214284
33386,177591,36749,214293
33395,177611,36727,214292
33406,177641,36739,214289
33416,177611,36750,214289
33426,177626,36733,214285
33436,177620,36738,214303
33446,177585,36738,214294
33456,177625,36743,214279
33465,177586,36746,214288
33476,177620,36737,214275
33486,177603,36746,214272
33496,177616,36729,214277
33505,177627,36742,214291
33516,177603,36750,214294
33525,177629,36741,214285
33536,177612,36742,214299
33545,177574,36740,214297
33555,177614,36732,214300
33566,177605,36742,214275
33576,177625,36737,214264
33585,177604,36743,214257
33596,177601,36744,214289
33606,177597,36738,214278
33616,177629,36747,214285
33625,177592,36741,214287
33636,177644,36721,214276
33646,177628,36749,214295
33656,177604,36741,214287
33666,177644,36752,214295
33675,177643,36739,214278
33685,177649,36738,214285
33696,177619,36743,214297
33706,177625,36743,214300
33715,177637,36732,214305
33725,177598,36746,214285
33735,177637,36726,214284
33745,177643,36739,214287
33755,177631,36749,214305
33766,177637,36748,214290
33775,177649,36753,214302
33786,177666,36737,214302
33795,177625,36747,214283
33806,177636,36741,214299
33815,177645,36745,214267
33826,177670,36746,214296
33835,177636,36743,214287
33845,177621,36736,214270
33856,177638,36736,214300
33866,177644,36752,214301
33875,177638,36740,214294
33885,177639,36745,214312
33896,177643,36746,214311
33906,177632,36749,214312
33916,177637,36745,214291
33925,177641,36753,214318
33935,177640,36760,214290
33945,177623,36774,214323
33955,177656,36742,214322
33965,177651,36769,214294
33975,177641,36758,214299
33986,177654,36755,214304
33996,177650,36762,214313
34005,177605,36754,214315
34015,177642,36749,214314
34025,177622,36753,214305
34036,177666,36753,214294
34045,177641,36761,214305
34055,177651,36751,214287
34065,177631,36762,214284
34075,177645,36764,214304
34085,177650,36744,214295
34095,177655,36764,214304
34105,177610,36755,214288
34116,177644,36752,214298
34125,177632,36752,214268
34135,177649,36734,214300
34145,177652,36754,214294
34155,177658,36742,214307
34165,177624,36746,214295
34174,177661,36751,214288
34185,177671,36739,214303
34196,177644,36745,214291
34206,177665,36758,214315
34215,177655,36757,214297
34225,177676,36741,214304
34236,177662,36743,214307
34246,177666,36754,214328
34255,177645,36757,214307
34265,177666,36748,214289
34275,177647,36738,214292
34285,177649,36758,214291
34295,177658,36752,214281
34305,177632,36745,214288
34315,177654,36746,214287
34325,177630,36750,214289
34335,177648,36750,214292
34345,177630,36757,214292
34355,177645,36755,214313
34365,177634,36746,214311
34375,177632,36755,214300
34385,177656,36732,214299
34395,177654,36746,214249
34405,177625,36749,214300
34416,177643,36748,214295
34425,177649,36757,214295
34435,177650,36744,214277
34445,177663,36749,214276
34455,177648,36751,214268
34464,177646,36747,214286
34475,177641,36743,214268
34485,177654,36749,214304
34495,177651,36729,214296
34504,177657,36747,214299
34515,177647,36723,214305
34525,177645,36751,214296
34535,177628,36750,214302
34544,177658,36747,214303
34554,177665,36746,214306
34564,177639,36748,214318
34575,177669,36751,214291
34584,177669,36755,214316
34594,177665,36745,214295
34605,177658,36757,214323
34615,177650,36744,214290
34625,177660,36759,214298
34634,177662,36759,214272
34644,177618,36738,214288
34655,177654,36760,214307
34665,177660,36748,214255
34674,177668,36748,214295
34685,177656,36755,214299
34695,177652,36758,214280
34705,177633,36747,214313
34714,177655,36743,214290
34724,177656,36739,214299
34735,177651,36762,214278
34745,177646,36757,214270
34754,177656,36755,214295
34765,177653,36746,214287
34775,177653,36757,214272
34785,177649,36752,214290
34794,177663,36747,214295
34804,177655,36754,214283
34814,177658,36757,214291
34825,177662,36763,214299
34834,177661,36758,214301
34844,177663,36754,214282
34854,177663,36763,214281
34864,177656,36762,214310
34875,177676,36770,214281
34884,177657,36772,214304
34894,177649,36744,214289
34904,177674,36749,214308
34915,177667,36741,214295
34924,177666,36761,214304
34934,177671,36744,214281
34945,177660,36747,214287
34955,177649,36768,214261
34964,177655,36751,214259
34975,177636,36752,214293
34985,177659,36751,214286
34995,177662,36759,214286
35004,177669,36763,214281
35014,177655,36753,214278
35024,177669,36758,214243
35035,177667,36740,214295
35044,177667,36769,214296
35054,177655,36741,214289
35065,177672,36723,214290
35075,177668,36748,214261
35084,177653,36754,214285
35094,177656,36755,214282
35104,177662,36757,214314
35114,177647,36750,214286
35124,177650,36735,214264
35134,177649,36745,214270
35144,177658,36746,214287
35154,177677,36739,214291
35165,177670,36754,214303
35173,177675,36748,214300
35184,177655,36745,214258
35194,177670,36742,214250
35205,177635,36722,214259
35214,177662,36740,214277
35224,177637,36740,214280
35234,177664,36748,214273
35244,177674,36749,214275
35254,177664,36757,214268
35264,177658,36755,214290
35274,177662,36752,214276
35284,177661,36750,214283
35293,177680,36728,214281
35304,177643,36748,214246
35314,177658,36750,214279
35324,177668,36736,214281
35334,177672,36753,214276
35344,177670,36738,214275
35354,177681,36744,214282
35364,177673,36748,214210
35375,177666,36733,214282
35384,177660,36751,214259
35394,177667,36729,214285
35404,177647,36758,214276
35414,177673,36752,214295
35423,177655,36743,214303
35434,177659,36751,214267
35444,177677,36776,214272
35454,177649,36751,214277
35463,177656,36759,214282
35474,177666,36736,214281
35484,177665,36735,214271
35495,177660,36744,214285
35504,177660,36744,214280
35514,177653,36744,214271
35524,177674,36727,214298
35534,177669,36735,214266
35543,177669,36740,214265
35554,177659,36745,214252
35564,177641,36750,214294
35574,177673,36752,214269
35583,177658,36770,214292
35593,177667,36759,214289
35603,177669,36737,214284
35613,177657,36726,214301
35624,177655,36750,214263
35633,177649,36751,214261
35644,177650,36737,214285
35654,177659,36756,214271
35664,177660,36755,214274
35673,177659,36741,214281
35683,177664,36762,214266
35693,177653,36756,214280
35704,177664,36732,214293
35713,177673,36760,214283
35724,177637,36745,214298
35734,177662,36758,214298
35744,177639,36779,214292
35753,177636,36759,214282
35763,177655,36750,214268
35774,177660,36771,214274
35784,177664,36727,214278
35793,177664,36752,214270
35803,177648,36777,214278
35813,177676,36751,214266
35823,177654,36747,214257
35833,177662,36748,214254
35844,177651,36775,214256
35854,177658,36751,214245
35864,177624,36746,214263
35874,177612,36743,214245
35883,177648,36729,214254
35893,177643,36747,214245
35903,177640,36759,214256
35914,177653,36738,214269
35923,177641,36739,214242
35934,177630,36742,214249
35944,177647,36757,214223
35954,177638,36757,214260
35963,177648,36763,214242
35974,177622,36764,214238
35984,177639,36756,214231
35994,177615,36753,214236
36003,177641,36741,214246
36013,177637,36743,214228
36023,177626,36731,214236
36034,177637,36762,214251
36043,177630,36751,214240
36053,177648,36755,214229
36063,177637,36752,214249
36074,177628,36751,214251
36083,177634,36757,214233
36093,177632,36737,214234
36103,177633,36748,214214
36113,177624,36751,214234
36124,177644,36758,214223
36133,177644,36747,214215
36143,177622,36741,214218
36154,177624,36739,214211
36164,177625,36753,214234
36173,177616,36743,214197
36183,177624,36743,214214
36194,177589,36751,214214
36204,177623,36739,214215
36213,177604,36748,214226
36223,177625,36750,214203
36233,177641,36750,214206
36243,177608,36759,214223
36252,177595,36752,214228
36263,177629,36736,214216
36274,177656,36750,214217
36284,177615,36747,214218
36293,177619,36746,214216
36303,177631,36739,214232
36313,177630,36735,214199
36323,177637,36757,214217
36333,177626,36733,214217
36343,177626,36751,214197
36353,177610,36765,214197
36363,177612,36755,214208
36374,177616,36741,214190
36383,177627,36763,214208
36393,177621,36745,214192
36403,177623,36758,214201
36414,177620,36744,214198
36423,177624,36756,214201
36433,177622,36737,214189
36443,177608,36736,214194
36453,177621,36749,214197
36462,177619,36756,214195
36473,177617,36745,214185
36483,177607,36749,214180
36494,177614,36739,214179
36503,177613,36761,214167
36513,177622,36759,214193
36523,177602,36752,214196
36534,177609,36757,214182
36543,177604,36736,214204
36553,177593,36754,214202
36563,177612,36739,214196
36574,177615,36738,214192
36583,177623,36751,214179
36593,177625,36749,214191
36603,177601,36751,214159
36613,177599,36757,214187
36623,177616,36732,214180
36633,177610,36748,214165
36643,177595,36778,214170
36653,177623,36758,214155
36664,177604,36749,214166
36673,177603,36751,214171
36683,177588,36755,214177
36693,177599,36752,214158
36703,177610,36747,214182
36712,177619,36766,214192
36722,177592,36758,214173
36733,177616,36743,214182
36743,177606,36757,214190
36752,177601,36740,214186
36762,177598,36748,214176
36773,177617,36750,214173
36783,177610,36746,214164
36793,177616,36736,214186
36803,177602,36741,214170
36813,177630,36741,214158
36823,177606,36754,214177
36833,177606,36743,214176
36842,177601,36745,214155
36852,177600,36757,214148
36863,177603,36748,214183
36874,177612,36754,214164
36883,177598,36751,214184
36893,177604,36748,214171
36903,177610,36729,214188
36913,177616,36743,214191
36922,177616,36755,214193
36932,177620,36743,214164
36943,177604,36762,214188
36954,177607,36747,214184
36962,177608,36749,214204
36973,177614,36729,214210
36983,177598,36739,214188
36993,177609,36753,214198
37002,177602,36747,214193
37013,177586,36740,214206
37023,177603,36751,214207
37033,177602,36754,214194
37042,177605,36757,214210
37052,177599,36742,214202
37063,177613,36734,214195
37073,177615,36750,214203
37083,177612,36740,214216
37092,177613,36753,214182
37102,177609,36751,214223
37112,177606,36766,214194
37122,177606,36766,214207
37133,177614,36735,214218
37143,177608,36760,214198
37153,177605,36749,214205
37163,177600,36753,214230
37172,177616,36744,214224
37182,177617,36732,214230
37193,177610,36749,214221
37203,177624,36760,214205
37212,177625,36749,214232
37222,177619,36751,214237
37232,177625,36750,214211
37242,177616,36758,214228
37252,177647,36748,214227
37262,177644,36763,214276
37272,177645,36755,214244
37282,177632,36761,214256
37292,177641,36757,214243
37302,177629,36757,214256
37312,177650,36762,214254
37322,177646,36757,214251
37333,177654,36751,214244
37342,177642,36753,214264
37352,177640,36756,214241
37362,177623,36758,214248
37372,177648,36744,214246
37381,177632,36762,214262
37393,177640,36736,214248
37403,177645,36759,214242
37413,177636,36756,214257
37422,177634,36749,214265
37432,177618,36758,214239
37442,177644,36751,214234
37452,177648,36765,214226
37462,177642,36761,214248
37472,177660,36755,214258
37482,177631,36745,214269
37492,177646,36758,214240
37501,177635,36747,214251
37512,177660,36761,214263
37522,177638,36761,214267
37532,177640,36760,214249
37541,177646,36747,214243
37553,177667,36741,214263
37562,177668,36748,214260
37573,177659,36749,214259
37582,177645,36750,214241
37592,177653,36748,214269
37601,177670,36752,214253
37613,177656,36732,214251
37623,177645,36766,214241
37632,177651,36754,214253
37642,177624,36757,214262
37652,177642,36762,214252
37662,177662,36760,214240
37671,177654,36757,214253
37682,177650,36758,214252
37692,177653,36751,214253
37702,177634,36744,214266
37711,177654,36762,214265
37722,177642,36755,214268
37732,177655,36766,214256
37742,177663,36758,214273
37751,177668,36761,214262
37761,177663,36754,214272
37772,177676,36745,214234
37782,177655,36765,214254
37791,177663,36752,214254
37801,177660,36756,214251
37811,177664,36774,214252
37822,177628,36757,214278
37833,177662,36743,214259
37842,177668,36755,214236
37852,177655,36758,214256
37862,177665,36757,214279
37872,177648,36765,214280
37881,177681,36760,214266
37892,177680,36781,214273
37902,177673,36763,214261
37912,177677,36766,214259
37921,177664,36757,214283
37931,177669,36786,214261
37941,177665,36769,214277
37952,177661,36768,214289
37962,177666,36753,214268
37972,177681,36787,214239
37982,177664,36767,214282
37992,177672,36753,214271
38001,177686,36776,214262
38011,177676,36782,214280
38021,177691,36754,214281
38032,177670,36754,214273
38041,177676,36767,214269
38051,177684,36768,214280
38061,177686,36770,214265
38071,177692,36764,214260
38082,177663,36780,214255
38093,177685,36775,214263
38101,177690,36776,214287
38111,177689,36768,214288
38121,177694,36769,214267
38131,177689,36769,214266
38141,177678,36778,214285
38151,177686,36766,214271
38162,177684,36770,214285
38171,177682,36786,214288
38181,177672,36776,214284
38192,177699,36770,214282
38202,177672,36772,214260
38211,177667,36780,214257
38221,177707,36783,214254
38231,177689,36779,214288
38241,177700,36763,214267
38251,177687,36775,214280
38261,177688,36788,214238
38271,177687,36770,214274
38281,177693,36776,214241
38291,177691,36768,214239
38301,177688,36773,214254
38312,177693,36776,214265
38322,177684,36770,214255
38332,177675,36769,214253
38341,177684,36781,214273
38351,177676,36779,214242
38361,177684,36764,214264
38372,177678,36766,214261
38381,177692,36782,214271
38391,177649,36783,214253
38401,177683,36771,214257
38411,177681,36781,214270
38421,177675,36774,214257
38431,177689,36766,214240
38441,177672,36777,214252
38451,177687,36781,214259
38460,177684,36759,214230
38471,177692,36759,214238
38482,177674,36769,214209
38492,177674,36781,214251
38501,177688,36760,214254
38511,177671,36783,214270
38521,177674,36784,214247
38531,177672,36762,214256
38541,177684,36778,214263
38551,177676,36778,214257
38561,177651,36784,214252
38571,177665,36775,214224
38581,177673,36775,214252
38591,177681,36791,214240
38601,177679,36777,214206
38611,177668,36779,214239
38621,177668,36779,214229
38630,177681,36771,214235
38641,177669,36780,214252
38651,177677,36771,214241
38662,177690,36766,214261
38671,177673,36770,214261
38681,177669,36782,214261
38691,177679,36771,214281
38701,177671,36775,214261
38710,177671,36785,214259
38721,177669,36796,214263
38731,177661,36785,214240
38741,177681,36759,214270
38750,177692,36785,214261
38761,177696,36766,214241
38771,177670,36778,214264
38781,177689,36765,214245
38791,177666,36793,214272
38800,177678,36778,214256
38811,177679,36776,214268
38821,177669,36791,214268
38831,177682,36785,214266
38841,177696,36752,214267
38851,177679,36783,214258
38861,177683,36784,214254
38871,177698,36787,214249
38881,177658,36789,214254
38891,177682,36772,214267
38901,177683,36783,214272
38911,177678,36787,214279
38920,177693,36772,214259
38930,177676,36785,214257
38941,177672,36778,214274
38951,177668,36778,214276
38961,177684,36777,214264
38971,177675,36781,214258
38981,177664,36788,214252
38991,177685,36781,214253
39000,177677,36783,214239
39010,177670,36780,214244
39021,177681,36776,214256
39031,177664,36789,214253
39041,177690,36785,214247
39050,177669,36770,214247
39061,177667,36785,214249
39071,177677,36780,214265
39081,177668,36773,214236
39090,177662,36766,214250
39100,177662,36784,214242
39110,177678,36771,214243
39121,177686,36773,214271
39130,177664,36785,214232
39140,177693,36769,214250
39151,177689,36757,214245
39161,177683,36778,214243
39170,177670,36786,214247
39181,177680,36769,214237
39191,177673,36778,214258
39201,177656,36779,214236
39210,177665,36779,214241
39221,177660,36771,214257
39231,177667,36771,214248
39241,177644,36770,214273
39250,177667,36762,214261
39260,177661,36780,214259
39271,177634,36782,214270
39281,177654,36774,214262
39291,177683,36778,214246
39300,177672,36776,214260
39310,177665,36771,214258
39321,177670,36758,214263
39331,177676,36770,214232
39340,177645,36768,214244
39350,177660,36786,214264
39361,177656,36779,214231
39371,177653,36788,214246
39380,177663,36770,214259
39390,177666,36776,214253
39400,177665,36771,214264
39410,177656,36775,214263
39420,177645,36761,214254
39430,177655,36760,214254
39441,177648,36752,214223
39451,177662,36773,214236
39460,177640,36772,214230
39470,177664,36783,214226
39481,177634,36771,214238
39491,177651,36778,214247
39500,177669,36764,214247
39510,177642,36773,214226
39520,177641,36761,214244
39530,177670,36785,214242
39540,177654,36764,214246
39550,177654,36771,214235
39561,177653,36765,214241
39571,177661,36778,214226
39580,177633,36770,214247
39590,177657,36786,214238
39600,177660,36767,214220
39611,177642,36774,214228
39621,177623,36787,214246
39630,177636,36774,214251
39640,177640,36762,214239
39650,177639,36774,214242
39661,177633,36774,214241
39670,177635,36776,214229
39680,177630,36788,214240
39690,177620,36779,214243
39701,177641,36782,214225
39710,177647,36775,214242
39719,177647,36775,214244
39730,177645,36778,214220
39741,177663,36771,214218
39750,177664,36781,214221
39759,177651,36780,214223
39770,177643,36770,214228
39780,177645,36785,214221
39791,177645,36764,214217
39800,177635,36783,214214
39810,177634,36792,214236
39820,177642,36782,214212
39833,177630,36772,214230
39839,177634,36780,214222
39850,177624,36785,214217
39860,177631,36785,214214
39871,177628,36780,214211
39879,177644,36785,214196
39890,177660,36769,214227
39900,177643,36776,214227
39911,177630,36775,214234
39920,177629,36793,214225
39930,177637,36789,214203
39940,177631,36784,214215
39951,177636,36779,214224
39960,177648,36779,214211
39970,177623,36773,214197
39980,177642,36782,214182
39990,177638,36785,214223
40000,177628,36755,214191
40010,177638,36779,214179
40019,177610,36783,214193
40030,177638,36778,214191
40041,177641,36781,214177
40050,177624,36777,214192
40060,177604,36787,214192
40070,177603,36787,214217
40080,177636,36785,214207
40089,177602,36773,214218
40100,177635,36781,214196
40110,177631,36781,214200
40120,177636,36768,214210
40129,177631,36782,214190
40139,177621,36758,214187
40149,177624,36782,214197
40160,177626,36765,214191
40169,177640,36751,214194
40180,177634,36784,214187
40190,177641,36785,214195
40200,177606,36781,214199
40209,177628,36778,214191
40220,177633,36774,214196
40230,177630,36774,214184
40240,177612,36782,214193
40250,177634,36778,214196
40259,177627,36783,214198
40269,177616,36787,214158
40279,177631,36793,214191
40289,177629,36777,214199
40299,177624,36773,214176
40310,177618,36779,214189
40320,177603,36792,214180
40330,177611,36777,214183
40339,177628,36774,214151
40349,177621,36775,214174
40359,177623,36778,214199
40369,177631,36775,214162
40379,177610,36770,214193
40390,177612,36753,214192
40400,177614,36772,214176
40410,177618,36789,214205
40419,177608,36771,214181
40430,177616,36768,214200
40439,177622,36785,214192
40450,177613,36771,214196
40458,177611,36771,214175
40469,177614,36786,214179
40479,177611,36776,214175
40490,177601,36782,214193
40499,177628,36775,214178
40509,177610,36788,214202
40519,177615,36786,214195
40530,177597,36772,214199
40539,177607,36788,214202
40548,177613,36783,214214
40559,177630,36784,214217
40569,177628,36789,214203
40579,177616,36764,214203
40588,177624,36771,214206
40599,177615,36766,214215
40610,177623,36767,214214
40620,177627,36772,214226
40629,177617,36769,214218
40639,177604,36772,214217
40649,177622,36789,214201
40660,177618,36766,214217
40669,177619,36775,214225
40679,177627,36797,214200
40689,177606,36788,214198
40700,177620,36781,214202
40709,177586,36773,214221
40719,177618,36780,214224
40729,177617,36777,214205
40739,177623,36786,214229
40750,177634,36758,214234
40759,177616,36776,214201
40769,177620,36785,214186
40779,177605,36785,214230
40789,177635,36785,214217
40799,177623,36772,214226
40809,177623,36777,214231
40819,177640,36768,214199
40829,177620,36775,214217
40839,177622,36768,214220
40849,177643,36760,214228
40859,177621,36770,214237
40869,177632,36768,214239
40878,177636,36769,214247
40889,177634,36768,214220
40899,177650,36781,214222
40909,177647,36771,214250
40919,177616,36779,214247
40929,177623,36780,214245
40939,177632,36783,214268
40949,177626,36777,214253
40958,177623,36781,214230
40968,177618,36780,214252
40979,177627,36774,214249
40989,177643,36768,214252
40999,177628,36769,214236
41009,177650,36760,214247
41019,177652,36772,214229
41029,177648,36781,214258
41039,177637,36765,214248
41048,177633,36777,214266
41059,177646,36758,214260
41069,177643,36785,214234
41079,177644,36787,214236
41088,177645,36782,214238
41098,177624,36773,214240
41109,177630,36768,214260
41119,177642,36766,214235
41128,177653,36777,214216
41139,177623,36780,214240
41149,177641,36773,214246
41159,177637,36777,214237
41168,177642,36784,214254
41178,177636,36770,214283
41188,177641,36782,214238
41199,177633,36778,214263
41208,177653,36778,214277
41218,177645,36772,214259
41229,177646,36775,214243
41238,177648,36781,214284
41249,177651,36780,214269
41258,177649,36793,214255
41268,177664,36778,214249
41279,177635,36780,214245
41289,177660,36784,214262
41298,177656,36778,214263
41308,177647,36783,214243
41318,177652,36775,214252
41329,177654,36783,214248
41338,177641,36788,214244
41349,177651,36781,214255
41359,177662,36791,214234
41369,177634,36784,214267
41378,177653,36788,214270
41388,177645,36781,214262
41398,177657,36796,214278
41409,177627,36779,214291
41418,177659,36788,214266
41429,177639,36789,214269
41438,177649,36792,214249
41449,177639,36793,214281
41458,177662,36787,214258
41468,177652,36778,214259
41478,177651,36778,214280
41488,177638,36785,214253
41499,177658,36799,214262
41508,177664,36800,214241
41518,177651,36795,214263
41528,177666,36796,214267
41538,177664,36775,214271
41547,177665,36792,214275
41558,177674,36778,214272
41568,177663,36792,214258
41578,177672,36787,214276
41587,177661,36802,214263
41598,177639,36799,214258
41609,177645,36790,214257
41618,177667,36789,214229
41628,177644,36797,214273
41638,177659,36791,214241
41648,177661,36785,214263
41659,177664,36792,214256
41668,177662,36785,214248
41678,177667,36780,214264
41688,177644,36787,214265
41698,177664,36792,214276
41708,177653,36790,214272
41718,177657,36789,214289
41728,177662,36766,214268
41738,177665,36796,214272
41748,177658,36769,214265
41758,177658,36789,214252
41768,177674,36787,214262
41778,177660,36783,214264
41789,177665,36755,214249
41798,177654,36792,214271
41808,177653,36780,214240
41818,177647,36790,214260
41828,177639,36784,214250
41838,177664,36794,214253
41848,177635,36788,214265
41858,177661,36787,214264
41868,177655,36789,214255
41877,177657,36766,214269
41887,177658,36787,214270
41898,177668,36766,214250
41909,177643,36784,214271
41918,177661,36785,214247
41928,177647,36794,214239
41938,177648,36785,214253
41948,177660,36771,214246
41958,177658,36795,214267
41967,177650,36778,214261
41978,177660,36764,214259
41988,177650,36781,214277
41998,177658,36769,214273
42007,177661,36788,214272
42018,177672,36796,214263
42028,177663,36786,214251
42038,177638,36789,214273
42048,177647,36790,214266
42058,177667,36776,214263
42068,177675,36780,214268
42078,177664,36779,214258
42087,177657,36791,214249
42097,177665,36787,214286
42107,177656,36788,214265
42118,177661,36788,214287
42127,177656,36801,214282
42137,177654,36791,214251
42148,177659,36793,214278
42157,177669,36791,214283
42167,177676,36798,214255
42177,177655,36803,214280
42188,177669,36802,214273
42198,177641,36788,214278
42208,177642,36806,214261
42217,177656,36808,214260
42227,177655,36796,214269
42238,177651,36798,214237
42248,177663,36780,214281
42257,177662,36794,214257
42267,177671,36798,214231
42277,177638,36788,214273
42288,177642,36794,214267
42297,177674,36799,214262
42308,177649,36803,214266
42318,177663,36799,214247
42328,177656,36798,214278
42337,177670,36789,214260
42347,177658,36792,214274
42358,177671,36801,214283
42368,177645,36808,214258
42377,177665,36798,214262
42387,177648,36792,214259
42397,177680,36789,214262
42408,177642,36780,214272
42417,177656,36792,214252
42427,177675,36800,214273
42437,177665,36785,214248
42448,177680,36787,214249
42458,177655,36779,214257
42467,177671,36795,214265
42478,177658,36778,214245
42488,177663,36788,214237
42498,177651,36766,214263
42507,177651,36798,214259
42517,177648,36786,214261
42527,177648,36793,214264
42537,177669,36784,214270
42547,177661,36789,214249
42558,177664,36802,214285
42568,177673,36791,214254
42578,177644,36791,214252
42587,177646,36778,214267
42597,177654,36790,214252
42607,177645,36785,214232
42618,177641,36796,214239
42627,177629,36772,214256
42637,177678,36794,214250
42647,177653,36780,214266
42657,177659,36787,214279
42666,177663,36785,214251
42677,177650,36784,214256
42687,177650,36787,214269
42697,177668,36774,214260
42708,177661,36783,214253
42717,177655,36780,214239
42727,177652,36790,214232
42737,177652,36786,214255
42748,177640,36785,214234
42757,177656,36795,214263
42767,177663,36782,214246
42777,177636,36790,214254
42787,177644,36770,214265
42797,177650,36788,214269
42807,177647,36798,214269
42817,177656,36784,214270
42828,177638,36786,214269
42836,177655,36795,214258
42847,177637,36788,214268
42857,177660,36780,214252
42867,177641,36790,214265
42876,177661,36779,214261
42887,177663,36759,214261
42897,177658,36778,214258
42907,177667,36766,214275
42917,177657,36788,214242
42927,177657,36777,214272
42937,177666,36776,214266
42947,177667,36777,214277
42957,177649,36777,214259
42966,177651,36783,214256
42977,177656,36796,214272
42987,177655,36788,214258
42997,177653,36769,214269
43007,177641,36788,214272
43016,177654,36785,214246
43027,177664,36791,214279
43037,177669,36791,214271
43047,177667,36783,214260
43057,177665,36796,214277
43067,177661,36798,214255
43077,177666,36783,214278
43087,177656,36786,214286
43096,177658,36785,214273
43107,177656,36790,214270
43117,177652,36799,214266
43127,177673,36780,214252
43136,177649,36797,214265
43147,177669,36774,214275
43157,177670,36784,214265
43166,177659,36788,214263
43177,177656,36774,214245
43187,177673,36781,214291
43197,177666,36779,214267
43207,177662,36782,214254
43216,177658,36792,214281
43227,177634,36788,214270
43237,177648,36798,214255
43247,177673,36789,214232
43256,177642,36804,214261
43266,177663,36775,214275
43277,177656,36788,214230
43287,177652,36785,214266
43296,177661,36790,214283
43307,177630,36781,214267
43317,177661,36775,214260
43327,177645,36786,214251
43336,177623,36782,214273
43346,177653,36788,214248
43357,177639,36784,214277
43367,177654,36774,214277
43376,177632,36780,214271
43386,177632,36776,214238
43397,177629,36780,214259
43407,177653,36787,214270
43416,177643,36778,214267
43426,177652,36775,214238
43437,177615,36794,214252
43447,177655,36774,214261
43457,177649,36775,214247
43466,177645,36776,214254
43476,177651,36774,214258
43486,177628,36780,214236
43496,177631,36779,214241
43506,177630,36771,214236
43516,177644,36780,214257
43527,177632,36772,214236
43537,177654,36771,214220
43546,177648,36781,214241
43556,177665,36761,214256
43566,177618,36776,214247
43577,177645,36765,214238
43586,177635,36776,214239
43596,177644,36789,214224
43606,177645,36757,214237
43617,177641,36769,214233
43626,177637,36761,214230
43636,177632,36765,214215
43646,177624,36765,214235
43657,177627,36780,214238
43666,177647,36773,214249
43676,177638,36762,214222
43686,177617,36784,214245
43697,177631,36770,214212
43707,177604,36789,214220
43716,177637,36785,214228
43726,177636,36784,214238
43736,177624,36778,214243
43746,177641,36780,214238
43755,177640,36759,214242
43766,177621,36770,214250
43776,177633,36785,214236
43787,177642,36763,214233
43796,177634,36787,214242
43806,177646,36765,214224
43816,177633,36770,214233
43826,177614,36773,214246
43836,177631,36765,214235
43846,177638,36787,214222
43856,177624,36777,214229
43866,177580,36762,214240
43875,177619,36787,214209
43886,177618,36754,214217
43896,177625,36774,214203
43906,177612,36787,214205
43916,177606,36788,214208
43926,177610,36780,214220
43936,177627,36788,214191
43946,177604,36793,214211
43957,177631,36766,214200
43966,177630,36783,214223
43976,177602,36792,214210
43986,177631,36785,214217
43996,177622,36780,214212
44005,177636,36780,214226
44016,177632,36778,214209
44026,177610,36789,214205
44036,177617,36776,214218
44046,177628,36760,214187
44056,177605,36768,214174
44066,177611,36771,214204
44076,177615,36780,214208
44086,177634,36779,214177
44095,177632,36774,214175
44106,177630,36767,214191
44116,177619,36761,214192
44126,177622,36762,214201
44135,177591,36760,214172
44146,177621,36752,214199
44156,177618,36765,214170
44166,177636,36779,214182
44175,177616,36777,214186
44186,177641,36769,214195
44196,177604,36769,214170
44207,177634,36777,214174
44216,177599,36772,214178
44226,177616,36769,214171
44236,177595,36774,214186
44246,177604,36769,214178
44255,177620,36779,214172
44265,177621,36782,214203
44276,177615,36783,214186
44286,177601,36761,214171
44295,177597,36778,214186
44305,177600,36773,214173
44315,177608,36779,214192
44325,177585,36772,214162
44335,177606,36751,214177
44345,177621,36765,214172
44356,177609,36753,214172
44366,177601,36775,214166
44375,177610,36766,214182
44385,177579,36766,214159
44396,177590,36770,214162
44406,177582,36765,214152
44416,177608,36758,214169
44425,177615,36782,214171
44436,177608,36777,214157
44446,177628,36772,214180
44456,177592,36767,214170
44465,177612,36770,214181
44475,177599,36791,214192
44486,177593,36767,214156
44496,177614,36770,214149
44505,177586,36776,214175
44516,177604,36773,214174
44526,177572,36775,214163
44536,177597,36775,214195
44545,177608,36767,214182
44555,177614,36766,214169
44565,177625,36777,214187
44576,177607,36753,214177
44585,177608,36763,214190
44595,177609,36775,214186
44605,177595,36765,214207
44615,177631,36755,214199
44625,177597,36754,214195
44635,177616,36773,214162
44646,177589,36759,214190
44656,177597,36794,214185
44666,177618,36775,214174
44675,177597,36782,214196
44685,177610,36781,214202
44696,177601,36777,214175
44706,177603,36769,214196
44715,177613,36790,214200
44725,177605,36777,214208
44735,177625,36758,214217
44745,177620,36766,214220
44755,177605,36774,214197
44765,177612,36781,214243
44775,177607,36777,214199
44786,177632,36772,214204
44795,177605,36770,214204
44805,177606,36775,214198
44815,177607,36784,214201
44825,177613,36780,214202
44834,177593,36780,214200
44844,177636,36772,214235
44855,177630,36748,214186
44865,177629,36794,214226
44875,177635,36753,214195
44885,177627,36757,214196
44895,177617,36773,214186
44905,177587,36776,214189
44916,177617,36773,214212
44925,177629,36790,214193
44935,177621,36772,214222
44945,177628,36764,214225
44955,177618,36764,214216
44964,177614,36765,214204
44975,177598,36760,214240
44985,177625,36764,214222
44995,177651,36756,214217
45005,177618,36761,214193
45015,177614,36769,214194
45025,177598,36767,214223
45035,177613,36768,214228
45045,177632,36761,214210
45054,177629,36769,214226
45065,177626,36747,214224
45075,177625,36770,214229
45085,177625,36770,214221
45095,177624,36766,214237
45105,177627,36774,214220
45115,177625,36777,214213
45125,177615,36770,214185
45134,177631,36767,214231
45145,177637,36756,214243
45155,177624,36766,214211
45166,177625,36758,214220
45174,177637,36757,214191
45185,177626,36768,214235
45195,177627,36768,214212
45206,177604,36763,214217
45214,177635,36755,214220
45225,177616,36778,214223
45235,177638,36770,214236
45246,177611,36745,214244
45255,177633,36764,214232
45265,177622,36770,214230
45275,177632,36767,214236
45285,177613,36767,214265
45295,177625,36758,214242
45305,177635,36774,214220
45315,177627,36781,214224
45325,177630,36767,214220
45334,177645,36773,214243
45344,177647,36770,214244
45355,177643,36783,214242
45365,177652,36770,214246
45375,177640,36771,214236
45384,177641,36765,214249
45395,177631,36762,214240
45405,177649,36779,214248
45415,177634,36775,214255
45424,177642,36780,214242
45435,177652,36766,214273
45445,177651,36791,214256
45455,177642,36786,214268
45464,177629,36781,214206
45474,177625,36777,214260
45485,177650,36765,214251
45495,177662,36778,214246
45504,177639,36778,214257
45515,177630,36780,214251
45525,177659,36785,214284
45535,177645,36787,214249
45544,177655,36769,214267
45554,177656,36770,214257
45564,177667,36782,214278
45575,177651,36776,214266
45584,177650,36787,214277
45594,177649,36779,214257
45604,177660,36772,214273
45614,177644,36772,214246
45625,177666,36760,214214
45634,177649,36776,214231
45645,177655,36778,214249
45655,177665,36780,214240
45665,177658,36769,214259
45674,177639,36782,214242
45684,177660,36779,214253
45694,177662,36780,214221
45704,177637,36772,214261
45714,177638,36767,214247
45724,177654,36777,214224
45734,177660,36769,214260
45745,177651,36756,214272
45754,177659,36776,214236
45764,177651,36757,214271
45775,177668,36775,214260
45785,177650,36773,214257
45794,177658,36786,214272
45804,177659,36775,214276
45814,177676,36773,214266
45824,177667,36765,214264
45834,177652,36764,214250
45844,177683,36789,214251
45854,177671,36760,214271
45864,177657,36789,214236
45874,177652,36754,214273
45884,177660,36744,214254
45894,177669,36771,214249
45904,177652,36762,214261
45915,177658,36779,214261
45924,177659,36789,214240
45934,177665,36789,214241
45944,177659,36777,214254
45954,177662,36761,214262
45964,177666,36782,214252
45974,177663,36757,214247
45985,177632,36752,214229
45995,177680,36773,214260
46004,177659,36773,214249
46014,177663,36781,214265
46024,177668,36764,214246
46034,177669,36777,214256
46043,177627,36780,214291
46054,177660,36766,214271
46064,177664,36788,214275
46074,177655,36769,214273
46083,177661,36794,214262
46093,177669,36747,214256
46104,177653,36763,214231
46114,177666,36777,214237
46125,177666,36768,214277
46134,177654,36770,214254
46144,177670,36779,214272
46154,177664,36783,214257
46164,177661,36795,214289
46173,177674,36778,214281
46184,177679,36744,214255
46194,177660,36778,214253
46205,177676,36757,214281
46213,177658,36769,214249
46224,177658,36760,214279
46234,177677,36766,214262
46245,177650,36761,214290
46253,177669,36784,214267
46264,177649,36773,214274
46274,177667,36777,214270
46285,177669,36770,214276
46294,177674,36781,214276
46304,177673,36787,214275
46314,177680,36790,214277
46324,177696,36791,214268
46334,177677,36766,214281
46344,177662,36765,214280
46354,177677,36771,214266
46364,177691,36796,214298
46374,177674,36772,214278
46395,177683,36782,214284
46404,177682,36767,214275
46414,177691,36783,214277
46423,177680,36773,214267
46433,177677,36763,214252
46444,177680,36790,214243
46454,177677,36789,214261
46463,177674,36796,214241
46474,177660,36776,214259
46484,177676,36787,214258
46494,177672,36787,214259
46503,177674,36768,214239
46514,177678,36773,214263
46524,177669,36769,214268
46534,177680,36784,214262
46543,177683,36782,214279
46553,177689,36775,214274
46563,177670,36782,214282
46573,177677,36757,214259
46583,177676,36794,214267
46594,177673,36781,214266
46604,177675,36771,214289
46614,177666,36774,214266
46624,177694,36772,214258
46634,177669,36763,214267
46644,177675,36771,214246
46654,177681,36773,214253
46664,177670,36775,214259
46673,177682,36768,214243
46683,177676,36788,214265
46693,177664,36766,214265
46703,177676,36764,214261
46714,177673,36762,214250
46724,177674,36773,214273
46733,177678,36773,214253
46744,177632,36785,214265
46753,177675,36772,214255
46763,177679,36758,214260
46774,177680,36776,214265
46784,177666,36789,214263
46793,177665,36758,214264
46803,177669,36775,214272
46813,177662,36762,214257
46823,177672,36764,214252
46833,177688,36744,214249
46843,177677,36772,214256
46854,177679,36769,214257
46864,177687,36778,214270
46874,177674,36762,214244
46883,177669,36785,214260
46894,177679,36762,214246
46904,177676,36763,214254
46914,177669,36781,214274
46923,177671,36786,214263
46933,177661,36781,214263
46943,177671,36780,214248
46953,177662,36778,214273
46963,177681,36758,214265
46973,177667,36768,214218
46983,177654,36788,214261
46994,177661,36776,214267
47003,177668,36782,214263
47013,177670,36779,214265
47023,177686,36799,214262
47033,177693,36781,214253
47042,177678,36806,214262
47053,177682,36760,214262
47063,177685,36774,214252
47074,177685,36788,214253
47083,177668,36760,214255
47093,177688,36789,214274
47103,177680,36759,214261
47113,177670,36775,214258
47123,177682,36771,214269
47132,177679,36770,214263
47143,177667,36775,214250
47154,177689,36784,214248
47164,177660,36776,214256
47173,177680,36776,214258
47183,177684,36772,214255
47193,177683,36768,214266
47203,177665,36774,214252
47212,177687,36779,214300
47223,177688,36808,214269
47233,177674,36782,214268
47243,177679,36784,214259
47253,177690,36782,214275
47263,177683,36781,214279
47273,177690,36774,214259
47283,177692,36765,214272
47293,177693,36758,214273
47303,177675,36778,214257
47313,177672,36776,214248
47323,177682,36779,214272
47333,177665,36781,214256
47342,177696,36775,214242
47353,177698,36761,214259
47363,177687,36771,214265
47374,177688,36771,214242
47383,177684,36791,214247
47393,177690,36763,214253
47403,177691,36779,214268
47414,177670,36774,214259
47422,177672,36783,214261
47433,177669,36779,214259
47443,177682,36785,214258
47453,177674,36781,214268
47462,177677,36762,214245
47472,177685,36778,214253
47483,177684,36767,214256
47494,177656,36777,214253
47503,177670,36769,214245
47513,177671,36787,214244
47523,177665,36777,214238
47533,177663,36767,214227
47542,177660,36753,214249
47553,177675,36783,214255
47563,177680,36771,214239
47573,177646,36770,214251
47583,177685,36773,214269
47592,177673,36776,214259
47603,177686,36767,214247
47613,177677,36783,214248
47623,177657,36771,214242
47633,177667,36757,214232
47643,177645,36768,214219
47653,177667,36754,214224
47663,177668,36767,214234
47672,177625,36797,214232
47682,177658,36790,214207
47692,177674,36786,214223
47702,177666,36773,214236
47713,177655,36759,214242
47723,177651,36790,214234
47733,177654,36771,214223
47743,177646,36769,214232
47752,177666,36757,214231
47762,177653,36767,214237
47772,177645,36771,214211
47783,177659,36752,214218
47792,177665,36773,214221
47802,177659,36762,214237
47812,177660,36777,214216
47822,177632,36774,214244
47833,177666,36771,214216
47842,177656,36783,214219
47853,177667,36781,214236
47863,177653,36766,214213
47873,177645,36785,214212
47882,177664,36773,214213
47892,177664,36778,214233
47903,177686,36762,214218
47913,177663,36779,214215
47922,177641,36790,214223
47932,177636,36775,214226
47942,177653,36783,214233
47952,177650,36775,214224
47961,177643,36772,214236
47972,177663,36767,214211
47983,177667,36779,214219
47993,177658,36784,214186
48002,177637,36785,214226
48012,177620,36778,214225
48022,177657,36797,214228
48032,177662,36782,214218
48042,177658,36776,214220
48052,177655,36781,214217
48062,177661,36759,214219
48072,177654,36782,214225
48082,177662,36790,214225
48092,177631,36774,214227
48102,177661,36776,214216
48112,177635,36785,214241
48123,177649,36792,214223
48132,177658,36791,214208
48142,177649,36781,214235
48152,177657,36783,214215
48163,177653,36767,214221
48172,177643,36788,214193
48182,177639,36790,214213
48192,177626,36791,214194
48202,177651,36787,214200
48212,177659,36784,214203
48222,177647,36788,214200
48232,177650,36780,214194
48242,177657,36777,214196
48251,177662,36783,214199
48261,177657,36788,214197
48272,177651,36782,214173
48282,177644,36777,214205
48291,177665,36782,214211
48302,177638,36795,214196
48313,177648,36789,214202
48323,177644,36788,214208
48333,177655,36778,214163
48341,177663,36768,214193
48353,177652,36776,214188
48362,177651,36795,214197
48373,177659,36754,214193
48382,177650,36783,214192
48392,177620,36787,214197
48402,177648,36776,214204
48412,177637,36786,214163
48421,177652,36780,214206
48434,177647,36785,214208
48442,177651,36783,214211
48452,177646,36785,214204
48462,177647,36771,214205
48472,177636,36781,214195
48482,177646,36790,214210
48492,177629,36786,214188
48501,177646,36803,214205
48512,177629,36781,214188
48522,177656,36789,214164
48532,177637,36799,214198
48541,177633,36784,214201
48551,177641,36788,214175
48561,177658,36766,214179
48572,177645,36787,214187
48582,177644,36789,214212
48591,177645,36785,214199
48602,177637,36790,214183
48612,177638,36788,214199
48622,177648,36762,214194
48632,177629,36786,214196
48642,177646,36786,214172
48652,177644,36788,214198
48662,177653,36794,214198
48671,177656,36791,214188
48681,177650,36780,214208
48692,177654,36770,214202
48702,177652,36791,214196
48711,177648,36775,214210
48722,177640,36794,214193
48731,177664,36793,214214
48742,177644,36780,214228
48752,177632,36807,214217
48762,177648,36795,214199
48772,177634,36781,214225
48782,177645,36778,214232
48793,177638,36791,214232
48802,177643,36795,214232
48812,177644,36799,214227
48822,177656,36786,214229
48832,177636,36800,214208
48841,177656,36796,214200
48851,177652,36806,214194
48861,177660,36770,214214
48872,177669,36791,214222
48881,177665,36793,214224
48891,177649,36800,214244
48902,177637,36782,214229
48912,177652,36794,214241
48921,177651,36798,214235
48932,177655,36784,214223
48942,177648,36800,214232
48952,177660,36804,214220
48961,177665,36788,214244
48971,177654,36804,214231
48981,177656,36798,214258
48992,177650,36796,214244
49001,177643,36813,214233
49011,177668,36802,214260
49021,177662,36795,214236
49031,177662,36801,214236
49041,177674,36801,214248
49051,177663,36806,214225
49061,177650,36800,214247
49072,177661,36802,214239
49082,177680,36799,214236
49091,177668,36797,214235
49101,177674,36797,214245
49111,177670,36777,214233
49122,177681,36807,214258
49131,177667,36801,214243
49141,177682,36791,214260
49151,177685,36795,214263
49161,177697,36784,214250
49170,177687,36808,214268
49181,177682,36783,214261
49191,177660,36806,214286
49201,177685,36801,214261
49211,177677,36787,214254
49221,177689,36795,214257
49231,177677,36803,214243
49242,177679,36811,214252
49251,177677,36804,214256
49261,177677,36801,214244
49271,177707,36792,214264
49281,177691,36802,214284
49291,177696,36808,214256
49301,177689,36815,214295
49311,177673,36809,214280
49321,177683,36804,214254
49332,177670,36812,214270
49341,177683,36799,214274
49351,177668,36798,214269
49361,177697,36812,214273
49371,177680,36788,214263
49381,177690,36811,214269
49391,177702,36788,214253
49401,177707,36812,214274
49411,177690,36802,214255
49420,177673,36794,214273
49430,177681,36803,214266
49441,177699,36809,214269
49451,177697,36802,214261
49460,177712,36790,214267
49471,177698,36797,214253
49481,177705,36802,214279
49491,177674,36814,214280
49501,177707,36806,214283
49511,177681,36802,214257
49521,177704,36810,214281
49531,177704,36806,214250
49541,177703,36822,214273
49550,177692,36811,214266
49561,177688,36822,214265
49571,177702,36820,214255
49581,177697,36816,214283
49591,177670,36824,214283
49600,177714,36820,214245
49611,177690,36812,214278
49621,177700,36820,214276
49631,177685,36816,214288
49641,177704,36808,214242
49651,177703,36831,214294
49661,177719,36826,214280
49671,177709,36816,214280
49681,177722,36817,214280
49691,177695,36817,214270
49701,177711,36822,214272
49710,177723,36809,214288
49721,177712,36815,214258
49731,177716,36811,214275
49741,177710,36799,214280
49750,177685,36822,214273
49760,177711,36809,214270
49770,177718,36820,214262
49780,177716,36811,214270
49791,177705,36814,214269
49801,177723,36828,214273
49811,177706,36828,214275
49821,177715,36825,214270
49831,177700,36829,214283
49840,177719,36822,214252
49850,177712,36841,214271
49861,177724,36829,214273
49871,177726,36822,214273
49880,177719,36810,214269
49890,177693,36825,214266
49901,177719,36829,214250
49911,177714,36833,214254
49920,177717,36810,214249
49930,177713,36823,214249
49941,177709,36822,214257
49951,177724,36825,214243
49960,177711,36801,214273
49970,177714,36822,214245
49981,177715,36802,214262
49991,177706,36818,214273
50000,177717,36828,214261
50010,177707,36827,214240
50021,177692,36825,214257
50031,177702,36818,214278
50041,177709,36824,214248
50050,177694,36817,214261
50061,177683,36832,214261
50071,177664,36826,214254
50081,177687,36823,214258
50090,177708,36811,214278
50101,177686,36816,214258
50111,177714,36832,214254
50121,177682,36826,214259
50130,177694,36823,214260
50140,177701,36822,214265
50151,177711,36822,214270
50161,177693,36816,214277
50170,177673,36827,214270
50180,177691,36832,214266
50190,177690,36815,214266
50200,177701,36822,214267
50210,177690,36812,214260
50220,177689,36817,214245
50230,177686,36808,214244
50240,177669,36821,214256
50250,177699,36819,214231
50260,177673,36818,214253
50271,177692,36835,214261
50280,177715,36825,214249
50291,177691,36808,214278
50299,177680,36832,214275
50310,177687,36811,214265
50320,177682,36823,214245
50333,177679,36820,214264
50340,177684,36826,214275
50350,177702,36827,214249
50360,177696,36799,214255
50371,177698,36822,214259
50380,177691,36829,214266
50390,177703,36826,214268
50400,177703,36816,214258
50411,177696,36817,214259
50420,177689,36843,214270
50430,177680,36829,214257
50440,177678,36825,214259
50450,177694,36835,214251
50459,177693,36845,214253
50469,177685,36834,214263
50480,177694,36837,214272
50491,177696,36836,214283
50500,177696,36831,214254
50510,177702,36820,214257
50520,177681,36828,214270
50530,177701,36837,214273
50541,177694,36832,214256
50550,177662,36838,214252
50560,177688,36838,214251
50570,177697,36835,214241
50580,177695,36809,214262
50589,177686,36839,214271
50599,177702,36835,214229
50610,177710,36806,214258
50621,177710,36835,214276
50630,177700,36834,214249
50640,177692,36829,214271
50650,177688,36832,214262
50660,177680,36838,214255
50669,177698,36826,214246
50679,177709,36817,214238
50690,177684,36838,214269
50701,177694,36830,214264
50710,177705,36837,214252
50720,177653,36843,214274
50730,177702,36829,214228
50740,177694,36833,214257
50750,177708,36829,214267
50759,177704,36836,214264
50769,177688,36838,214237
50780,177690,36831,214256
50791,177696,36833,214258
50799,177699,36820,214246
50810,177703,36819,214254
50819,177686,36830,214254
50830,177708,36816,214246
50839,177692,36832,214252
50850,177709,36821,214259
50859,177687,36836,214273
50870,177705,36812,214248
50879,177692,36823,214260
50890,177683,36809,214266
50899,177684,36835,214237
50910,177694,36827,214277
50919,177682,36839,214245
50929,177689,36832,214268
50940,177702,36821,214265
50950,177673,36829,214289
50959,177689,36838,214270
50969,177670,36845,214276
50980,177683,36828,214256
50990,177697,36802,214274
51000,177699,36839,214263
51009,177682,36826,214260
51019,177674,36830,214285
51030,177705,36821,214282
51040,177695,36824,214268
51050,177683,36819,214270
51060,177697,36839,214265
51070,177687,36824,214273
51080,177674,36828,214280
51089,177670,36832,214270
51099,177703,36831,214268
51109,177687,36813,214279
51120,177695,36824,214260
51129,177694,36835,214270
51140,177684,36808,214273
51150,177681,36816,214268
51160,177667,36836,214266
51169,177672,36825,214253
51179,177679,36824,214273
51189,177664,36829,214277
51200,177670,36837,214272
51209,177684,36843,214285
51219,177669,36840,214279
51230,177676,36840,214285
51240,177698,36840,214263
51250,177683,36841,214280
51259,177676,36825,214264
51269,177677,36834,214280
51280,177692,36828,214259
51290,177675,36818,214272
51299,177676,36830,214275
51309,177681,36826,214272
51319,177691,36828,214247
51329,177670,36837,214276
51339,177692,36829,214264
51349,177658,36829,214272
51359,177683,36831,214268
51370,177677,36837,214264
51378,177681,36831,214257
51389,177684,36834,214265
51399,177682,36829,214250
51410,177681,36827,214262
51419,177698,36834,214269
51429,177654,36847,214232
51439,177665,36833,214248
51449,177664,36836,214256
51459,177667,36841,214259
51469,177678,36840,214263
51479,177663,36825,214247
51489,177660,36836,214256
51499,177668,36828,214256
51508,177683,36839,214252
51519,177681,36828,214242
51529,177675,36836,214267
51539,177668,36841,214238
51549,177668,36830,214243
51559,177668,36838,214239
51570,177666,36840,214253
51580,177661,36834,214215
51589,177665,36843,214254
51599,177650,36831,214267
51609,177674,36843,214247
51619,177671,36836,214239
51629,177668,36846,214218
51639,177672,36836,214217
51649,177671,36845,214227
51660,177642,36859,214230
51669,177673,36847,214205
51679,177642,36847,214215
51689,177655,36825,214228
51699,177656,36840,214193
51708,177676,36843,214209
51718,177661,36835,214209
51728,177656,36843,214200
51739,177665,36828,214204
51750,177669,36825,214218
51759,177644,36829,214222
51769,177652,36838,214230
51779,177649,36826,214211
51789,177638,36818,214214
51798,177649,36825,214212
51808,177665,36846,214205
51819,177656,36837,214224
51829,177662,36839,214204
51838,177640,36831,214215
51849,177648,36832,214198
51859,177654,36836,214181
51869,177630,36840,214185
51879,177642,36827,214221
51889,177646,36839,214204
51899,177640,36832,214212
51909,177638,36829,214222
51918,177645,36848,214208
51929,177626,36841,214221
51938,177633,36834,214207
51948,177640,36830,214204
51958,177650,36833,214193
51969,177652,36831,214216
51979,177642,36820,214190
51989,177640,36820,214186
51999,177651,36841,214202
52008,177632,36834,214190
52018,177629,36819,214184
52028,177631,36828,214182
52039,177629,36815,214193
52048,177612,36828,214178
52058,177629,36815,214196
52068,177610,36830,214184
52079,177622,36834,214198
52088,177621,36815,214203
52099,177621,36830,214189
52109,177629,36845,214183
52119,177636,36827,214184
52128,177632,36827,214190
52138,177640,36828,214187
52149,177640,36812,214185
52159,177622,36831,214166
52168,177619,36834,214196
52179,177616,36838,214205
52189,177617,36830,214190
52199,177622,36836,214216
52208,177620,36818,214211
52218,177624,36830,214188
52228,177636,36821,214179
52239,177622,36830,214205
52249,177629,36828,214197
52258,177632,36847,214209
52268,177617,36827,214197
52278,177626,36817,214196
52289,177615,36822,214203
52298,177628,36828,214179
52309,177630,36823,214212
52319,177613,36834,214187
52329,177633,36824,214227
52338,177628,36826,214224
52348,177635,36836,214201
52359,177611,36844,214224
52369,177608,36845,214222
52378,177631,36830,214225
52388,177614,36835,214234
52398,177612,36841,214219
52408,177648,36840,214217
52417,177626,36846,214233
52428,177652,36828,214237
52438,177643,36836,214216
52449,177640,36830,214224
52458,177645,36839,214202
52468,177642,36823,214238
52479,177619,36829,214198
52489,177634,36827,214211
52499,177608,36838,214222
52508,177633,36845,214214
52518,177646,36829,214212
52528,177648,36845,214204
52539,177641,36813,214214
52548,177614,36826,214211
52558,177625,36831,214215
52568,177642,36832,214241
52578,177639,36832,214229
52587,177639,36825,214209
52598,177631,36823,214226
52608,177627,36831,214203
52618,177637,36838,214228
52628,177619,36824,214251
52638,177619,36836,214224
52648,177644,36820,214236
52659,177619,36834,214227
52668,177629,36835,214232
52678,177639,36826,214222
52688,177627,36816,214223
52698,177638,36821,214213
52708,177632,36821,214222
52718,177628,36825,214243
52728,177638,36829,214245
52738,177616,36830,214248
52749,177651,36832,214247
52757,177641,36825,214244
52768,177640,36816,214228
52778,177643,36824,214249
52788,177651,36826,214232
