timestamp,red,green,ir
4111,156427,38691,190624
4126,156366,38693,190611
4130,156364,38682,190578
4140,156324,38674,190597
4168,156275,38676,190490
4171,156249,38686,190469
4180,156221,38671,190409
4208,156182,38661,190409
4316,156104,38657,190256
4318,156131,38666,190250
4327,156125,38676,190256
4331,156193,38657,190231
4340,156144,38663,190250
4350,156145,38660,190247
4360,156137,38663,190199
4371,156185,38664,190239
4380,156193,38668,190255
4390,156210,38675,190260
4400,156270,38695,190255
4411,156294,38698,190297
4420,156335,38688,190322
4430,156366,38686,190364
4535,156435,38648,190381
4537,156405,38634,190365
4541,156391,38640,190349
4549,156365,38643,190270
4568,156357,38625,190271
4570,156329,38612,190272
4580,156301,38654,190250
4590,156284,38591,190239
4600,156285,38575,190231
4610,156275,38571,190214
4620,156306,38576,190214
4629,156315,38568,190227
4639,156303,38576,190232
4650,156319,38549,190210
4660,156347,38565,190256
4669,156361,38549,190243
4680,156397,38545,190264
4690,156430,38563,190290
4730,156514,38548,190351
4732,156525,38551,190339
4748,156505,38570,190346
4792,156300,38541,190176
4799,156221,38537,190115
4809,156181,38525,190084
4820,156075,38533,190016
4830,156083,38540,189983
4839,156048,38538,189952
4849,156006,38515,189914
4859,155981,38514,189875
4913,156038,38518,189903
4919,156056,38512,189899
4929,156106,38528,189914
4969,156202,38529,189998
4971,156223,38540,190002
4979,156226,38530,189992
5033,156349,38559,190097
5039,156385,38564,190105
5049,156370,38568,190108
5068,156376,38560,190116
5113,156352,38569,190104
5120,156313,38571,190072
5129,156282,38570,190045
5147,156233,38571,190017
5149,156211,38572,189990
5159,156164,38604,189942
5168,156148,38588,189894
5179,156090,38562,189895
5190,156077,38588,189863
5200,156054,38583,189842
5209,156028,38575,189824
5219,156051,38578,189807
5230,156037,38580,189823
5240,156053,38583,189803
5250,156048,38581,189780
5267,156029,38581,189795
5269,156041,38579,189768
5279,156046,38597,189804
5289,156052,38582,189790
5308,156060,38584,189789
5311,156071,38591,189801
5320,156066,38570,189773
5330,156049,38559,189750
5339,156061,38548,189789
5349,156038,38559,189750
5367,156018,38536,189735
5370,155979,38538,189717
5410,155846,38503,189612
5412,155783,38486,189559
5418,155719,38451,189494
5429,155646,38462,189442
5448,155570,38468,189402
5450,155537,38456,189343
5458,155468,38415,189270
5469,155399,38416,189216
5479,155330,38414,189187
5489,155280,38418,189083
5499,155208,38403,189031
5508,155125,38401,188978
5518,155092,38386,188930
5530,155038,38371,188864
5540,155005,38384,188800
5548,154951,38376,188767
5567,154924,38345,188728
5570,154906,38348,188705
5587,154868,38358,188658
5653,154793,38327,188576
5668,154744,38317,188524
5712,154669,38310,188444
5798,154603,38304,188339
5808,154604,38307,188322
5819,154601,38300,188319
5830,154586,38311,188291
5839,154551,38293,188262
5849,154553,38318,188261
5870,154505,38315,188238
5879,154487,38281,188196
5888,154459,38313,188182
5899,154431,38298,188163
5909,154439,38306,188117
5918,154394,38307,188106
5929,154393,38316,188105
5939,154388,38316,188074
5949,154363,38307,188080
5958,154361,38283,188071
5968,154336,38306,188044
5979,154331,38292,188016
5989,154316,38315,188016
6007,154318,38309,187983
6009,154301,38307,187984
6028,154304,38289,187976
6135,154262,38316,187915
6215,154224,38285,187877
6250,154219,38266,187848
6251,154190,38248,187830
6258,154193,38247,187821
6268,154164,38219,187798
6278,154173,38238,187773
6289,154153,38226,187779
6298,154142,38213,187757
6309,154117,38204,187750
6349,154122,38188,187717
6352,154117,38176,187728
6358,154099,38179,187714
6369,154086,38174,187705
6378,154113,38170,187666
6388,154098,38174,187682
6398,154106,38175,187666
6430,154081,38156,187663
6492,154078,38165,187643
6499,154089,38170,187632
6507,154081,38160,187633
6518,154095,38168,187632
6528,154082,38164,187619
6548,154081,38168,187620
6558,154079,38147,187616
6569,154083,38163,187603
6579,154054,38174,187612
6675,153982,38166,187504
6689,153992,38175,187494
6698,153975,38157,187497
6708,153970,38158,187469
6718,153956,38183,187468
6728,153961,38163,187455
6738,153954,38174,187459
6770,153949,38173,187472
6790,153963,38181,187468
6838,153948,38174,187435
6980,153916,38219,187398
6990,153908,38207,187390
6998,153905,38209,187380
7007,153926,38206,187391
7018,153919,38203,187395
7028,153907,38191,187390
7047,153911,38184,187377
7070,153901,38146,187350
7078,153881,38139,187335
7088,153881,38128,187335
7097,153878,38135,187329
7108,153866,38133,187296
7118,153862,38118,187293
7127,153830,38117,187297
7149,153850,38106,187280
7157,153837,38095,187271
7190,153833,38106,187274
7208,153853,38101,187265
7229,153845,38086,187252
7318,153878,38102,187285
7327,153893,38099,187275
7337,153890,38087,187285
7414,153895,38103,187293
7428,153937,38119,187285
7437,153916,38117,187297
7448,153904,38128,187280
7458,153910,38135,187286
7467,153899,38128,187284
7477,153920,38126,187286
7487,153912,38130,187266
7538,153936,38126,187298
7547,153936,38153,187301
7557,153931,38160,187276
7568,153957,38136,187299
7578,153948,38154,187281
7631,153948,38169,187288
7649,153950,38174,187291
7658,153949,38181,187302
7690,153943,38207,187278
7737,153927,38204,187277
7747,153927,38205,187270
7813,154036,38224,187349
7817,154047,38235,187360
7894,154174,38218,187447
7953,154158,38179,187400
7957,154154,38165,187388
8011,154184,38139,187405
8072,154287,38133,187470
8077,154300,38142,187486
8199,154397,38164,187529
8236,154391,38184,187518
8247,154402,38165,187522
8256,154382,38176,187503
8267,154396,38166,187505
8288,154398,38198,187507
8296,154394,38185,187517
8307,154402,38183,187484
8317,154407,38179,187497
8327,154414,38205,187487
8336,154405,38197,187515
8458,154388,38220,187471
8468,154393,38218,187428
8477,154377,38240,187440
8487,154357,38250,187440
8496,154380,38239,187438
8506,154348,38250,187428
8530,154369,38252,187441
8537,154359,38242,187420
8546,154381,38242,187392
8568,154361,38254,187404
8576,154371,38248,187398
8586,154379,38249,187396
8596,154372,38266,187376
8607,154376,38270,187403
8628,154375,38288,187384
8636,154376,38284,187406
8646,154381,38292,187384
8657,154382,38271,187373
8754,154349,38296,187351
8768,154331,38351,187310
8816,154353,38286,187333
8826,154340,38273,187348
8835,154357,38263,187307
8846,154332,38243,187318
8869,154338,38233,187331
8889,154342,38224,187291
8936,154323,38207,187267
8947,154312,38203,187257
8957,154312,38197,187240
8966,154305,38195,187262
8989,154309,38184,187246
9008,154328,38185,187241
9056,154315,38183,187195
9066,154299,38178,187191
9076,154288,38188,187180
9131,154239,38182,187125
9149,154259,38177,187113
9156,154241,38182,187123
9166,154239,38185,187095
9176,154231,38177,187090
9186,154218,38185,187099
9196,154245,38196,187083
9208,154223,38180,187068
9216,154215,38195,187062
9226,154225,38180,187052
9236,154217,38187,187046
9291,154208,38200,187041
9295,154215,38198,187032
9306,154230,38197,187024
9316,154219,38214,186982
9326,154200,38207,187028
9393,154180,38219,186972
9396,154180,38223,186991
9409,154163,38227,186967
9473,154171,38233,186956
9475,154161,38237,186939
9486,154161,38237,186910
9508,154175,38244,186951
9515,154171,38259,186939
9525,154171,38253,186923
9536,154156,38252,186956
9546,154171,38251,186935
9556,154176,38264,186943
9568,154190,38261,186937
9656,154182,38300,186958
9666,154193,38285,186959
9675,154191,38276,186925
9685,154188,38298,186969
9696,154184,38309,186911
9706,154192,38287,186933
9755,154169,38302,186923
9790,154171,38268,186921
9809,154153,38276,186927
9815,154141,38261,186901
9826,154139,38237,186883
9835,154131,38245,186866
9845,154139,38238,186865
9855,154122,38223,186856
9865,154097,38238,186847
9888,154106,38219,186830
9976,154083,38192,186776
9986,154047,38172,186761
10106,154086,38205,186734
10108,154072,38190,186740
10128,154078,38194,186737
10246,154089,38216,186742
10333,154125,38255,186730
10349,154140,38248,186713
10355,154130,38244,186746
10365,154141,38250,186729
10388,154155,38256,186731
10394,154147,38253,186735
10405,154160,38256,186744
10416,154150,38279,186740
10425,154164,38277,186733
10435,154171,38270,186742
10445,154180,38269,186729
10455,154149,38288,186743
10464,154158,38286,186720
10475,154161,38292,186723
10489,154179,38302,186726
10551,154155,38299,186721
10569,154141,38312,186759
10575,154177,38324,186731
10584,154175,38297,186686
10595,154146,38310,186715
10715,154188,38332,186732
10754,154195,38286,186717
10764,154180,38281,186691
10775,154192,38268,186678
10788,154190,38268,186685
10794,154189,38270,186681
10830,154188,38252,186675
10875,154179,38244,186657
10884,154163,38239,186668
10894,154201,38237,186675
10907,154209,38243,186658
10955,154213,38242,186671
10964,154192,38259,186661
10975,154196,38257,186667
10985,154208,38243,186635
10995,154186,38268,186667
11004,154212,38257,186666
11014,154210,38272,186655
11024,154214,38247,186666
11075,154226,38260,186678
11084,154210,38265,186649
11094,154215,38263,186658
11107,154231,38266,186657
11128,154228,38256,186663
11174,154258,38280,186689
11187,154255,38291,186664
11194,154261,38284,186693
11229,154274,38289,186691
11234,154277,38296,186690
11291,154282,38311,186706
11293,154276,38313,186695
11304,154267,38311,186683
11314,154303,38323,186712
11328,154274,38305,186714
11348,154297,38319,186701
11369,154298,38327,186714
11374,154307,38328,186720
11388,154296,38343,186705
11394,154303,38342,186714
11404,154302,38334,186712
11429,154306,38350,186715
11434,154326,38344,186703
11444,154308,38356,186718
11454,154306,38347,186712
11490,154321,38374,186710
11494,154306,38361,186718
11503,154351,38356,186693
11513,154308,38382,186697
11549,154320,38383,186738
11636,154329,38395,186738
11692,154351,38372,186747
11694,154354,38354,186737
11704,154348,38331,186711
11713,154347,38348,186687
11723,154349,38334,186710
11734,154355,38297,186708
11744,154344,38334,186693
11754,154346,38300,186695
11767,154335,38304,186673
11789,154327,38301,186693
11808,154335,38300,186692
11829,154364,38304,186712
11833,154341,38293,186719
11843,154367,38297,186708
11854,154368,38280,186690
11864,154378,38296,186720
11889,154398,38292,186726
11908,154394,38294,186729
11954,154402,38303,186729
11964,154374,38296,186734
11974,154400,38306,186723
11984,154407,38313,186696
11994,154385,38304,186713
12074,154416,38306,186733
12114,154433,38331,186737
12215,154429,38357,186747
12217,154428,38355,186736
12271,154441,38354,186752
12273,154453,38371,186768
12283,154467,38361,186748
12292,154447,38365,186726
12351,154428,38387,186729
12353,154446,38395,186738
12363,154418,38424,186731
12374,154447,38396,186737
12388,154445,38386,186743
12393,154452,38393,186744
12403,154421,38395,186751
12414,154458,38411,186742
12423,154461,38391,186750
12433,154437,38405,186743
12469,154439,38407,186769
12472,154440,38415,186748
12483,154410,38405,186740
12508,154439,38422,186754
12529,154440,38424,186747
12533,154441,38431,186764
12548,154436,38437,186768
12553,154455,38437,186753
12563,154437,38433,186756
12588,154458,38435,186795
12592,154464,38436,186791
12603,154482,38419,186797
12613,154486,38423,186795
12623,154489,38421,186820
12633,154485,38407,186815
12753,154459,38356,186781
12793,154476,38345,186774
12803,154440,38340,186730
12813,154488,38324,186765
12828,154494,38344,186753
12833,154487,38330,186780
12843,154471,38327,186760
12852,154477,38334,186731
12863,154482,38332,186768
12873,154479,38352,186767
12888,154433,38341,186744
12892,154451,38340,186761
12903,154492,38339,186756
12913,154469,38348,186730
12929,154433,38357,186750
12949,154449,38345,186764
12952,154455,38338,186754
12962,154439,38346,186710
12989,154450,38347,186740
12992,154439,38346,186748
13031,154430,38347,186733
13033,154444,38344,186709
13048,154420,38382,186713
13053,154412,38349,186717
13063,154399,38345,186683
13073,154415,38352,186691
13088,154419,38351,186693
13092,154406,38362,186677
13103,154379,38360,186640
13113,154385,38372,186681
13127,154405,38363,186672
13132,154404,38365,186694
13191,154373,38375,186671
13233,154357,38377,186651
13248,154354,38366,186615
13252,154366,38380,186639
13262,154380,38383,186628
13313,154353,38389,186619
13323,154341,38378,186628
13332,154339,38387,186598
13435,154324,38400,186597
13493,154289,38428,186581
13495,154273,38431,186566
13531,154261,38413,186550
13593,154264,38390,186540
13595,154244,38367,186522
13602,154231,38373,186488
13612,154232,38359,186487
13622,154239,38339,186490
13632,154225,38348,186483
13642,154219,38337,186477
13652,154222,38334,186464
13662,154208,38337,186457
13671,154218,38312,186448
13709,154205,38310,186433
13711,154188,38312,186433
13722,154188,38313,186407
13732,154186,38308,186430
13742,154199,38294,186419
13751,154191,38306,186428
13761,154183,38302,186389
13772,154157,38304,186397
13782,154155,38319,186402
13791,154176,38314,186388
13802,154146,38299,186393
13922,154157,38299,186377
13928,154165,38286,186375
13931,154135,38307,186376
13948,154128,38277,186313
13993,154134,38301,186352
14001,154112,38310,186323
14011,154145,38307,186329
14021,154144,38303,186352
14032,154153,38301,186336
14047,154147,38305,186331
14051,154146,38309,186350
14155,154150,38317,186346
14158,154177,38320,186338
14211,154180,38327,186354
14213,154183,38311,186363
14221,154139,38332,186334
14273,154168,38344,186349
14289,154178,38350,186335
14291,154169,38340,186336
14301,154181,38317,186321
14311,154165,38330,186332
14322,154164,38332,186349
14332,154151,38356,186311
14341,154150,38353,186346
14436,154157,38371,186333
14581,154141,38264,186306
14587,154131,38263,186308
14653,154153,38245,186297
14655,154173,38231,186307
14668,154134,38235,186279
14689,154186,38237,186284
14708,154177,38277,186282
14816,154198,38257,186348
14873,154196,38242,186345
14889,154221,38234,186330
14909,154204,38269,186335
14912,154214,38251,186350
14921,154228,38269,186354
15060,154271,38269,186417
15068,154267,38275,186423
15089,154281,38263,186382
15091,154290,38287,186427
15100,154280,38282,186374
15111,154281,38269,186409
15127,154284,38291,186401
15130,154297,38293,186418
15140,154272,38289,186383
15151,154292,38310,186422
15161,154254,38309,186429
15170,154285,38296,186406
15180,154293,38297,186410
15190,154290,38304,186405
15201,154301,38309,186421
15210,154289,38308,186408
15250,154281,38310,186401
15357,154292,38334,186424
15369,154294,38322,186430
15389,154295,38369,186431
15391,154318,38320,186454
15400,154292,38319,186438
15429,154340,38306,186463
15473,154298,38255,186421
15480,154315,38266,186445
15490,154309,38239,186422
15500,154315,38234,186407
15510,154313,38232,186383
15550,154295,38213,186404
15553,154302,38223,186401
15560,154292,38200,186414
15612,154326,38198,186414
15651,154334,38196,186427
15668,154330,38179,186386
15670,154336,38197,186437
15679,154321,38187,186381
15690,154326,38189,186419
15708,154330,38189,186430
15710,154345,38222,186437
15720,154355,38220,186448
15730,154348,38198,186445
15749,154367,38194,186464
15751,154359,38209,186446
15768,154361,38189,186423
15771,154375,38209,186460
15780,154366,38201,186403
15790,154387,38199,186450
15800,154355,38180,186454
15810,154376,38209,186452
15849,154378,38202,186466
15852,154385,38207,186470
15860,154365,38203,186442
15888,154385,38219,186459
15890,154394,38203,186486
15900,154375,38213,186434
15910,154376,38228,186471
15920,154365,38218,186482
15929,154412,38220,186476
15940,154391,38206,186478
15950,154376,38220,186458
15960,154380,38228,186485
16081,154370,38254,186481
16111,154386,38252,186471
16153,154395,38271,186483
16160,154398,38255,186496
16169,154384,38260,186462
16179,154377,38259,186465
16252,154404,38283,186484
16269,154386,38268,186460
16271,154408,38285,186499
16375,154418,38286,186512
16376,154429,38288,186545
16389,154422,38281,186503
16409,154438,38265,186551
16412,154445,38248,186543
16419,154439,38256,186524
16429,154413,38234,186541
16439,154453,38209,186523
16449,154438,38223,186536
16468,154439,38201,186505
16490,154445,38195,186503
16509,154453,38186,186532
16511,154453,38182,186542
16519,154470,38194,186510
16529,154459,38184,186516
16547,154459,38188,186542
16613,154484,38177,186558
16615,154486,38184,186540
16694,154494,38173,186542
16696,154482,38177,186524
16699,154483,38187,186532
16709,154486,38175,186542
16793,154468,38173,186525
16809,154477,38174,186533
16811,154473,38190,186525
16819,154479,38167,186529
16872,154484,38188,186517
16888,154460,38194,186488
16890,154468,38204,186521
16899,154465,38186,186505
16930,154451,38199,186495
16938,154461,38187,186487
16949,154438,38207,186478
16959,154444,38218,186483
16969,154437,38200,186480
16979,154451,38230,186482
17052,154451,38213,186470
17055,154442,38217,186466
17090,154454,38229,186475
17092,154423,38242,186472
17098,154432,38231,186467
17128,154416,38234,186462
17151,154423,38243,186471
17159,154432,38237,186472
17168,154422,38249,186459
17253,154443,38259,186480
17255,154427,38262,186498
17258,154448,38241,186488
17269,154454,38254,186483
17279,154448,38272,186508
17289,154458,38279,186490
17338,154476,38239,186546
17348,154497,38260,186533
17359,154483,38243,186555
17368,154497,38234,186548
17378,154483,38223,186548
17388,154503,38216,186521
17408,154478,38206,186541
17410,154500,38195,186551
17418,154517,38186,186557
17428,154495,38184,186550
17439,154517,38185,186540
17449,154514,38174,186524
17458,154483,38181,186530
17490,154518,38147,186565
17498,154516,38148,186579
17508,154504,38161,186560
17518,154516,38137,186545
17529,154535,38133,186576
17547,154526,38157,186553
17658,154500,38146,186525
17699,154499,38157,186507
17751,154448,38154,186491
17757,154463,38159,186477
17768,154461,38154,186463
17818,154448,38180,186444
17828,154442,38166,186405
17837,154405,38180,186421
17848,154421,38159,186431
17869,154429,38163,186420
17878,154426,38175,186421
17888,154401,38188,186422
17898,154408,38167,186422
17908,154410,38173,186413
17958,154391,38196,186389
17990,154365,38187,186382
18038,154381,38197,186376
18048,154369,38213,186379
18057,154362,38207,186358
18068,154358,38198,186347
18078,154343,38205,186351
18088,154371,38216,186375
18098,154359,38211,186363
18108,154361,38208,186354
18118,154373,38203,186359
18127,154372,38224,186362
18193,154365,38236,186385
18209,154388,38242,186391
18229,154374,38239,186398
18238,154366,38249,186374
18248,154371,38251,186361
18357,154378,38206,186395
18359,154370,38201,186402
18367,154394,38183,186396
18376,154347,38178,186370
18388,154344,38168,186370
18398,154335,38160,186353
18430,154315,38155,186339
18536,154297,38105,186306
18539,154295,38120,186309
18547,154280,38141,186272
18557,154276,38120,186268
18567,154281,38120,186272
18577,154267,38141,186272
18586,154270,38144,186268
18608,154253,38131,186250
18618,154249,38122,186265
18627,154235,38141,186258
18637,154245,38138,186250
18647,154247,38144,186242
18668,154244,38130,186243
18677,154239,38127,186243
18688,154235,38129,186229
18697,154241,38123,186251
18708,154236,38112,186225
18772,154235,38145,186220
18777,154238,38145,186229
18787,154267,38148,186225
18797,154230,38143,186230
18807,154222,38149,186204
18817,154232,38153,186220
18827,154216,38173,186218
18849,154236,38161,186234
18896,154224,38162,186219
18907,154222,38164,186210
18916,154231,38181,186200
18950,154255,38183,186223
18957,154237,38175,186237
18966,154249,38182,186233
19017,154244,38193,186219
19072,154264,38216,186211
19077,154250,38215,186209
19086,154259,38199,186226
19096,154241,38217,186207
19106,154252,38225,186212
19117,154254,38206,186233
19128,154238,38222,186224
19137,154263,38222,186222
19257,154292,38231,186243
19296,154282,38192,186246
19306,154278,38179,186216
19316,154291,38175,186235
19329,154295,38153,186247
19375,154293,38150,186211
19455,154321,38143,186252
19457,154321,38139,186265
19466,154308,38187,186259
19476,154312,38140,186259
19510,154348,38163,186253
19516,154341,38148,186270
19526,154362,38148,186278
19536,154350,38158,186268
19545,154352,38146,186278
19556,154365,38155,186275
19566,154355,38149,186299
19576,154361,38157,186304
19587,154372,38161,186316
19707,154386,38180,186350
19708,154392,38170,186333
19755,154375,38187,186346
19768,154402,38198,186352
19776,154378,38205,186357
19786,154385,38207,186330
19809,154390,38205,186362
19829,154398,38216,186357
19836,154387,38215,186361
19846,154375,38219,186359
19856,154398,38211,186344
19866,154388,38214,186346
19932,154382,38241,186359
19976,154354,38261,186345
19986,154376,38255,186351
20009,154373,38261,186364
20016,154370,38259,186354
20049,154372,38279,186371
20055,154374,38287,186356
20065,154368,38291,186344
20089,154367,38279,186363
20095,154376,38294,186369
20105,154358,38296,186374
20116,154388,38285,186357
20125,154377,38282,186385
20135,154374,38302,186389
20170,154392,38294,186405
20175,154398,38288,186404
20185,154400,38289,186392
20195,154406,38274,186423
20206,154408,38263,186379
20215,154411,38257,186415
20226,154397,38253,186408
20235,154410,38242,186390
20245,154397,38245,186389
20255,154399,38222,186393
20265,154403,38215,186358
20316,154370,38225,186385
20351,154391,38196,186398
20355,154413,38203,186394
20369,154419,38194,186410
20375,154441,38202,186417
20385,154422,38216,186418
20395,154449,38205,186424
20406,154430,38212,186424
20416,154414,38208,186401
20425,154418,38224,186422
20435,154418,38210,186417
20470,154419,38220,186405
20475,154430,38211,186410
20485,154436,38206,186400
20536,154448,38216,186423
20571,154436,38234,186399
20589,154473,38233,186410
20696,154447,38249,186378
20699,154438,38249,186381
20774,154424,38262,186356
20776,154415,38268,186372
20809,154403,38268,186356
20829,154397,38279,186364
20834,154389,38289,186342
20844,154395,38275,186362
20855,154400,38266,186350
20865,154401,38291,186345
20875,154401,38292,186316
20884,154403,38296,186316
20895,154384,38297,186324
20905,154371,38298,186306
20915,154354,38300,186316
20924,154379,38296,186324
20934,154382,38291,186317
20945,154359,38307,186312
20955,154370,38309,186288
20965,154361,38294,186328
20975,154363,38313,186293
21033,154356,38307,186313
21035,154347,38325,186314
21044,154333,38372,186274
21069,154351,38323,186342
21075,154338,38331,186331
21084,154324,38347,186315
21095,154338,38345,186325
21109,154343,38345,186333
21114,154350,38333,186353
21150,154357,38314,186364
21154,154365,38298,186354
21164,154379,38301,186353
21174,154376,38268,186367
21185,154350,38294,186370
21195,154355,38278,186330
21231,154339,38261,186362
21250,154331,38244,186355
21254,154344,38247,186358
21264,154340,38244,186347
21274,154345,38237,186355
21289,154345,38223,186355
21294,154344,38247,186360
21307,154328,38238,186358
21315,154341,38253,186373
21325,154320,38243,186363
21348,154322,38238,186357
21355,154336,38223,186366
21365,154328,38239,186369
21375,154326,38235,186340
21384,154307,38234,186316
21394,154299,38241,186321
21408,154308,38229,186331
21415,154284,38247,186323
21450,154289,38240,186304
21455,154275,38245,186299
21464,154306,38229,186283
21474,154271,38248,186281
21484,154266,38248,186284
21494,154258,38249,186302
21504,154237,38251,186278
21514,154259,38245,186259
21524,154256,38240,186260
21534,154268,38229,186250
21544,154230,38244,186249
21554,154253,38239,186222
21568,154233,38249,186258
21574,154240,38246,186236
21631,154214,38238,186235
21649,154209,38271,186225
21654,154215,38263,186240
21690,154196,38257,186211
21694,154203,38254,186211
21730,154196,38276,186199
21793,154155,38275,186189
21809,154137,38284,186150
21873,154107,38282,186137
21914,154097,38297,186123
21972,154071,38312,186122
21975,154062,38313,186104
21984,154028,38322,186081
21994,154059,38309,186094
22003,154029,38302,186114
22014,154042,38322,186099
22050,154026,38321,186114
22053,154022,38329,186100
22063,154025,38341,186094
22074,154012,38325,186082
22088,153992,38325,186103
22093,154001,38323,186099
22104,154023,38323,186103
22113,154015,38302,186098
22124,154005,38313,186094
22133,154004,38299,186071
22148,153982,38280,186098
22169,153986,38258,186072
22173,153988,38265,186063
22184,153971,38249,186031
22208,153944,38245,186036
22213,153956,38238,186033
22223,153934,38227,186013
22249,153934,38217,186009
22269,153938,38225,186009
22290,153973,38212,186016
22353,153910,38204,185985
22369,153914,38211,185956
22373,153920,38213,185966
22433,153920,38225,185966
22537,153897,38216,185973
22549,153874,38205,185955
22553,153879,38237,185961
22568,153865,38234,185934
22574,153894,38230,185952
22588,153882,38232,185951
22633,153881,38241,185956
22643,153869,38277,185950
22653,153869,38244,185947
22664,153890,38221,185946
22673,153880,38245,185954
22683,153864,38247,185929
22693,153866,38256,185954
22703,153857,38238,185962
22713,153891,38242,185955
22723,153857,38245,185939
22750,153885,38251,185959
22769,153870,38262,185993
22790,153874,38259,185955
22792,153876,38268,185946
22802,153867,38271,185964
22829,153907,38278,185974
22833,153890,38278,185941
22842,153870,38290,185953
22852,153873,38281,185966
22862,153865,38274,185957
22873,153882,38264,185927
22882,153877,38289,185933
22933,153870,38284,185958
22943,153876,38283,185945
22953,153851,38294,185974
22962,153881,38298,185952
22973,153879,38293,185955
22983,153855,38294,185960
23009,153890,38302,185961
23030,153886,38302,186016
23033,153906,38283,186001
23070,153912,38257,185990
23073,153922,38264,185990
23088,153916,38244,185968
23092,153916,38244,185979
23108,153928,38241,185971
23129,153921,38225,185986
23132,153929,38216,185984
23143,153904,38208,185956
23152,153915,38224,185989
23168,153928,38222,185993
23172,153917,38214,185989
23182,153919,38188,185991
23193,153926,38209,185995
23203,153931,38214,185989
23212,153937,38197,185991
23222,153912,38206,186024
23232,153947,38201,186033
23249,153941,38190,186019
23269,153952,38203,186040
23272,153949,38200,186020
23282,153933,38191,186078
23291,153947,38210,186021
23302,153969,38202,186040
23313,153940,38207,186047
23323,153949,38197,186059
23333,153947,38218,186047
23342,153957,38207,186058
23352,153964,38221,186087
23362,153985,38212,186069
23457,154000,38215,186125
23490,154002,38218,186151
23493,154002,38231,186148
23531,154023,38219,186171
23616,154008,38255,186208
23627,154016,38249,186185
23632,154022,38257,186208
23642,154073,38253,186206
23669,154000,38264,186225
23672,154015,38277,186227
23682,154006,38308,186192
23692,153997,38263,186211
23702,154004,38280,186220
23712,154010,38282,186231
23722,153993,38272,186205
23732,153988,38288,186207
23748,154024,38282,186209
23751,154014,38292,186237
23761,154026,38291,186215
23772,154001,38298,186225
23789,153997,38289,186204
23810,154011,38296,186239
23923,154007,38324,186292
23928,154001,38334,186282
23931,153972,38351,186265
23970,154003,38308,186315
24033,154024,38280,186339
24092,153990,38225,186306
24094,153968,38228,186315
24109,153963,38231,186252
24111,153991,38216,186278
24128,153988,38214,186257
24131,153993,38222,186300
24142,154001,38206,186266
24152,153987,38214,186292
24162,154007,38215,186310
24171,154007,38201,186302
24181,154006,38210,186301
24191,153982,38210,186316
24208,153991,38209,186319
24211,153980,38209,186317
24221,154005,38206,186294
24273,153983,38208,186293
24282,153969,38204,186271
24333,153963,38216,186291
24414,153933,38210,186271
24454,153931,38225,186256
24461,153910,38225,186231
24471,153924,38230,186237
24509,153931,38233,186236
24512,153921,38235,186248
24521,153914,38224,186227
24548,153912,38238,186233
24551,153919,38227,186238
24568,153909,38235,186249
24571,153921,38223,186230
24631,153921,38244,186221
24673,153910,38249,186225
24681,153922,38241,186173
24708,153908,38244,186224
24729,153901,38265,186220
24731,153900,38263,186220
24770,153902,38263,186223
24773,153901,38260,186235
24789,153913,38273,186191
24791,153898,38273,186239
24800,153888,38264,186200
24811,153895,38271,186236
24851,153897,38277,186228
24894,153917,38287,186268
24908,153926,38290,186268
24911,153934,38299,186262
24951,153929,38292,186301
24993,153956,38236,186326
25000,153954,38234,186292
25122,153963,38169,186368
25128,153985,38178,186357
25130,153980,38178,186342
25148,153977,38212,186339
25193,153979,38166,186362
25251,153958,38174,186339
25254,153963,38162,186329
25260,153937,38163,186323
25312,153956,38172,186327
25329,153949,38157,186290
25416,153949,38176,186302
25420,153938,38181,186310
25430,153935,38175,186274
25449,153971,38193,186306
25452,153968,38195,186311
25460,153967,38163,186266
25470,153972,38206,186306
25510,153962,38190,186298
25512,153954,38193,186315
25528,153945,38189,186258
25641,153933,38213,186276
25670,153915,38216,186267
25689,153885,38204,186245
25709,153883,38217,186231
25712,153866,38228,186238
25831,153794,38247,186177
25893,153772,38244,186150
25910,153756,38221,186155
25913,153756,38237,186138
25920,153749,38237,186148
25930,153750,38223,186147
25940,153756,38229,186186
25950,153744,38214,186145
25960,153764,38203,186153
26013,153723,38157,186120
26020,153714,38127,186117
26030,153692,38134,186116
26040,153708,38145,186109
26050,153704,38125,186114
26060,153707,38123,186107
26070,153694,38117,186092
26080,153687,38116,186106
26089,153680,38113,186091
26099,153674,38116,186080
26110,153683,38107,186110
26120,153699,38120,186104
26130,153692,38097,186107
26140,153669,38101,186076
26169,153682,38113,186100
26171,153669,38105,186122
26188,153655,38077,186091
26190,153667,38106,186106
26364,153591,38107,186052
26434,153583,38117,186036
26450,153578,38133,186038
26452,153572,38128,186051
26459,153557,38133,186038
26470,153549,38131,186052
26480,153566,38136,186072
26490,153550,38132,186054
26500,153561,38147,186025
26509,153540,38139,186033
26519,153539,38140,186035
26529,153541,38137,186027
26539,153540,38152,186057
26549,153535,38139,186028
26590,153528,38143,186030
26609,153512,38153,186019
26631,153509,38155,186020
26639,153507,38158,186025
26712,153489,38178,186010
26753,153461,38171,185999
26759,153477,38167,185995
26770,153453,38180,185972
26780,153459,38181,185975
26790,153476,38176,185983
26808,153447,38179,185970
26830,153473,38165,185949
26832,153446,38193,185972
26838,153446,38205,185956
26849,153453,38183,185951
26860,153458,38174,185941
26870,153463,38191,185964
26888,153464,38187,185963
26891,153459,38186,185966
26899,153477,38190,185989
26909,153473,38150,185974
26958,153471,38116,185948
26969,153460,38111,185943
26979,153457,38127,185937
26989,153461,38104,185920
26999,153463,38104,185921
27009,153448,38112,185932
27050,153463,38097,185934
27052,153461,38080,185935
27068,153470,38093,185933
27071,153491,38082,185949
27079,153505,38086,185950
27131,153501,38083,185971
27139,153504,38087,185977
27148,153506,38067,185958
27199,153505,38087,185969
27209,153517,38091,185941
27219,153525,38100,185988
27229,153495,38097,185975
27250,153531,38098,185989
27269,153550,38105,185995
27288,153540,38078,185998
27291,153536,38099,185998
27298,153534,38110,185997
27352,153563,38118,185994
27370,153557,38126,186024
27433,153575,38132,186040
27439,153572,38131,186017
27449,153573,38130,186029
27458,153584,38123,186045
27512,153594,38161,186058
27558,153615,38163,186079
27569,153622,38174,186080
27579,153625,38179,186073
27588,153635,38179,186072
27610,153631,38185,186096
27618,153627,38184,186086
27629,153634,38183,186088
27693,153615,38193,186098
27709,153618,38215,186104
27758,153642,38219,186127
27768,153634,38227,186123
27778,153655,38235,186134
27788,153657,38228,186149
27798,153677,38210,186161
27808,153678,38222,186159
27898,153690,38148,186164
27930,153684,38139,186163
27938,153691,38134,186159
27948,153656,38137,186168
27958,153683,38143,186151
28055,153711,38116,186219
28070,153700,38137,186198
28088,153718,38119,186219
28137,153737,38141,186260
28169,153728,38136,186252
28177,153732,38139,186254
28210,153759,38139,186268
28257,153744,38163,186273
28267,153742,38165,186263
28277,153753,38161,186268
28310,153766,38175,186286
28318,153766,38174,186296
28371,153735,38201,186265
28377,153748,38186,186270
28388,153765,38169,186250
28438,153739,38211,186258
28448,153723,38218,186238
28458,153722,38220,186247
28467,153742,38209,186237
28490,153728,38223,186237
28498,153732,38216,186241
28574,153712,38235,186226
28589,153699,38232,186229
28597,153723,38238,186234
28608,153734,38239,186217
28628,153719,38242,186240
28677,153730,38247,186261
28776,153751,38263,186307
28779,153774,38272,186317
28788,153779,38263,186310
28837,153790,38220,186329
28892,153800,38198,186338
28897,153801,38206,186353
28907,153797,38196,186352
28917,153810,38175,186363
28950,153807,38179,186361
28998,153824,38175,186378
29074,153782,38173,186345
29077,153770,38185,186320
29088,153787,38188,186373
29110,153780,38181,186337
29128,153781,38175,186319
29137,153791,38169,186310
29147,153768,38182,186290
29157,153749,38192,186313
29255,153749,38185,186267
29257,153757,38192,186269
29266,153724,38210,186262
29276,153735,38198,186260
29311,153726,38196,186243
29441,153650,38208,186197
29449,153608,38250,186165
29457,153639,38233,186173
29466,153626,38226,186169
29476,153627,38230,186178
29486,153599,38236,186148
29497,153606,38233,186140
29507,153599,38225,186151
29667,153526,38258,186088
29690,153507,38270,186103
29697,153510,38272,186096
29707,153499,38278,186092
29716,153489,38271,186075
29726,153485,38286,186074
29737,153480,38267,186093
29750,153488,38275,186100
29769,153486,38255,186098
29776,153486,38260,186104
29789,153476,38242,186086
29796,153477,38243,186085
29852,153441,38196,186055
29913,153413,38177,186009
29973,153404,38160,186002
30016,153364,38158,185994
30026,153378,38176,185975
30036,153330,38170,185971
30157,153349,38179,185951
30213,153313,38168,185929
30215,153319,38177,185923
30250,153318,38190,185925
30269,153298,38187,185926
30290,153290,38200,185898
30295,153280,38180,185892
30305,153278,38184,185904
30330,153285,38193,185889
30349,153271,38190,185896
30370,153265,38202,185892
30376,153280,38192,185890
30386,153274,38202,185898
30453,153267,38214,185883
30456,153265,38206,185895
30465,153269,38216,185870
30475,153270,38219,185853
30599,153254,38244,185865
30610,153253,38248,185843
30616,153256,38243,185872
30625,153256,38251,185867
30716,153309,38212,185873
30726,153259,38191,185867
30736,153266,38200,185822
30750,153280,38203,185854
30755,153287,38189,185851
30769,153305,38176,185845
30775,153285,38166,185860
30788,153302,38159,185839
30795,153303,38181,185858
30805,153305,38174,185843
30815,153319,38162,185869
30825,153310,38175,185848
30835,153343,38170,185859
30845,153334,38166,185854
30913,153402,38165,185914
30916,153418,38169,185913
30928,153380,38183,185909
30950,153425,38173,185921
30956,153431,38180,185931
30991,153453,38184,185944
31078,153480,38185,185973
31085,153445,38206,185956
31095,153482,38194,185978
31105,153484,38192,185958
31115,153459,38194,185985
31125,153510,38187,185988
31134,153492,38206,185990
31144,153495,38214,186007
31155,153538,38197,185991
31166,153534,38209,186002
31175,153525,38224,186001
31185,153545,38213,186027
31210,153541,38212,186024
31214,153566,38221,186047
31225,153557,38219,186057
31234,153571,38237,186027
31249,153571,38238,186052
31254,153569,38222,186067
31264,153577,38233,186077
31275,153591,38219,186080
31285,153589,38238,186064
31335,153609,38269,186089
31371,153604,38258,186115
31375,153605,38277,186125
31385,153603,38266,186111
31477,153638,38287,186180
31489,153672,38286,186153
31495,153656,38310,186203
31504,153621,38303,186203
31514,153642,38308,186186
31524,153641,38309,186211
31534,153664,38310,186220
31548,153683,38304,186217
31554,153681,38302,186233
31612,153744,38271,186298
31630,153758,38275,186292
31650,153814,38253,186296
31655,153761,38247,186295
31665,153748,38244,186293
31674,153749,38257,186295
31684,153771,38239,186326
31694,153767,38255,186304
31704,153770,38232,186307
31714,153755,38235,186331
31794,153837,38216,186371
31797,153847,38218,186397
31851,153842,38220,186394
31854,153848,38221,186399
31865,153830,38237,186359
31875,153851,38235,186386
31884,153851,38232,186382
31894,153856,38233,186380
31904,153865,38229,186374
31929,153855,38238,186383
31934,153854,38223,186380
31944,153865,38237,186351
31955,153862,38241,186371
31964,153838,38233,186377
31974,153862,38235,186350
31984,153864,38225,186367
32009,153859,38224,186373
32097,153914,38250,186385
32109,153902,38262,186342
32114,153919,38265,186400
32216,153914,38296,186394
32218,153926,38275,186409
32223,153912,38281,186360
32234,153910,38279,186386
32244,153929,38285,186364
32269,153935,38293,186399
32274,153932,38287,186398
32284,153966,38305,186370
32310,153930,38287,186382
32313,153940,38287,186375
32329,153911,38309,186371
32333,153928,38302,186398
32343,153931,38299,186377
32353,153935,38307,186366
32363,153928,38317,186372
32374,153936,38302,186371
32384,153930,38291,186376
32394,153921,38335,186361
32404,153962,38311,186362
32414,153943,38311,186369
32423,153919,38317,186371
32434,153936,38322,186352
32444,153908,38334,186368
32454,153919,38335,186379
32463,153936,38325,186350
32473,153920,38338,186352
32488,153921,38331,186369
32604,153945,38269,186357
32609,153943,38266,186363
32835,153856,38173,186253
32850,153873,38169,186237
32853,153874,38184,186238
32863,153855,38175,186264
32890,153860,38178,186248
32893,153885,38198,186248
32903,153834,38184,186264
32914,153869,38182,186248
32923,153865,38186,186248
32950,153868,38185,186238
33057,153856,38198,186191
33070,153831,38228,186165
33133,153810,38203,186180
33174,153766,38202,186133
33189,153739,38230,186100
33193,153762,38220,186124
33203,153746,38199,186090
33212,153739,38215,186091
33427,153588,38224,185963
33515,153533,38227,185921
33553,153522,38180,185905
33563,153526,38161,185889
33573,153516,38175,185875
33587,153489,38169,185896
33703,153467,38102,185850
33731,153451,38093,185830
33750,153431,38107,185793
33751,153455,38104,185848
33762,153413,38108,185791
33813,153427,38097,185809
34005,153407,38110,185783
34030,153408,38111,185794
34117,153419,38142,185819
34151,153428,38148,185792
34153,153439,38138,185810
34162,153445,38148,185795
34256,153424,38173,185803
34262,153429,38165,185770
34272,153434,38156,185782
34288,153427,38171,185770
34310,153416,38177,185804
34397,153431,38191,185786
34409,153434,38209,185785
34412,153453,38196,185791
34421,153447,38197,185797
34432,153462,38190,185795
34442,153469,38201,185796
34452,153477,38187,185812
34491,153484,38170,185806
34493,153475,38149,185835
34501,153482,38163,185764
34511,153450,38153,185798
34521,153486,38143,185808
34574,153487,38106,185792
34632,153487,38100,185778
34650,153495,38095,185766
34652,153498,38092,185808
34662,153500,38094,185763
34690,153510,38088,185810
34692,153523,38088,185802
34702,153517,38081,185768
34753,153536,38091,185819
34768,153549,38102,185793
34771,153565,38096,185818
34892,153613,38102,185877
34910,153626,38121,185852
34912,153633,38112,185878
34920,153611,38104,185842
35017,153637,38130,185897
35021,153633,38140,185862
35142,153663,38171,185915
35149,153658,38165,185912
35152,153653,38165,185888
35161,153658,38144,185925
35170,153645,38183,185895
35180,153668,38169,185906
35209,153661,38182,185893
35212,153653,38189,185909
35221,153658,38190,185911
35273,153673,38209,185925
35281,153685,38218,185899
35309,153673,38196,185920
35353,153688,38223,185942
35360,153695,38236,185934
35371,153705,38229,185942
35381,153700,38237,185958
35391,153691,38239,185950
35401,153703,38233,185945
35411,153693,38227,185977
35420,153704,38209,185954
35431,153730,38221,185970
35441,153724,38204,185966
35451,153737,38203,185963
35460,153738,38189,185966
35471,153744,38168,185979
35490,153741,38180,185955
35509,153738,38123,185931
35529,153712,38156,185908
35532,153738,38147,185937
35541,153725,38147,185895
35550,153745,38123,185937
35612,153755,38135,185965
35615,153759,38125,185950
35621,153760,38109,185949
35630,153776,38125,185974
35649,153736,38125,185969
35652,153785,38111,185984
35691,153784,38112,185989
35709,153789,38109,185976
35712,153767,38135,185979
35721,153780,38111,185979
35731,153801,38119,185945
35741,153798,38137,185982
35750,153796,38138,185978
35834,153829,38130,186000
35849,153823,38154,186010
35852,153824,38132,185987
35868,153821,38127,185991
35935,153814,38159,185990
35941,153830,38128,185992
35951,153812,38151,185964
35960,153825,38158,185973
35970,153835,38158,185969
35988,153811,38173,185991
35991,153819,38173,185959
36000,153804,38212,185950
36073,153812,38175,185987
36114,153821,38200,185951
36121,153816,38190,185921
36130,153814,38209,185963
36140,153821,38205,185939
36150,153820,38199,185955
36160,153819,38213,185937
36190,153812,38207,185929
36192,153833,38195,185940
36200,153823,38194,185905
36209,153825,38211,185935
36228,153807,38226,185944
36273,153826,38227,185955
36291,153838,38233,185948
36308,153841,38233,185945
36310,153847,38251,185957
36320,153875,38266,185923
36331,153851,38255,185974
36340,153865,38244,185956
36350,153865,38252,185975
36360,153880,38256,185967
36370,153870,38251,185971
36379,153878,38267,185996
36410,153891,38269,186006
36412,153884,38266,186019
36420,153899,38291,186007
36430,153909,38252,186018
36492,153955,38212,186059
36495,153945,38222,186035
36500,153948,38221,186048
36553,153943,38192,186056
36559,153953,38186,186050
36570,153960,38197,186042
36580,153980,38168,186079
36589,153963,38176,186071
36599,153975,38178,186047
36610,153978,38165,186079
36671,154006,38165,186084
36673,154005,38166,186088
36688,154007,38166,186081
36690,154015,38155,186066
36699,153998,38145,186055
36709,153992,38160,186053
36729,153981,38170,186050
36731,153974,38178,186045
36740,153974,38183,186047
36750,153977,38165,186028
36759,153961,38177,186023
36791,153966,38171,186029
36799,153963,38160,186024
36809,153951,38174,186023
37074,153872,38212,185907
37114,153876,38227,185889
37120,153863,38223,185889
37150,153848,38227,185865
37152,153839,38225,185882
37159,153852,38232,185869
37169,153832,38236,185858
37179,153827,38223,185852
37209,153808,38235,185836
37295,153746,38258,185797
37298,153760,38255,185780
37309,153758,38265,185773
37319,153749,38247,185776
37351,153751,38252,185770
37469,153765,38281,185786
37534,153756,38213,185762
37549,153752,38207,185755
37558,153733,38183,185751
37569,153717,38183,185757
37579,153743,38177,185737
37589,153736,38175,185739
37653,153736,38176,185753
37713,153742,38173,185719
37719,153726,38159,185721
37816,153718,38165,185696
37819,153709,38165,185691
37894,153717,38178,185679
37910,153736,38190,185657
37918,153709,38186,185675
37928,153732,38187,185661
37938,153725,38186,185669
37950,153710,38190,185665
37958,153712,38188,185663
37968,153712,38208,185648
37991,153703,38208,185666
37999,153707,38198,185657
38008,153699,38220,185642
38099,153680,38217,185613
38109,153684,38198,185583
38119,153684,38220,185610
38194,153677,38234,185601
38199,153668,38228,185594
38208,153712,38240,185588
38329,153644,38276,185556
38351,153653,38268,185548
38358,153661,38262,185555
38369,153655,38273,185557
38377,153645,38277,185547
38388,153650,38277,185553
38398,153659,38288,185534
38409,153662,38286,185525
38418,153653,38285,185547
38428,153652,38287,185548
38518,153690,38222,185541
38529,153674,38234,185592
38538,153684,38218,185548
38548,153704,38190,185570
38598,153728,38193,185559
38608,153731,38195,185535
38618,153740,38205,185564
38628,153742,38196,185564
38638,153743,38179,185556
38649,153765,38191,185600
38658,153780,38182,185595
38667,153792,38190,185607
38678,153806,38180,185585
38688,153803,38192,185589
38698,153802,38206,185600
38708,153811,38199,185599
38717,153819,38209,185619
38727,153822,38196,185595
38837,153884,38214,185666
38839,153876,38211,185657
38848,153868,38212,185624
38858,153908,38210,185650
38870,153918,38221,185677
38917,153955,38232,185694
38928,153970,38241,185699
38938,153969,38235,185714
38949,153981,38240,185722
38958,153994,38243,185747
38967,153973,38252,185729
38977,154006,38247,185736
39010,154025,38253,185752
39018,154017,38250,185769
39028,154034,38273,185764
39038,154028,38273,185776
39047,154039,38271,185760
39070,154047,38271,185779
39078,154062,38269,185788
39087,154052,38290,185761
39097,154066,38295,185805
39108,154062,38291,185813
39129,154084,38285,185816
39137,154089,38285,185821
39214,154122,38322,185854
39257,154137,38337,185871
39269,154124,38343,185850
39333,154149,38361,185906
39337,154153,38366,185900
39347,154157,38364,185934
39369,154171,38375,185922
39376,154190,38369,185912
39388,154173,38391,185916
39397,154191,38366,185939
39407,154194,38364,185934
39498,154241,38303,185979
39507,154222,38307,185974
39517,154229,38305,185942
39527,154215,38314,185946
39537,154228,38300,185967
39546,154234,38293,185966
39557,154254,38307,185961
39591,154268,38283,185990
39597,154290,38289,185998
39607,154285,38289,186002
39657,154275,38295,185983
39666,154284,38281,185977
39676,154278,38289,185969
39687,154259,38304,185978
39737,154276,38280,185953
39814,154266,38293,185942
39817,154263,38297,185954
39827,154273,38305,185912
39836,154260,38298,185901
39849,154268,38304,185929
39857,154267,38299,185935
39867,154272,38299,185931
39876,154272,38294,185934
39887,154290,38290,185918
39897,154298,38309,185923
39910,154310,38304,185929
39916,154296,38316,185943
39951,154305,38329,185956
39969,154310,38317,185938
39977,154299,38322,185936
39987,154297,38324,185937
39997,154300,38330,185934
40006,154319,38327,185928
40016,154305,38334,185925
40026,154307,38343,185930
40037,154314,38344,185936
40046,154301,38339,185932
40056,154303,38346,185944
40069,154309,38334,185922
40077,154328,38344,185933
40086,154304,38341,185924
40097,154299,38351,185922
40107,154303,38347,185903
40129,154309,38349,185933
40136,154302,38356,185925
40146,154305,38343,185901
40157,154271,38350,185895
40166,154289,38355,185906
40176,154283,38349,185897
40186,154272,38364,185898
40197,154281,38370,185882
40208,154281,38355,185867
40216,154274,38353,185878
40227,154275,38353,185877
40236,154267,38372,185859
40247,154275,38339,185866
40256,154270,38387,185867
40266,154299,38385,185879
40276,154285,38371,185889
40287,154287,38393,185876
40336,154292,38401,185893
40346,154289,38391,185883
40356,154297,38380,185848
40366,154290,38393,185885
40457,154299,38318,185855
40465,154298,38325,185852
40475,154290,38307,185861
40486,154305,38299,185846
40497,154278,38290,185834
40506,154265,38298,185831
40530,154280,38291,185800
40536,154273,38289,185809
40545,154275,38282,185804
40595,154280,38269,185784
40630,154282,38258,185781
40636,154281,38265,185809
40646,154287,38256,185775
40656,154284,38270,185772
40666,154307,38265,185797
40715,154350,38253,185814
40750,154339,38263,185810
40770,154356,38264,185811
40776,154334,38264,185806
40854,154373,38279,185796
40856,154370,38275,185828
40866,154350,38297,185814
40875,154363,38285,185803
40889,154380,38277,185799
40896,154365,38280,185803
40909,154371,38288,185818
40916,154371,38282,185808
40926,154374,38286,185814
40949,154366,38285,185825
41013,154364,38299,185800
41015,154374,38298,185791
41030,154333,38292,185784
41036,154375,38290,185776
41045,154360,38300,185782
41056,154374,38300,185774
41066,154374,38288,185805
41116,154403,38316,185852
41125,154384,38296,185797
41135,154371,38306,185793
41255,154345,38322,185783
41313,154397,38327,185838
41316,154417,38333,185852
41326,154408,38336,185823
41335,154445,38309,185869
41345,154449,38311,185870
41414,154412,38266,185832
41416,154420,38256,185802
41425,154390,38260,185769
41435,154389,38251,185792
41446,154392,38234,185772
41456,154380,38248,185765
41556,154409,38218,185790
41559,154405,38225,185768
41565,154351,38225,185739
41615,154360,38219,185746
41625,154386,38212,185754
41635,154358,38226,185699
41645,154368,38218,185737
41655,154353,38194,185722
41666,154347,38220,185724
41674,154355,38223,185716
41684,154353,38229,185703
41695,154341,38202,185699
41731,154319,38197,185700
41734,154309,38212,185687
41745,154292,38229,185670
41754,154292,38241,185666
41834,154292,38224,185651
41836,154280,38225,185667
41844,154303,38216,185653
41895,154269,38227,185629
41905,154249,38237,185631
41915,154245,38240,185619
41924,154237,38247,185592
41934,154229,38242,185613
41944,154234,38239,185594
41955,154220,38242,185592
41964,154230,38230,185591
41974,154236,38222,185593
41985,154214,38242,185596
41995,154206,38256,185575
42004,154230,38247,185587
42015,154214,38242,185586
42025,154191,38253,185588
42035,154205,38254,185576
42044,154209,38250,185588
42094,154197,38271,185578
42104,154177,38261,185580
42115,154197,38268,185565
42172,154216,38257,185581
42174,154214,38269,185586
42184,154200,38292,185563
42195,154223,38282,185586
42205,154226,38264,185599
42214,154252,38268,185588
42228,154261,38275,185605
42234,154262,38262,185612
42315,154271,38204,185631
42317,154272,38191,185615
42325,154257,38204,185621
42350,154280,38178,185604
42354,154306,38178,185617
42391,154305,38160,185622
42394,154302,38167,185624
42404,154323,38154,185654
42565,154396,38170,185724
42569,154407,38167,185732
42614,154426,38181,185761
42624,154433,38155,185783
42650,154456,38178,185778
42737,154529,38185,185838
42744,154508,38213,185878
42813,154557,38217,185893
42816,154582,38210,185873
42851,154581,38228,185913
42854,154586,38227,185917
42864,154562,38222,185950
42890,154589,38248,185918
42894,154590,38232,185917
42904,154575,38248,185895
42929,154591,38249,185923
42933,154595,38250,185933
42943,154637,38257,185912
42954,154590,38255,185922
42990,154594,38265,185939
43009,154607,38258,185940
43054,154599,38277,185945
43064,154611,38286,185927
43074,154601,38282,185953
43083,154626,38282,185953
43093,154612,38291,185948
43103,154603,38293,185955
43113,154614,38285,185962
43150,154633,38303,185984
43154,154622,38298,185974
43164,154653,38295,185987
43173,154629,38288,185987
43184,154645,38280,185993
43194,154653,38261,185971
43204,154656,38266,185977
43213,154632,38242,186016
43223,154620,38226,185983
43234,154649,38245,185980
43244,154635,38217,185986
43253,154642,38196,185973
43263,154624,38201,185997
43274,154635,38216,185996
43284,154611,38198,185993
43333,154631,38176,186002
43392,154636,38160,185986
43395,154648,38163,185992
43404,154650,38157,185983
43414,154646,38173,185959
43423,154634,38163,185965
43433,154625,38154,185944
43443,154636,38158,185962
43470,154633,38165,185949
43473,154629,38162,185946
43483,154610,38177,185975
43494,154634,38159,185933
43503,154618,38171,185950
43513,154605,38180,185948
43523,154625,38166,185928
43534,154629,38167,185952
43543,154650,38178,185943
43553,154657,38156,185959
43569,154634,38179,185947
43677,154661,38181,185968
43691,154657,38173,185961
43693,154668,38190,185965
43703,154680,38171,185963
43754,154678,38211,185975
43763,154659,38196,185964
43773,154669,38193,185966
43789,154672,38192,185968
43810,154687,38209,185970
43813,154675,38212,185971
43829,154656,38193,185958
43833,154684,38217,185987
43872,154687,38219,185973
43890,154696,38233,185961
43893,154690,38228,185978
43903,154688,38237,185981
43914,154693,38245,185992
43972,154725,38237,186002
44014,154762,38250,186049
44023,154730,38264,186028
44033,154766,38249,186045
44042,154768,38248,186053
44052,154774,38243,186057
44113,154757,38258,186065
44117,154746,38272,186024
44123,154746,38272,186024
44173,154734,38218,186030
44183,154710,38194,185998
44193,154708,38209,185998
44203,154700,38189,185999
44212,154672,38181,185987
44223,154668,38178,185974
44317,154614,38121,185884
44323,154572,38111,185867
44350,154608,38112,185869
44394,154588,38104,185821
44403,154548,38102,185809
44430,154535,38108,185798
44432,154531,38094,185789
44442,154533,38109,185801
44452,154512,38114,185776
44462,154485,38112,185759
44472,154499,38107,185748
44482,154496,38096,185715
44493,154475,38090,185737
44502,154450,38101,185734
44512,154462,38081,185725
44528,154443,38087,185712
44533,154433,38091,185731
44542,154403,38085,185652
44569,154413,38100,185693
44573,154401,38098,185681
44583,154379,38102,185700
44592,154382,38101,185658
44602,154374,38100,185627
44612,154372,38089,185640
44623,154352,38105,185634
44694,154314,38107,185615
44697,154316,38105,185617
44709,154278,38086,185546
44712,154297,38108,185598
44722,154270,38115,185551
44817,154212,38116,185517
44822,154208,38125,185500
44833,154227,38102,185504
44842,154210,38121,185500
44894,154181,38138,185485
44997,154117,38140,185437
44999,154112,38132,185422
45053,154096,38153,185435
45071,154076,38166,185436
45073,154098,38166,185443
45082,154095,38171,185434
45109,154100,38159,185455
45217,154088,38071,185429
45219,154084,38069,185399
45221,154060,38057,185376
45232,154045,38086,185361
45242,154071,38056,185398
45251,154041,38055,185394
45291,154066,38050,185384
45293,154057,38041,185402
45375,154031,38041,185390
45376,154031,38034,185377
45388,154020,38046,185323
45391,154059,38044,185367
45431,154030,38045,185383
45543,154007,38037,185374
45572,154010,38042,185358
45574,153996,38051,185358
45589,154004,38043,185327
45653,153995,38066,185356
45656,153987,38069,185351
45735,153985,38079,185342
45737,153982,38085,185364
45741,153977,38100,185374
45813,153973,38094,185350
45816,153982,38092,185348
45821,153978,38103,185352
45873,153989,38110,185376
45881,153975,38129,185301
45891,153976,38116,185333
45901,153974,38108,185384
45911,153982,38122,185355
45928,153967,38127,185373
45931,153999,38124,185369
45949,153991,38103,185333
45951,153993,38136,185377
45969,153999,38120,185328
46145,154022,38041,185404
46236,154063,38023,185430
46238,154060,38029,185439
46250,154089,38029,185440
46252,154062,38036,185403
46372,154089,38050,185475
46433,154101,38063,185496
46474,154107,38082,185506
46481,154101,38069,185509
46491,154106,38077,185513
46500,154110,38098,185523
46510,154120,38092,185528
46528,154110,38095,185497
46531,154099,38086,185521
46541,154109,38126,185507
46550,154094,38101,185500
46591,154105,38102,185546
46610,154102,38091,185557
46613,154110,38117,185541
46621,154105,38093,185533
46649,154116,38117,185562
46737,154122,38167,185595
46741,154110,38126,185570
46750,154116,38154,185634
46769,154124,38167,185615
46771,154125,38173,185605
46781,154125,38168,185602
46791,154120,38167,185613
46809,154129,38188,185622
46831,154133,38164,185596
46875,154158,38183,185650
46880,154155,38180,185661
46890,154157,38190,185671
46901,154150,38160,185656
46911,154182,38165,185674
46920,154175,38156,185680
46974,154184,38123,185716
46980,154204,38116,185722
46991,154197,38113,185730
47000,154210,38123,185728
47010,154179,38107,185749
47030,154196,38110,185723
47032,154206,38104,185751
47071,154215,38100,185771
47073,154227,38100,185773
47081,154253,38090,185782
47154,154266,38103,185834
47194,154277,38123,185871
47200,154292,38130,185862
47209,154294,38128,185870
47220,154295,38114,185879
47230,154288,38128,185847
47241,154266,38113,185891
47250,154288,38127,185855
47269,154270,38128,185880
47271,154280,38120,185867
47354,154287,38152,185868
47414,154312,38156,185899
47416,154321,38159,185889
47429,154314,38170,185880
47431,154288,38173,185895
47439,154317,38173,185898
47450,154329,38157,185910
47471,154321,38190,185910
47520,154334,38193,185910
47550,154341,38198,185915
47552,154341,38206,185944
47559,154355,38205,185932
47569,154350,38204,185932
47580,154355,38211,185925
47590,154361,38206,185929
47630,154339,38237,185936
47632,154333,38241,185935
47640,154345,38238,185924
47671,154336,38243,185918
47679,154345,38240,185930
47689,154334,38252,185927
47708,154321,38248,185922
47752,154318,38271,185918
47759,154291,38270,185927
47880,154291,38243,185914
48030,154212,38167,185812
48032,154201,38165,185804
48080,154187,38149,185782
48089,154161,38153,185766
48099,154194,38150,185787
48109,154180,38168,185767
48119,154171,38195,185765
48152,154181,38169,185775
48159,154174,38160,185768
48169,154179,38146,185771
48179,154155,38165,185737
48190,154150,38179,185734
48200,154134,38163,185735
48209,154135,38176,185734
48230,154111,38156,185706
48279,154082,38176,185690
48290,154085,38166,185679
48299,154070,38194,185656
48309,154058,38193,185677
48331,154079,38183,185674
48379,154045,38193,185668
48389,154041,38191,185662
48455,153987,38198,185631
48458,153976,38204,185611
48469,153983,38219,185596
48490,153970,38222,185581
48499,153955,38212,185579
48509,153972,38210,185579
48519,153925,38217,185543
48552,153910,38222,185544
48559,153904,38225,185538
48569,153897,38221,185529
48579,153876,38227,185527
48589,153884,38235,185505
48599,153867,38227,185485
48609,153849,38239,185497
48619,153846,38249,185493
48628,153826,38240,185489
48638,153850,38250,185486
48693,153830,38253,185467
48699,153809,38260,185461
48708,153813,38243,185459
48718,153802,38256,185472
48728,153782,38269,185492
48779,153792,38242,185471
48812,153801,38245,185498
48917,153769,38182,185432
48930,153737,38167,185422
48938,153737,38170,185453
48949,153752,38161,185431
48970,153753,38179,185455
48978,153750,38162,185460
49099,153719,38175,185445
49110,153736,38168,185420
49118,153744,38166,185440
49127,153712,38182,185452
49149,153731,38168,185428
49199,153717,38181,185440
49208,153719,38179,185439
49230,153716,38191,185442
49238,153731,38175,185438
49248,153719,38190,185438
49258,153728,38188,185447
49268,153724,38195,185430
49358,153727,38206,185446
49391,153723,38221,185469
49398,153706,38211,185457
49408,153729,38215,185469
49517,153727,38255,185482
49519,153719,38250,185472
49551,153711,38256,185473
49558,153702,38261,185488
49568,153699,38269,185459
49578,153709,38260,185468
49612,153718,38276,185452
49618,153708,38268,185471
49627,153719,38254,185454
49678,153719,38237,185488
49688,153720,38244,185506
49698,153725,38231,185488
49708,153724,38217,185497
49717,153720,38228,185486
49728,153718,38215,185487
49750,153726,38208,185499
49757,153712,38216,185480
49767,153724,38199,185479
49777,153713,38198,185465
49876,153756,38180,185519
49879,153763,38183,185532
49888,153738,38197,185506
49898,153753,38200,185511
49931,153778,38199,185563
49950,153784,38208,185587
49958,153787,38203,185576
49967,153807,38205,185593
50058,153826,38190,185641
50068,153829,38206,185651
50078,153832,38227,185629
50110,153856,38229,185667
50130,153873,38235,185678
50137,153864,38233,185692
50147,153865,38250,185678
50157,153857,38248,185720
50192,153887,38243,185709
50277,153921,38272,185756
50287,153903,38276,185726
50310,153913,38279,185770
50330,153930,38287,185769
50350,153921,38279,185769
50357,153926,38289,185787
50367,153910,38302,185794
50391,153922,38298,185805
50507,153935,38330,185826
50532,153946,38322,185830
50537,153947,38329,185847
50546,153967,38323,185858
50557,153976,38325,185853
50567,153981,38302,185868
50590,153976,38299,185876
50597,153981,38292,185868
50607,153970,38283,185882
50630,153987,38260,185890
50637,153985,38271,185888
50649,153987,38265,185881
50657,153997,38263,185897
50666,153981,38240,185905
50716,154010,38250,185937
50727,154045,38237,185913
50737,154018,38241,185908
50750,154027,38223,185926
50770,154021,38230,185937
50777,154044,38223,185940
50787,154023,38237,185916
50796,154012,38243,185917
50806,154021,38260,185929
50830,154039,38227,185933
50837,154029,38253,185933
50872,154048,38250,185915
50876,154040,38240,185932
50886,154021,38253,185928
50897,154035,38245,185928
50907,154027,38248,185935
50929,154049,38249,185939
50936,154059,38246,185924
50946,154050,38258,185906
50957,154040,38256,185944
50966,154044,38256,185921
50976,154052,38275,185927
50986,154064,38257,185921
51010,154068,38265,185927
51017,154039,38254,185931
51027,154054,38259,185921
51037,154063,38265,185934
51046,154062,38274,185937
51056,154069,38269,185908
51113,154085,38277,185944
51130,154082,38271,185954
51218,154077,38307,185943
51226,154037,38323,185907
51317,154046,38303,185919
51326,154041,38298,185886
51336,154049,38319,185891
51457,154019,38321,185882
51470,153985,38300,185862
51534,153974,38255,185843
51536,153977,38241,185815
51545,153961,38223,185791
51570,153950,38222,185806
51577,153941,38216,185784
51586,153942,38215,185767
51611,153903,38214,185756
51630,153920,38194,185775
51636,153909,38188,185757
51649,153908,38193,185745
51670,153917,38189,185746
51676,153907,38180,185744
51686,153887,38175,185732
51753,153869,38181,185685
51769,153853,38194,185701
51857,153796,38171,185648
51866,153766,38162,185632
51876,153783,38180,185600
51886,153775,38172,185624
51910,153779,38158,185605
51929,153758,38174,185614
51936,153742,38174,185590
51946,153748,38175,185603
51956,153743,38183,185581
51965,153728,38175,185568
51975,153726,38180,185573
51985,153704,38172,185553
51996,153691,38190,185560
52005,153693,38176,185529
52015,153683,38183,185532
52029,153688,38179,185536
52118,153599,38200,185475
52129,153593,38196,185455
52135,153611,38179,185457
52145,153597,38189,185444
52170,153572,38207,185435
52175,153553,38195,185421
52189,153568,38196,185430
52235,153539,38196,185435
52246,153557,38193,185424
52255,153539,38199,185409
52291,153529,38211,185421
52295,153518,38201,185419
52305,153493,38212,185393
52315,153518,38218,185410
52326,153496,38213,185408
52335,153531,38219,185398
52345,153516,38208,185426
52396,153518,38173,185428
52410,153507,38170,185374
52456,153493,38137,185374
52465,153486,38121,185357
52515,153483,38110,185365
52529,153505,38099,185360
52536,153508,38092,185360
52545,153505,38093,185343
52570,153516,38099,185384
52590,153519,38105,185365
52595,153507,38081,185375
52605,153526,38085,185360
52615,153490,38085,185351
52625,153487,38069,185345
52634,153491,38089,185342
52693,153517,38100,185379
52695,153510,38084,185362
52705,153535,38087,185367
52730,153523,38096,185376
52794,153524,38083,185365
52877,153525,38122,185384
52955,153550,38114,185364
52957,153537,38114,185411
52969,153518,38124,185383
53057,153559,38155,185413
53064,153534,38153,185354
53075,153571,38135,185394
53088,153552,38162,185386
53110,153559,38149,185404
53115,153548,38161,185411
53152,153542,38171,185399
53170,153520,38166,185454
53174,153553,38162,185418
53233,153567,38157,185423
53236,153567,38138,185429
53245,153540,38149,185457
53337,153584,38066,185431
53344,153585,38062,185399
53354,153606,38067,185414
53369,153593,38074,185445
53391,153605,38051,185446
53394,153622,38062,185464
53404,153616,38052,185453
53415,153630,38041,185455
53424,153630,38046,185487
53434,153667,38043,185496
53471,153687,38061,185514
53514,153704,38063,185560
53525,153718,38064,185568
53534,153743,38056,185569
53544,153734,38068,185581
53554,153755,38067,185615
53570,153745,38077,185610
53574,153758,38071,185642
53588,153808,38069,185635
53594,153777,38069,185650
53605,153800,38069,185659
53615,153816,38071,185660
53625,153801,38085,185661
53634,153793,38080,185662
53645,153815,38076,185689
53655,153812,38093,185690
53668,153825,38106,185717
53674,153840,38083,185726
53690,153839,38092,185707
53694,153851,38092,185735
53704,153846,38071,185736
53714,153861,38099,185746
53724,153868,38088,185745
53734,153855,38091,185748
53855,153877,38130,185762
53937,153884,38149,185766
53944,153888,38166,185727
54013,153911,38172,185761
54117,153902,38191,185780
54130,153908,38163,185730
54133,153928,38167,185769
54144,153901,38152,185758
54214,153909,38093,185737
54230,153910,38107,185713
54234,153916,38075,185734
54271,153904,38074,185733
54291,153895,38058,185753
54354,153890,38037,185695
54356,153888,38046,185696
54364,153886,38025,185681
54389,153879,38042,185668
54394,153883,38046,185660
54475,153892,38038,185675
54477,153885,38037,185675
54483,153870,38040,185668
54493,153880,38047,185667
54508,153886,38050,185653
54513,153883,38035,185662
54524,153872,38042,185657
54534,153877,38048,185651
54549,153874,38041,185646
54553,153875,38032,185648
54563,153869,38040,185638
54590,153875,38042,185641
54593,153871,38042,185646
54603,153827,38023,185630
54614,153866,38036,185636
54624,153830,38061,185629
54633,153849,38053,185630
54670,153838,38046,185615
54672,153826,38071,185616
54683,153816,38049,185617
54735,153793,38071,185577
54744,153786,38069,185570
54753,153785,38084,185565
54834,153733,38089,185530
54837,153723,38087,185518
54843,153696,38107,185478
54871,153693,38093,185504
54873,153665,38095,185490
54883,153660,38084,185456
54893,153663,38097,185448
54909,153658,38099,185445
54913,153636,38098,185462
54922,153646,38108,185403
54974,153607,38095,185411
55012,153560,38100,185396
55014,153538,38105,185384
55023,153527,38113,185375
55034,153528,38102,185364
55043,153524,38117,185369
55071,153532,38102,185382
55090,153528,38100,185349
55093,153523,38058,185380
55109,153518,38104,185351
55130,153519,38038,185357
55174,153467,38021,185329
55211,153451,38007,185311
55274,153448,37974,185308
55276,153435,37966,185322
55283,153419,37954,185289
55333,153426,37971,185319
55342,153413,37968,185302
55371,153431,37975,185314
55390,153424,37977,185294
55479,153406,37994,185317
55482,153402,37975,185280
55492,153391,37979,185298
55502,153393,37999,185304
55530,153405,37992,185320
55549,153404,38013,185296
55553,153415,38008,185305
55673,153398,38010,185295
55690,153391,38010,185260
55734,153396,38032,185311
55792,153404,38051,185298
55811,153407,38065,185250
55813,153410,38049,185313
55932,153445,38089,185317
55974,153469,38071,185330
55982,153451,38055,185325
55992,153473,38064,185325
56008,153476,38031,185330
56012,153468,38031,185329
56116,153484,37986,185318
56130,153497,37968,185324
56132,153505,37985,185338
56141,153514,37970,185308
56152,153519,37974,185337
56162,153537,37985,185342
56171,153522,37984,185362
56182,153504,37985,185372
56192,153532,37969,185363
56209,153541,37992,185378
56212,153537,37989,185364
56222,153550,38005,185377
56231,153540,37995,185380
56315,153577,38003,185429
56374,153608,38014,185466
56376,153627,38019,185452
56389,153605,38033,185444
56454,153654,38036,185523
56457,153663,38042,185513
56513,153711,38055,185556
56515,153700,38056,185562
56521,153691,38064,185596
56618,153725,38101,185624
56622,153726,38105,185629
56631,153727,38095,185621
56641,153752,38080,185619
56651,153748,38094,185617
56669,153748,38105,185635
56671,153767,38110,185640
56681,153759,38146,185661
56692,153759,38101,185653
56702,153769,38133,185649
56711,153761,38123,185656
56721,153777,38106,185668
56731,153755,38136,185658
56750,153778,38105,185671
56751,153780,38145,185681
56761,153775,38149,185684
56771,153750,38156,185665
56781,153799,38154,185665
56791,153777,38138,185680
56801,153798,38161,185706
56812,153781,38143,185705
56916,153820,38159,185752
56929,153831,38134,185750
56995,153834,38091,185768
56997,153832,38113,185769
57000,153842,38096,185753
57054,153851,38084,185779
57061,153869,38073,185758
57071,153859,38083,185782
57111,153885,38083,185793
57114,153880,38071,185791
57121,153892,38080,185777
57131,153886,38073,185789
57150,153880,38092,185776
57152,153860,38074,185779
57162,153885,38083,185756
57171,153870,38088,185760
57181,153866,38097,185748
57191,153870,38080,185736
57209,153878,38099,185753
57212,153897,38098,185756
57221,153879,38062,185744
57294,153895,38105,185769
57296,153904,38094,185777
57301,153914,38109,185760
57311,153909,38101,185765
57321,153925,38124,185769
57418,153977,38128,185801
57429,153955,38139,185790
57451,153966,38118,185769
57470,153982,38158,185806
57473,153973,38143,185787
57481,153971,38127,185767
57491,153972,38131,185805
57508,153975,38162,185798
57574,153975,38167,185808
57658,153960,38199,185785
57691,153962,38208,185789
57694,153946,38189,185770
57796,153907,38222,185721
57810,153900,38234,185720
57813,153902,38232,185719
57821,153895,38231,185725
57874,153869,38216,185711
57880,153888,38202,185725
57890,153880,38200,185706
57998,153825,38132,185621
58000,153805,38132,185621
58121,153780,38116,185571
58131,153724,38117,185555
58140,153748,38109,185531
58150,153737,38128,185532
58192,153733,38112,185515
58194,153741,38125,185533
58200,153713,38136,185508
58364,153648,38126,185452
58370,153652,38129,185438
58372,153627,38124,185438
58379,153626,38144,185449
58410,153632,38129,185434
58412,153599,38135,185427
58419,153618,38146,185409
58429,153578,38136,185409
58440,153603,38135,185400
58450,153610,38149,185399
58470,153584,38147,185387
58480,153572,38121,185381
58490,153565,38145,185370
58500,153549,38130,185395
58510,153591,38148,185369
58520,153564,38158,185372
58530,153547,38153,185378
58540,153554,38165,185380
58549,153572,38169,185393
58559,153567,38147,185395
58569,153538,38171,185384
58580,153571,38145,185394
58589,153553,38168,185350
58654,153544,38188,185373
58660,153531,38160,185394
58669,153529,38189,185383
58689,153525,38169,185376
58691,153524,38196,185377
58708,153532,38216,185381
58711,153516,38202,185376
58774,153522,38201,185364
58780,153508,38201,185376
58790,153502,38170,185369
58799,153502,38194,185328
58809,153513,38187,185380
58829,153525,38168,185373
58832,153525,38153,185373
58879,153503,38134,185316
58889,153506,38131,185331
58899,153498,38137,185330
58909,153490,38124,185332
58930,153499,38116,185325
59038,153500,38103,185315
59040,153499,38108,185302
59049,153490,38117,185286
59099,153498,38121,185321
59110,153496,38107,185316
59119,153494,38119,185328
59128,153495,38121,185314
59219,153544,38134,185333
59229,153526,38138,185305
59239,153496,38134,185319
59249,153519,38119,185322
59258,153542,38149,185318
59269,153542,38138,185334
59279,153535,38124,185342
59290,153557,38135,185345
59299,153547,38135,185354
59309,153561,38138,185366
59319,153547,38145,185370
59329,153551,38146,185366
59338,153575,38124,185357
59349,153569,38158,185371
59438,153606,38174,185401
59449,153593,38172,185417
59459,153631,38166,185422
59469,153636,38193,185433
59479,153625,38185,185437
59489,153638,38195,185430
59499,153605,38205,185441
59508,153623,38200,185443
59518,153639,38200,185462
59528,153639,38201,185447
59539,153652,38187,185464
59548,153643,38207,185449
59558,153646,38191,185462
59568,153660,38205,185453
59579,153645,38195,185467
59589,153650,38201,185455
59599,153664,38219,185487
59609,153675,38222,185492
59740,153721,38179,185543
59779,153725,38146,185538
59789,153731,38144,185525
59798,153735,38154,185553
59808,153745,38137,185537
59819,153736,38142,185551
59829,153741,38125,185555
59838,153755,38149,185562
59848,153770,38134,185562
59871,153775,38134,185587
59878,153771,38123,185591
59976,153795,38136,185635
59979,153812,38140,185631
60011,153807,38148,185655
60031,153805,38138,185660
60079,153802,38156,185697
60088,153799,38147,185666
60098,153804,38165,185664
60109,153804,38159,185670
60119,153807,38165,185682
60151,153820,38173,185687
60159,153821,38181,185691
60170,153798,38165,185676
60178,153823,38176,185693
60188,153811,38183,185687
60198,153801,38189,185706
60208,153809,38203,185688
60218,153805,38182,185693
60228,153795,38188,185683
60239,153788,38199,185703
60249,153801,38190,185655
60297,153792,38195,185661
60308,153786,38205,185658
60318,153790,38198,185662
60330,153791,38208,185651
60337,153798,38194,185691
60348,153786,38204,185669
60398,153798,38221,185678
60408,153783,38222,185659
60418,153777,38213,185658
60428,153783,38229,185664
60438,153758,38222,185644
60450,153788,38225,185659
60458,153789,38225,185665
60492,153766,38224,185672
60498,153778,38242,185680
60508,153745,38231,185678
60518,153762,38244,185682
60528,153761,38246,185683
60538,153781,38245,185671
60549,153769,38240,185691
60558,153789,38254,185704
60570,153770,38243,185696
60658,153810,38188,185738
60669,153771,38213,185714
60677,153806,38170,185733
60687,153802,38167,185740
60778,153818,38139,185777
60788,153806,38183,185719
60854,153819,38135,185760
60857,153812,38140,185738
60868,153796,38124,185722
60916,153800,38135,185703
60928,153814,38114,185693
60938,153793,38135,185701
60948,153791,38141,185678
60958,153771,38132,185678
60967,153774,38129,185675
60977,153775,38140,185665
60987,153789,38133,185688
60998,153764,38125,185692
61007,153776,38133,185662
61018,153783,38127,185692
61029,153777,38149,185664
61038,153779,38140,185679
61047,153782,38140,185657
61071,153777,38132,185685
61090,153775,38151,185672
61137,153739,38161,185662
61147,153764,38136,185642
61158,153728,38157,185644
61169,153727,38156,185636
61177,153728,38156,185644
61211,153709,38152,185641
61257,153698,38159,185612
61269,153678,38155,185603
61277,153667,38170,185609
61287,153672,38158,185601
61296,153663,38163,185562
61307,153665,38164,185601
61317,153649,38161,185594
61327,153630,38174,185574
61377,153610,38164,185540
61387,153587,38159,185535
61397,153593,38179,185539
61407,153569,38185,185508
61474,153555,38186,185497
61477,153549,38177,185495
61512,153527,38194,185512
61517,153534,38191,185480
61527,153499,38199,185498
61537,153528,38187,185488
61550,153501,38200,185479
61571,153532,38189,185506
61577,153548,38168,185509
61655,153549,38104,185518
61669,153558,38134,185519
61676,153594,38107,185555
61686,153600,38105,185534
61696,153625,38097,185552
61707,153618,38078,185560
61717,153644,38100,185587
61727,153652,38090,185619
61737,153703,38098,185665
61815,154027,38073,185878
61817,154023,38096,185919
61827,154066,38080,185964
61836,154095,38100,186084
61872,154245,38093,186324
61876,154292,38088,186428
61887,154353,38100,186531
61910,154489,38128,186705
61916,154549,38104,186774
61926,154588,38119,186880
61937,154611,38112,186940
61947,154662,38114,187012
61957,154681,38137,187075
61966,154711,38153,187114
61976,154745,38151,187141
62034,154774,38165,187230
62037,154771,38190,187221
62072,154742,38187,187181
62077,154743,38190,187197
62111,154711,38220,187133
62116,154700,38219,187111
62172,154688,38240,187000
62176,154696,38238,186999
62186,154723,38254,187015
62346,155260,38312,187732
62350,155260,38327,187795
62356,155166,38285,187760
62366,155046,38330,187814
62391,154905,38306,187853
62411,154849,38301,187932
62416,154856,38311,187960
62426,154828,38301,187968
62436,154808,38317,187969
62450,154766,38321,187959
62456,154731,38309,187967
62466,154668,38285,187961
62476,154615,38297,187917
62487,154602,38286,187946
62496,154607,38287,187945
62506,154596,38276,187940
62516,154580,38262,187928
62526,154556,38250,187926
62536,154513,38243,187891
62593,154324,38204,187800
62596,154286,38205,187780
62606,154230,38196,187735
62616,154220,38186,187769
62625,154216,38169,187746
62635,154214,38199,187758
62645,154184,38179,187753
62767,153996,38184,187773
63036,154193,38341,187806
63148,156017,38477,189421
63215,157103,38604,190336
63230,157092,38611,190328
63458,158119,38652,191277
63514,158299,38629,191358
63738,158829,38594,191723
63818,159104,38599,191953
63825,159109,38601,191912
63834,159093,38607,191935
63849,159081,38592,191923
63938,159263,38591,192089
64055,159198,38621,192082
64249,158793,38668,191811
64293,158692,38687,191781
64406,158764,38654,191879
64410,158760,38651,191879
64414,158734,38663,191826
64516,158909,38604,192000
64554,158972,38598,192105
64724,159081,38661,192298
64730,159061,38652,192292
64844,158972,38697,192244
64849,158952,38699,192234
64854,158906,38698,192249
65068,158535,38730,191970
65092,158549,38754,191981
65154,158438,38758,191955
"Disconnected,",reason,=,0x8