timestamp,red,green,ir
6758,173982,38214,223110
6768,173974,38243,223091
6779,173972,38220,223099
6789,173963,38214,223082
6798,173938,38230,223067
6814,173953,38213,223070
6818,173955,38220,223078
6900,173997,38206,223043
6903,173969,38217,223055
6908,173959,38251,223013
6917,173980,38223,223018
6928,173951,38217,223034
6938,173947,38216,223002
6955,173947,38220,223008
6958,173940,38216,223005
6967,173894,38209,223018
6978,173952,38211,222991
6988,173936,38208,223006
6999,173926,38211,222992
7081,173928,38199,222955
7083,173922,38212,222964
7087,173931,38207,222927
7097,173930,38197,222959
7107,173925,38226,222951
7118,173946,38203,222962
7128,173940,38196,222965
7179,173941,38204,222949
7188,173980,38205,222953
7198,173936,38220,222944
7208,173944,38196,222948
7217,173959,38200,222941
7321,173925,38202,222938
7324,173921,38199,222954
7328,173922,38222,222924
7337,173914,38193,222947
7347,173906,38199,222959
7357,173922,38178,222942
7368,173904,38192,222933
7377,173911,38204,222954
7387,173917,38192,222915
7507,173862,38191,222909
7514,173874,38191,222907
7603,173863,38174,222867
7607,173859,38207,222846
7618,173842,38177,222860
7627,173846,38176,222857
7679,173864,38162,222858
7694,173853,38174,222802
7698,173859,38171,222861
7757,173851,38164,222839
7775,173848,38169,222795
7778,173854,38169,222850
7788,173842,38189,222799
7797,173841,38162,222847
7807,173818,38164,222842
7817,173844,38156,222842
7827,173827,38136,222829
7855,173832,38150,222844
7858,173833,38158,222834
7867,173847,38163,222806
7895,173843,38145,222855
7916,173826,38155,222813
7917,173818,38137,222836
7927,173826,38149,222815
7937,173837,38147,222832
7998,173815,38143,222833
8000,173825,38127,222845
8007,173839,38139,222801
8035,173827,38139,222835
8099,173815,38129,222836
8101,173802,38123,222853
8107,173774,38137,222776
8117,173809,38143,222839
8126,173820,38158,222832
8136,173817,38116,222833
8147,173807,38135,222834
8157,173820,38108,222789
8174,173814,38121,222833
8176,173823,38138,222836
8186,173794,38105,222793
8214,173806,38133,222826
8279,173792,38128,222815
8281,173798,38118,222818
8287,173784,38117,222783
8296,173785,38121,222817
8358,173799,38125,222824
8360,173787,38105,222831
8367,173788,38128,222815
8376,173793,38109,222809
8386,173794,38120,222806
8397,173784,38104,222815
8436,173805,38106,222806
8438,173789,38107,222811
8447,173795,38100,222786
8474,173788,38105,222807
8477,173783,38086,222809
8487,173791,38136,222777
8498,173793,38092,222810
8507,173793,38104,222818
8517,173790,38106,222796
8534,173791,38095,222816
8537,173799,38088,222804
8546,173792,38089,222779
8557,173785,38105,222806
8567,173809,38095,222794
8577,173800,38082,222805
8660,173810,38080,222816
8663,173805,38094,222820
8666,173812,38081,222829
8676,173797,38100,222802
8687,173821,38088,222846
8697,173808,38096,222831
8713,173801,38097,222816
8716,173816,38087,222820
8726,173813,38106,222793
8737,173824,38074,222835
8747,173771,38096,222795
8756,173812,38098,222822
8766,173817,38091,222789
8776,173824,38071,222812
8837,173815,38097,222831
8839,173813,38088,222830
8941,173801,38085,222802
8956,173808,38058,222807
9000,173808,38083,222819
9006,173830,38080,222822
9016,173809,38071,222810
9026,173796,38087,222785
9037,173797,38085,222808
9046,173800,38098,222818
9056,173800,38087,222811
9066,173772,38082,222839
9119,173796,38077,222801
9126,173804,38056,222823
9155,173804,38082,222818
9158,173796,38071,222811
9166,173788,38056,222832
9175,173796,38094,222802
9195,173800,38061,222830
9198,173786,38074,222810
9236,173771,38077,222795
9239,173791,38077,222779
9246,173785,38059,222774
9255,173787,38066,222794
9265,173786,38078,222774
9276,173776,38069,222765
9286,173788,38071,222809
9295,173794,38046,222777
9305,173782,38056,222740
9315,173794,38062,222765
9326,173786,38063,222752
9400,173783,38075,222779
9402,173779,38060,222787
9406,173785,38060,222770
9416,173770,38058,222737
9425,173777,38052,222764
9436,173776,38071,222782
9454,173780,38051,222768
9563,173778,38052,222784
9754,173788,38036,222778
9756,173780,38036,222778
9765,173766,38056,222752
9775,173769,38045,222776
9786,173773,38028,222782
9795,173783,38041,222755
9805,173754,38039,222749
9815,173755,38037,222783
9865,173777,38008,222806
9875,173766,38045,222818
9894,173763,38035,222812
9897,173766,38020,222819
9915,173773,38013,222819
9917,173776,38025,222827
9925,173773,38030,222837
9956,173772,38037,222825
9975,173774,38023,222826
9978,173762,38022,222833
9986,173767,38003,222806
9996,173756,38016,222798
10014,173759,38033,222820
10017,173758,38023,222799
10026,173768,38017,222809
10036,173761,38027,222787
10045,173773,38030,222780
10055,173763,38014,222805
10065,173770,38027,222802
10075,173770,38020,222792
10084,173744,38034,222776
10095,173750,38017,222815
10105,173753,38018,222792
10115,173763,38013,222776
10125,173761,38017,222760
10179,173751,38012,222792
10196,173771,38015,222807
10205,173769,38024,222796
10214,173757,38029,222794
10225,173755,38011,222794
10298,173732,38011,222779
10301,173745,38000,222797
10304,173731,38009,222770
10315,173720,38007,222768
10325,173749,37998,222808
10334,173715,38007,222785
10354,173718,37997,222774
10357,173746,37998,222769
10365,173741,38008,222786
10375,173713,37987,222792
10424,173728,37995,222766
10435,173726,37997,222782
10445,173717,37989,222773
10455,173709,37988,222735
10464,173709,38000,222760
10518,173710,37988,222736
10525,173709,37967,222728
10535,173721,37984,222732
10544,173720,37990,222711
10620,173701,37981,222725
10625,173696,37970,222744
10634,173696,37968,222726
10645,173691,37973,222705
10655,173700,37987,222704
10719,173699,37984,222734
10724,173696,37975,222723
10735,173671,37968,222728
10745,173686,37973,222697
10755,173678,37963,222692
10805,173675,37954,222697
10815,173676,37963,222699
10825,173651,37979,222702
10878,173662,37967,222700
10884,173655,37972,222691
10894,173648,37961,222691
10904,173658,37990,222690
10980,173660,37950,222687
11025,173647,37957,222690
11035,173658,37965,222658
11044,173634,37966,222696
11054,173663,37951,222683
11144,173653,37952,222675
11155,173668,37953,222660
11165,173664,37967,222679
11174,173654,37976,222671
11239,173671,37966,222663
11244,173673,37964,222664
11254,173675,37967,222657
11264,173640,37987,222658
11274,173675,37965,222661
11364,173668,37969,222662
11375,173651,37958,222667
11384,173667,37973,222675
11394,173658,37955,222668
11458,173689,37978,222668
11464,173690,37974,222683
11474,173675,37971,222674
11484,173686,37979,222661
11494,173683,37977,222675
11503,173684,37975,222678
11513,173697,37985,222687
11524,173687,37973,222655
11534,173684,37981,222667
11543,173670,37966,222684
11598,173690,37983,222693
11604,173682,37994,222663
11614,173681,37974,222670
11624,173687,37998,222667
11634,173668,37991,222668
11643,173676,37983,222683
11654,173689,37973,222672
11664,173663,37982,222666
11674,173666,37970,222696
11696,173673,37979,222699
11704,173671,37983,222691
11780,173673,37986,222706
11783,173698,37982,222710
11794,173668,37995,222666
11803,173667,37984,222687
11814,173678,37984,222674
11864,173686,38002,222714
11874,173682,37985,222660
11883,173672,37998,222696
11894,173694,37984,222699
11916,173701,37986,222720
11923,173676,37990,222693
11933,173681,37997,222685
11943,173678,37984,222720
11955,173669,37988,222704
11963,173691,37993,222703
11973,173685,37977,222708
12039,173691,37986,222736
12083,173721,37982,222745
12093,173680,37978,222742
12143,173685,37982,222723
12154,173679,37984,222719
12164,173711,37990,222733
12173,173696,37970,222718
12196,173696,37980,222743
12204,173705,37984,222722
12213,173696,38009,222713
12235,173711,37984,222709
12243,173710,37986,222715
12297,173701,37994,222702
12303,173712,37997,222721
12313,173712,37999,222712
12323,173706,37994,222727
12333,173695,37998,222739
12343,173708,37984,222706
12353,173718,37984,222724
12403,173709,37995,222730
12436,173707,37992,222744
12483,173720,37996,222732
12493,173709,37999,222734
12502,173693,38006,222740
12513,173726,38002,222738
12522,173734,37983,222748
12533,173720,37992,222731
12542,173706,38013,222745
12552,173726,38009,222729
12576,173714,38006,222731
12595,173712,38002,222730
12602,173713,38017,222735
12613,173699,38018,222740
12623,173725,37999,222736
12634,173715,38025,222731
12683,173722,38001,222739
12695,173717,38004,222746
12703,173729,38012,222746
12712,173718,38009,222734
12722,173722,38025,222751
12732,173723,38006,222763
12756,173718,38021,222770
12775,173712,38023,222750
12783,173726,38017,222740
12792,173722,38005,222746
12882,173729,38019,222745
12894,173709,38019,222717
12902,173717,38014,222736
12912,173713,38021,222731
12922,173710,38006,222742
12932,173723,38003,222751
12983,173717,38012,222730
12993,173750,38015,222732
13002,173737,38004,222747
13012,173706,38023,222720
13022,173718,38017,222741
13035,173714,38011,222717
13042,173733,38028,222740
13163,173709,38015,222715
13175,173694,38013,222685
13182,173700,38008,222719
13192,173712,38016,222711
13203,173719,38011,222692
13237,173700,38015,222707
13243,173712,38009,222718
13277,173704,37999,222706
13282,173692,38015,222701
13292,173698,38019,222701
13302,173706,38017,222683
13358,173701,38013,222723
13362,173689,38013,222704
13440,173694,38017,222698
13456,173670,38040,222713
13461,173678,38014,222692
13472,173689,38004,222678
13496,173701,38011,222698
13559,173699,38020,222724
13561,173694,38014,222729
13572,173696,38001,222677
13582,173696,38007,222702
13617,173696,37991,222745
13623,173687,38006,222727
13632,173689,38005,222721
13656,173685,38004,222716
13675,173692,38007,222731
13681,173702,38014,222704
13691,173689,38010,222723
13702,173677,37990,222707
13711,173666,38020,222694
13722,173667,37994,222697
13732,173672,37988,222696
13742,173686,38005,222673
13751,173673,38007,222684
13761,173670,38013,222688
13771,173661,38008,222673
13781,173668,38002,222693
13881,173664,37996,222652
13895,173650,38006,222624
13902,173647,37994,222642
13912,173651,38000,222649
13935,173638,37992,222648
13941,173646,37998,222635
13951,173630,37994,222637
14019,173644,37985,222621
14021,173642,37993,222629
14031,173629,37982,222611
14041,173649,37989,222618
14051,173632,37986,222606
14101,173638,37994,222602
14136,173622,37989,222586
14141,173621,37986,222583
14177,173604,37988,222545
14240,173609,37991,222538
14242,173605,37990,222513
14250,173584,37998,222507
14261,173594,37995,222514
14318,173591,37993,222461
14379,173652,38000,222514
14382,173677,37999,222503
14391,173681,38016,222494
14401,173690,38007,222508
14412,173695,37988,222504
14421,173689,37994,222473
14458,173709,38016,222506
14461,173725,38026,222504
14471,173695,38034,222480
14481,173694,38032,222463
14495,173724,38040,222493
14500,173710,38020,222483
14511,173732,38028,222468
14561,173745,38042,222465
14575,173720,38057,222428
14581,173737,38048,222445
14590,173739,38057,222415
14601,173734,38054,222405
14611,173740,38067,222412
14622,173748,38048,222414
14631,173736,38061,222399
14641,173722,38068,222402
14655,173720,38069,222382
14661,173729,38066,222367
14670,173713,38080,222365
14720,173701,38072,222346
14779,173645,38070,222275
14781,173645,38086,222265
14791,173605,38117,222238
14800,173634,38073,222281
14810,173629,38071,222258
14820,173633,38092,222292
14831,173630,38081,222289
14855,173627,38075,222323
14861,173630,38078,222319
14871,173620,38083,222330
14880,173622,38082,222306
14890,173598,38085,222307
14900,173606,38074,222303
14911,173587,38073,222272
14921,173589,38087,222256
14931,173573,38076,222258
14941,173565,38075,222264
14951,173564,38071,222238
14960,173564,38066,222258
14971,173559,38064,222227
14981,173549,38072,222239
14991,173555,38065,222235
15000,173561,38061,222234
15011,173535,38073,222245
15020,173554,38068,222223
15031,173552,38050,222221
15041,173541,38075,222214
15050,173539,38046,222205
15060,173545,38036,222214
15070,173533,38071,222221
15081,173534,38063,222236
15090,173524,38059,222217
15100,173535,38057,222248
15110,173532,38067,222223
15120,173536,38064,222248
15129,173541,38054,222280
15140,173535,38040,222276
15151,173541,38051,222281
15160,173541,38042,222254
15170,173534,38044,222268
15180,173542,38044,222264
15191,173538,38035,222263
15201,173532,38046,222242
15210,173532,38040,222254
15220,173507,38034,222274
15230,173517,38051,222271
15240,173538,38036,222278
15250,173535,38030,222268
15260,173509,38030,222278
15270,173526,38031,222263
15281,173510,38047,222254
15291,173523,38041,222278
15300,173527,38033,222282
15310,173510,38059,222273
15320,173530,38052,222270
15330,173499,38050,222281
15340,173501,38054,222273
15350,173516,38042,222293
15360,173503,38031,222281
15371,173507,38033,222247
15395,173505,38034,222301
15400,173515,38040,222292
15411,173529,38021,222279
15419,173524,38040,222267
15429,173517,38043,222298
15440,173509,38052,222306
15450,173518,38032,222310
15459,173512,38035,222283
15469,173510,38054,222297
15480,173519,38031,222293
15491,173513,38029,222300
15500,173490,38030,222281
15510,173528,38034,222292
15520,173514,38044,222288
15530,173515,38060,222300
15541,173500,38064,222320
15550,173519,38041,222317
15560,173526,38051,222317
15570,173535,38059,222334
15580,173546,38049,222323
15590,173539,38042,222323
15599,173532,38043,222320
15610,173532,38055,222307
15620,173538,38069,222331
15629,173516,38066,222350
15639,173547,38056,222347
15650,173533,38063,222351
15661,173532,38067,222343
15670,173541,38055,222342
15680,173521,38066,222361
15690,173548,38070,222353
15700,173543,38068,222350
15709,173554,38055,222354
15720,173550,38050,222342
15730,173554,38056,222345
15740,173546,38065,222336
15750,173544,38075,222350
15759,173523,38071,222367
15769,173556,38070,222323
15780,173540,38070,222361
15790,173542,38081,222332
15799,173535,38075,222352
15810,173534,38067,222364
15820,173535,38059,222347
15830,173560,38080,222353
15840,173557,38069,222349
15850,173545,38071,222348
15860,173528,38079,222362
15870,173552,38075,222339
15879,173522,38075,222347
15890,173552,38060,222368
15900,173542,38065,222346
15910,173523,38074,222349
15919,173547,38072,222367
15929,173538,38064,222354
15940,173532,38062,222336
15950,173541,38066,222346
15959,173550,38087,222371
15970,173541,38066,222360
15980,173539,38084,222353
15990,173559,38077,222352
16000,173548,38072,222360
16009,173535,38073,222373
16020,173556,38093,222362
16030,173534,38089,222370
16040,173564,38081,222348
16049,173561,38078,222370
16059,173555,38080,222378
16069,173552,38096,222355
16080,173537,38091,222366
16089,173569,38086,222352
16099,173546,38085,222359
16109,173549,38088,222376
16120,173556,38080,222372
16129,173554,38078,222375
16139,173566,38072,222379
16150,173563,38069,222372
16160,173562,38092,222377
16169,173534,38089,222387
16179,173549,38083,222379
16189,173536,38102,222378
16200,173548,38097,222375
16209,173552,38077,222380
16219,173554,38089,222396
16229,173552,38076,222389
16239,173563,38082,222398
16249,173561,38102,222390
16259,173542,38091,222410
16269,173572,38092,222400
16279,173562,38090,222414
16290,173565,38079,222406
16299,173566,38092,222422
16309,173571,38089,222422
16320,173556,38085,222420
16330,173563,38075,222433
16339,173559,38092,222425
16349,173580,38085,222442
16359,173569,38101,222434
16369,173581,38094,222434
16379,173557,38098,222431
16389,173581,38083,222429
16399,173582,38095,222451
16410,173552,38101,222427
16418,173574,38096,222443
16429,173577,38071,222438
16439,173566,38096,222441
16450,173584,38080,222444
16459,173571,38091,222433
16469,173573,38085,222422
16479,173559,38080,222449
16489,173574,38089,222453
16500,173570,38098,222429
16509,173554,38096,222457
16519,173571,38100,222449
16529,173572,38098,222441
16539,173567,38086,222461
16549,173567,38067,222459
16559,173593,38085,222448
16569,173576,38096,222470
16580,173570,38083,222452
16589,173581,38074,222439
16599,173566,38083,222459
16609,173556,38075,222468
16620,173559,38074,222463
16629,173577,38081,222464
16639,173575,38087,222474
16649,173561,38084,222478
16659,173592,38072,222467
16668,173564,38089,222468
16678,173577,38079,222484
16688,173578,38068,222463
16699,173572,38069,222476
16709,173561,38078,222468
16719,173579,38087,222458
16729,173546,38069,222434
16739,173570,38081,222471
16749,173563,38079,222445
16759,173553,38088,222459
16769,173546,38081,222457
16779,173552,38074,222460
16789,173564,38067,222467
16798,173559,38085,222452
16808,173551,38082,222452
16819,173557,38069,222474
16829,173554,38077,222456
16838,173549,38070,222453
16848,173557,38066,222457
16859,173550,38059,222443
16869,173537,38063,222462
16878,173540,38046,222456
16889,173546,38047,222423
16899,173547,38061,222429
16909,173524,38053,222441
16918,173536,38054,222445
16928,173547,38064,222449
16939,173545,38056,222426
16949,173537,38047,222451
16958,173551,38067,222433
16968,173557,38048,222419
16979,173559,38069,222409
16989,173570,38057,222423
16999,173552,38040,222441
17009,173532,38053,222431
17019,173539,38062,222411
17029,173548,38048,222433
17039,173526,38053,222443
17048,173539,38053,222446
17059,173538,38047,222427
17069,173524,38055,222444
17079,173554,38056,222444
17088,173537,38038,222437
17098,173536,38054,222423
17108,173547,38050,222436
17119,173536,38038,222449
17128,173547,38053,222435
17138,173553,38037,222445
17149,173542,38043,222436
17159,173538,38055,222415
17168,173535,38030,222410
17178,173526,38049,222428
17188,173540,38037,222442
17199,173545,38033,222418
17208,173509,38048,222418
17218,173522,38041,222427
17228,173535,38044,222403
17238,173528,38040,222433
17248,173522,38056,222393
17258,173515,38048,222411
17269,173528,38036,222429
17278,173540,38046,222387
17289,173529,38029,222411
17298,173525,38040,222433
17308,173535,38028,222394
17319,173505,38040,222422
17329,173508,38042,222432
17338,173507,38019,222425
17348,173519,38017,222411
17359,173512,38031,222411
17369,173530,38038,222389
17378,173504,38024,222413
17388,173529,38033,222415
17398,173527,38043,222415
17409,173496,38034,222398
17418,173523,38027,222418
17428,173521,38034,222376
17438,173517,38020,222407
17455,173510,38033,222391
17458,173506,38028,222403
17468,173485,38039,222382
17478,173508,38043,222378
17488,173497,38025,222399
17498,173512,38007,222375
17508,173491,38011,222377
17518,173517,38016,222367
17529,173502,37999,222383
17539,173504,38024,222378
17548,173494,38016,222377
17558,173500,38008,222374
17568,173517,38016,222391
17578,173487,38010,222379
17588,173500,38005,222361
17598,173498,38003,222357
17609,173500,38005,222385
17618,173518,38002,222370
17628,173497,37998,222360
17638,173497,38006,222375
17648,173485,38000,222355
17658,173496,37989,222360
17667,173500,37999,222366
17678,173487,37996,222357
17688,173483,37996,222326
17698,173480,37984,222351
17708,173518,37988,222349
17718,173482,38002,222356
17728,173477,37988,222342
17738,173492,37963,222342
17748,173478,37965,222329
17758,173475,37975,222362
17768,173497,37986,222339
17778,173487,37975,222341
17788,173494,37973,222353
17798,173486,37980,222333
17808,173483,37971,222340
17818,173483,37984,222356
17828,173482,37984,222359
17837,173486,37954,222343
17848,173478,37972,222347
17858,173489,37964,222342
17868,173483,37974,222333
17878,173477,37963,222350
17888,173475,37974,222356
17898,173455,37966,222341
17908,173462,37956,222335
17917,173480,37964,222323
17927,173469,37962,222333
17938,173468,37963,222333
17948,173466,37975,222335
17958,173477,37962,222320
17967,173465,37957,222339
17977,173480,37932,222330
17988,173478,37955,222343
17998,173463,37956,222340
18007,173442,37950,222345
18017,173470,37943,222330
18028,173472,37938,222336
18038,173450,37959,222322
18048,173479,37931,222317
18058,173466,37946,222310
18068,173458,37951,222335
18078,173470,37959,222337
18087,173427,37949,222350
18097,173459,37942,222338
18108,173465,37938,222332
18118,173473,37949,222304
18127,173460,37947,222335
18138,173456,37932,222324
18148,173432,37948,222321
18158,173455,37946,222335
18167,173459,37938,222332
18177,173457,37941,222322
18187,173467,37931,222329
18198,173464,37938,222328
18208,173458,37936,222335
18217,173461,37928,222326
18227,173463,37945,222346
18238,173466,37931,222330
18248,173467,37935,222342
18257,173462,37916,222324
18267,173456,37939,222341
18277,173466,37924,222335
18287,173476,37931,222334
18297,173451,37928,222323
18308,173457,37903,222338
18318,173440,37936,222295
18328,173431,37934,222305
18337,173440,37926,222308
18347,173446,37928,222299
18358,173434,37931,222306
18368,173457,37926,222286
18377,173428,37925,222293
18387,173406,37921,222322
18398,173454,37917,222306
18408,173426,37912,222308
18417,173437,37922,222305
18427,173445,37924,222306
18437,173445,37907,222308
18448,173444,37908,222294
18458,173422,37914,222269
18467,173408,37904,222296
18477,173453,37907,222300
18488,173459,37906,222307
18498,173447,37917,222308
18507,173426,37904,222295
18518,173442,37887,222294
18528,173434,37895,222273
18538,173448,37912,222288
18547,173455,37886,222296
18557,173440,37899,222275
18567,173431,37877,222282
18578,173423,37892,222261
18587,173397,37897,222272
18597,173414,37896,222241
18607,173446,37878,222270
18617,173428,37880,222239
18626,173428,37887,222250
18637,173405,37881,222258
18647,173406,37872,222271
18657,173422,37865,222270
18667,173401,37880,222283
18677,173424,37891,222272
18688,173442,37874,222262
18697,173429,37880,222261
18708,173422,37870,222260
18717,173417,37882,222260
18727,173405,37869,222250
18737,173412,37869,222248
18747,173418,37861,222254
18757,173418,37873,222273
18767,173431,37865,222266
18777,173417,37868,222274
18787,173420,37866,222262
18797,173421,37852,222274
18807,173394,37857,222262
18817,173429,37847,222275
18828,173397,37868,222271
18837,173420,37859,222265
18847,173436,37858,222232
18857,173421,37867,222257
18867,173419,37849,222258
18876,173426,37848,222278
18886,173432,37859,222272
18897,173404,37856,222282
18908,173437,37850,222280
18917,173439,37857,222267
18927,173456,37845,222276
18937,173416,37849,222270
18947,173422,37843,222290
18957,173432,37852,222254
18966,173411,37848,222278
18977,173406,37852,222284
18987,173424,37853,222265
18997,173419,37833,222293
19007,173444,37836,222264
19017,173413,37848,222262
19027,173430,37854,222276
19037,173427,37844,222282
19046,173443,37850,222278
19057,173417,37853,222266
19067,173426,37859,222268
19077,173411,37839,222295
19087,173444,37849,222290
19097,173431,37849,222261
19107,173426,37845,222276
19117,173408,37850,222280
19126,173416,37840,222283
19137,173420,37839,222296
19147,173451,37848,222296
19157,173431,37845,222304
19166,173433,37845,222308
19176,173426,37842,222295
19186,173417,37848,222303
19197,173445,37841,222324
19208,173448,37854,222327
19236,173439,37844,222312
19238,173433,37841,222308
19247,173429,37849,222305
19257,173433,37838,222302
19267,173444,37833,222296
19277,173429,37841,222329
19287,173431,37845,222307
19297,173439,37833,222329
19307,173455,37848,222332
19317,173436,37824,222331
19327,173456,37849,222310
19336,173422,37853,222339
19346,173455,37837,222362
19357,173449,37834,222330
19367,173452,37833,222324
19376,173447,37825,222331
19386,173474,37832,222353
19397,173465,37844,222354
19407,173470,37845,222350
19416,173468,37841,222360
19426,173459,37839,222348
19436,173469,37830,222375
19446,173442,37830,222352
19457,173450,37844,222346
19466,173479,37813,222341
19476,173466,37837,222355
19486,173476,37826,222358
19496,173464,37823,222346
19506,173456,37811,222359
19516,173470,37818,222353
19527,173479,37815,222380
19537,173459,37813,222329
19546,173470,37823,222356
19556,173462,37811,222343
19567,173476,37817,222354
19577,173467,37819,222358
19586,173463,37829,222347
19596,173460,37831,222333
19606,173459,37815,222325
19616,173446,37827,222345
19626,173467,37828,222347
19636,173467,37811,222345
19647,173469,37825,222369
19657,173476,37823,222342
19666,173453,37826,222348
19676,173440,37835,222355
19686,173469,37821,222359
19697,173465,37818,222351
19707,173489,37818,222346
19716,173469,37815,222368
19757,173472,37826,222347
19759,173486,37826,222374
19766,173502,37811,222361
19776,173476,37821,222355
19786,173485,37816,222363
19796,173502,37819,222351
19806,173490,37830,222357
19817,173503,37826,222390
19827,173502,37818,222362
19836,173495,37826,222383
19846,173500,37827,222399
19856,173492,37833,222404
19866,173522,37810,222432
19875,173518,37820,222417
19886,173541,37834,222441
19896,173496,37817,222425
19915,173516,37813,222409
19917,173531,37804,222417
19926,173520,37782,222404
19936,173526,37824,222381
19946,173532,37823,222388
19956,173522,37821,222434
19965,173543,37829,222429
19975,173535,37809,222429
19986,173548,37811,222424
19996,173537,37815,222418
20006,173539,37810,222439
20016,173536,37819,222405
20026,173521,37805,222430
20036,173533,37819,222433
20045,173526,37805,222426
20056,173550,37823,222403
20066,173533,37826,222370
20076,173530,37829,222418
20085,173532,37821,222406
20095,173534,37821,222437
20106,173545,37819,222442
20116,173548,37826,222426
20126,173544,37821,222428
20135,173544,37818,222432
20146,173541,37815,222424
20156,173549,37829,222422
20166,173555,37806,222432
20176,173547,37818,222413
20186,173564,37813,222443
20196,173561,37823,222427
20206,173551,37831,222454
20215,173565,37826,222444
20226,173566,37819,222422
20236,173572,37823,222434
20246,173587,37817,222437
20255,173581,37805,222448
20265,173545,37821,222455
20276,173553,37820,222451
20286,173575,37823,222482
20295,173566,37825,222450
20305,173588,37812,222475
20316,173559,37807,222450
20326,173582,37808,222462
20335,173553,37819,222446
20346,173574,37778,222424
20355,173578,37813,222417
20366,173566,37800,222410
20376,173585,37804,222448
20386,173560,37800,222450
20396,173570,37792,222450
20406,173578,37813,222444
20416,173552,37800,222431
20425,173571,37807,222453
20435,173587,37808,222423
20445,173576,37784,222451
20456,173580,37790,222457
20465,173587,37805,222441
20475,173582,37794,222445
20485,173586,37785,222453
20496,173612,37782,222442
20505,173585,37794,222400
20516,173587,37779,222444
20526,173573,37788,222451
20536,173597,37798,222442
20545,173583,37801,222417
20555,173580,37789,222441
20565,173596,37788,222444
20575,173588,37782,222423
20585,173583,37769,222438
20596,173598,37775,222416
20606,173596,37794,222431
20616,173586,37778,222418
20657,173595,37771,222442
20675,173595,37784,222476
20678,173583,37766,222459
20685,173604,37787,222458
20695,173605,37777,222463
20714,173622,37749,222454
20717,173625,37761,222480
20725,173616,37784,222479
20735,173595,37755,222471
20746,173614,37760,222472
20755,173612,37772,222500
20765,173613,37760,222493
20776,173592,37770,222481
20786,173616,37770,222489
20795,173604,37770,222488
20805,173607,37760,222503
20816,173609,37767,222504
20826,173607,37760,222509
20835,173611,37768,222530
20845,173619,37749,222508
20855,173630,37759,222503
20865,173628,37739,222512
20875,173631,37762,222531
20885,173622,37756,222529
20895,173632,37758,222539
20905,173614,37767,222532
20915,173608,37748,222553
20924,173647,37736,222545
20935,173644,37728,222551
20945,173627,37738,222542
20955,173632,37741,222540
20965,173652,37733,222569
20975,173658,37752,222568
20986,173653,37717,222606
20995,173658,37734,222576
21005,173652,37723,222616
21015,173670,37741,222620
21025,173664,37733,222620
21035,173668,37727,222629
21044,173679,37728,222614
21055,173685,37728,222633
21065,173670,37720,222631
21075,173685,37719,222643
21084,173687,37754,222655
21095,173671,37708,222651
21105,173674,37712,222657
21115,173678,37713,222648
21125,173687,37697,222667
21135,173692,37701,222683
21145,173688,37676,222684
21155,173690,37712,222680
21165,173694,37703,222694
21174,173654,37702,222681
21184,173687,37668,222660
21195,173687,37672,222658
21206,173676,37679,222688
21215,173692,37681,222633
21225,173681,37674,222677
21235,173676,37675,222673
21245,173682,37673,222659
21255,173663,37673,222670
21265,173670,37672,222675
21275,173674,37664,222672
21285,173681,37677,222632
21294,173668,37664,222662
21304,173676,37667,222663
21314,173670,37673,222671
21325,173684,37646,222678
21334,173661,37660,222657
21345,173666,37644,222662
21355,173660,37657,222637
21365,173658,37656,222654
21375,173652,37657,222652
21384,173684,37654,222640
21395,173679,37642,222657
21405,173688,37632,222662
21415,173670,37644,222663
21424,173661,37637,222646
21434,173658,37634,222655
21444,173643,37632,222645
21456,173678,37627,222661
21465,173671,37616,222658
21475,173655,37634,222663
21485,173677,37625,222638
21495,173648,37630,222644
21504,173671,37593,222628
21514,173666,37611,222638
21524,173653,37616,222645
21535,173671,37603,222631
21544,173668,37596,222636
21555,173671,37603,222641
21565,173670,37607,222659
21575,173663,37609,222634
21584,173663,37610,222621
21594,173651,37605,222623
21604,173647,37591,222647
21614,173636,37596,222640
21624,173651,37557,222612
21634,173648,37587,222620
21645,173651,37584,222607
21655,173657,37610,222619
21665,173655,37599,222631
21674,173647,37594,222618
21684,173633,37599,222591
21694,173649,37596,222631
21705,173636,37601,222602
21714,173634,37586,222584
21724,173640,37586,222620
21735,173633,37590,222610
21745,173629,37578,222612
21754,173637,37589,222615
21764,173646,37593,222617
21774,173647,37579,222627
21784,173646,37575,222612
21794,173637,37557,222594
21804,173636,37580,222600
21815,173625,37577,222609
21825,173639,37549,222593
21834,173654,37573,222608
21844,173644,37542,222597
21854,173632,37576,222593
21864,173638,37561,222596
21875,173615,37559,222587
21884,173636,37563,222610
21894,173629,37563,222590
21904,173634,37561,222610
21914,173627,37563,222579
21923,173645,37562,222590
21935,173636,37554,222583
21945,173644,37565,222564
21955,173620,37562,222563
21964,173617,37552,222619
21975,173614,37556,222595
21985,173611,37547,222567
21995,173637,37556,222588
22004,173600,37564,222571
22015,173634,37532,222574
22025,173613,37552,222583
22035,173618,37536,222585
22043,173615,37535,222557
22054,173632,37530,222572
22064,173631,37538,222558
22075,173613,37545,222579
22084,173616,37528,222565
22094,173628,37516,222583
22104,173613,37539,222559
22114,173630,37510,222548
22124,173621,37536,222569
22134,173610,37515,222551
22144,173592,37512,222509
22154,173607,37512,222535
22164,173612,37506,222552
22173,173596,37512,222540
22184,173602,37523,222515
22194,173601,37507,222544
22204,173592,37497,222537
22214,173585,37513,222535
22224,173592,37511,222524
22234,173598,37487,222516
22244,173592,37511,222523
22253,173590,37498,222514
22263,173582,37501,222517
22273,173603,37504,222516
22284,173600,37478,222508
22294,173593,37496,222475
22304,173603,37488,222499
22314,173571,37498,222517
22324,173576,37490,222490
22334,173596,37489,222497
22344,173597,37495,222484
22354,173581,37487,222504
22364,173571,37488,222497
22374,173563,37478,222496
22383,173571,37474,222497
22395,173570,37479,222517
22404,173570,37469,222504
22414,173590,37477,222488
22423,173593,37459,222500
22433,173554,37468,222480
22444,173579,37465,222471
22455,173569,37457,222485
22464,173564,37469,222494
22474,173599,37468,222455
22484,173560,37463,222470
22494,173586,37461,222485
22503,173582,37459,222455
22513,173573,37469,222482
22523,173566,37452,222479
22533,173591,37470,222487
22543,173593,37432,222460
22553,173574,37446,222437
22564,173564,37451,222469
22574,173574,37443,222473
22583,173571,37447,222445
22593,173566,37446,222481
22604,173563,37429,222470
22614,173572,37451,222463
22624,173579,37458,222471
22633,173563,37450,222460
22643,173568,37464,222458
22654,173563,37430,222474
22664,173586,37449,222479
22674,173573,37453,222478
22683,173587,37429,222450
22694,173577,37423,222489
22704,173577,37424,222457
22713,173593,37444,222489
22723,173592,37438,222460
22733,173594,37441,222458
22744,173592,37443,222498
22753,173578,37447,222473
22763,173575,37449,222491
22773,173603,37434,222479
22783,173593,37425,222480
22794,173589,37433,222481
22804,173593,37432,222482
22814,173603,37444,222470
22824,173599,37449,222474
22833,173598,37447,222442
22843,173599,37438,222481
22853,173606,37438,222477
22863,173610,37461,222475
22874,173608,37431,222441
22883,173606,37440,222463
22893,173591,37452,222464
22903,173605,37437,222454
22914,173599,37433,222464
22923,173615,37439,222460
22933,173604,37436,222450
22956,173624,37446,222481
22963,173619,37432,222486
22973,173609,37433,222452
22983,173597,37440,222446
22994,173601,37441,222462
23003,173620,37445,222471
23013,173599,37432,222444
23023,173612,37449,222432
23033,173614,37443,222441
23042,173613,37434,222456
23055,173627,37442,222464
23076,173623,37445,222457
23083,173612,37429,222442
23092,173617,37441,222446
23103,173623,37433,222447
23114,173644,37435,222447
23124,173614,37455,222445
23133,173619,37440,222434
23143,173623,37437,222427
23153,173616,37443,222425
23163,173623,37439,222443
23173,173621,37436,222453
23183,173626,37433,222436
23193,173632,37448,222422
23203,173630,37429,222452
23212,173608,37435,222416
23222,173620,37444,222424
23234,173618,37438,222431
23244,173618,37435,222392
23253,173625,37445,222439
23263,173630,37447,222434
23273,173608,37434,222468
23283,173633,37443,222441
23292,173614,37439,222427
23302,173636,37436,222430
23313,173633,37446,222435
23323,173627,37438,222449
23333,173636,37451,222444
23343,173634,37443,222435
23353,173644,37436,222447
23363,173639,37448,222448
23373,173628,37444,222431
23382,173634,37419,222448
23393,173641,37420,222460
23403,173627,37447,222434
23413,173634,37439,222417
23422,173611,37439,222434
23432,173636,37416,222440
23443,173634,37445,222439
23453,173620,37434,222426
23462,173632,37441,222450
23473,173621,37428,222449
23483,173638,37427,222430
23493,173639,37439,222446
23502,173630,37449,222453
23512,173611,37450,222419
23523,173609,37434,222433
23533,173636,37436,222428
23542,173611,37460,222447
23552,173634,37437,222421
23562,173628,37429,222440
23572,173612,37443,222456
23583,173630,37447,222446
23592,173624,37425,222430
23603,173644,37435,222445
23613,173627,37448,222432
23623,173621,37432,222433
23632,173642,37436,222444
23642,173637,37434,222439
23652,173634,37440,222424
23663,173633,37444,222447
23673,173648,37440,222441
23683,173634,37432,222442
23693,173605,37448,222450
23703,173631,37433,222458
23714,173640,37432,222450
23722,173637,37442,222441
23732,173625,37430,222451
23743,173640,37425,222451
23752,173628,37426,222442
23762,173658,37427,222484
23773,173636,37427,222474
23783,173638,37416,222464
23792,173646,37430,222448
23802,173656,37413,222473
23812,173648,37415,222462
23823,173649,37405,222470
23833,173641,37417,222460
23842,173654,37415,222474
23852,173648,37418,222463
23863,173642,37405,222463
23873,173623,37414,222473
23882,173651,37409,222471
23892,173640,37404,222482
23902,173658,37403,222460
23912,173648,37406,222465
23922,173643,37400,222481
23933,173648,37392,222484
23943,173663,37393,222475
23953,173653,37400,222495
23962,173647,37387,222507
23972,173633,37395,222514
23982,173651,37380,222504
23992,173654,37392,222505
24002,173654,37387,222518
24012,173654,37380,222481
24022,173657,37371,222509
24032,173655,37381,222490
24041,173646,37387,222517
24052,173634,37382,222508
24063,173649,37379,222505
24073,173665,37380,222493
24083,173650,37379,222508
24092,173653,37367,222493
24102,173662,37357,222491
24112,173660,37370,222473
24123,173654,37365,222518
24132,173654,37372,222492
24142,173650,37353,222528
24152,173646,37361,222523
24162,173656,37374,222503
24172,173648,37343,222508
24182,173671,37354,222496
24192,173669,37361,222516
24203,173653,37359,222518
24212,173643,37364,222504
24222,173629,37343,222526
24232,173635,37366,222530
24242,173668,37362,222506
24252,173664,37354,222506
24262,173664,37357,222522
24272,173666,37354,222511
24282,173638,37351,222533
24291,173649,37364,222526
24302,173655,37358,222515
24312,173638,37364,222507
24322,173641,37323,222531
24332,173653,37341,222487
24342,173627,37360,222495
24352,173658,37350,222499
24362,173633,37347,222523
24373,173644,37339,222525
24382,173645,37337,222496
24392,173655,37326,222524
24402,173655,37340,222533
24412,173624,37345,222495
24422,173638,37346,222517
24432,173658,37332,222536
24442,173665,37337,222532
24452,173654,37342,222523
24462,173650,37332,222550
24472,173662,37337,222544
24482,173653,37330,222550
24492,173679,37333,222559
24502,173647,37330,222524
24512,173646,37341,222510
24522,173641,37338,222516
24532,173650,37332,222541
24541,173656,37341,222529
24552,173633,37328,222540
24562,173649,37338,222545
24572,173650,37327,222549
24582,173660,37339,222561
24592,173661,37322,222560
24602,173650,37340,222548
24612,173635,37343,222543
24622,173654,37330,222547
24631,173639,37331,222541
24642,173654,37330,222521
24652,173665,37311,222540
24662,173645,37326,222530
24671,173627,37331,222537
24682,173651,37320,222541
24692,173631,37327,222517
24702,173642,37309,222520
24711,173644,37306,222525
24722,173656,37309,222532
24732,173631,37311,222526
24742,173653,37302,222517
24751,173654,37313,222556
24762,173634,37293,222517
24772,173634,37300,222541
24782,173656,37294,222536
24794,173652,37303,222536
24801,173642,37294,222532
24812,173630,37295,222527
24822,173643,37287,222532
24832,173635,37286,222500
24842,173630,37277,222513
24852,173641,37288,222488
24862,173615,37283,222507
24872,173648,37278,222511
24881,173636,37282,222529
24892,173635,37278,222515
24902,173640,37271,222518
24912,173637,37274,222505
24922,173630,37273,222514
24932,173624,37283,222507
24942,173619,37284,222505
24952,173614,37275,222505
24961,173616,37277,222503
24971,173627,37287,222491
24982,173625,37277,222521
24992,173622,37268,222474
25001,173621,37277,222508
25011,173629,37271,222494
25022,173630,37261,222511
25032,173611,37277,222503
25041,173626,37268,222512
25051,173624,37273,222475
25061,173615,37258,222480
25071,173635,37273,222479
25082,173617,37249,222502
25091,173610,37250,222508
25102,173612,37249,222511
25112,173626,37248,222516
25122,173622,37247,222511
25131,173640,37251,222511
25142,173621,37254,222516
25152,173603,37246,222477
25162,173605,37253,222501
25171,173614,37262,222524
25181,173606,37259,222493
25191,173614,37257,222496
25202,173599,37237,222501
25211,173611,37233,222485
25221,173613,37250,222518
25232,173605,37260,222507
25242,173603,37244,222484
25251,173627,37254,222504
25261,173591,37245,222496
25271,173606,37244,222473
25281,173620,37239,222491
25291,173607,37244,222487
25301,173610,37227,222477
25311,173609,37238,222494
25322,173599,37252,222501
25332,173608,37244,222511
25341,173615,37241,222510
25351,173605,37240,222476
25361,173624,37242,222503
25371,173577,37234,222518
25381,173601,37248,222498
25391,173613,37228,222517
25401,173596,37238,222513
25411,173616,37239,222513
25420,173612,37239,222513
25430,173617,37221,222520
25441,173614,37239,222506
25452,173627,37226,222510
25461,173622,37232,222484
25471,173607,37240,222519
25481,173606,37221,222486
25491,173601,37234,222499
25501,173607,37225,222513
25511,173601,37234,222490
25521,173595,37237,222494
25531,173596,37239,222476
25541,173594,37239,222495
25550,173590,37238,222508
25561,173611,37220,222481
25572,173603,37229,222485
25582,173604,37230,222459
25591,173602,37243,222463
25601,173600,37232,222486
25611,173603,37232,222468
25621,173580,37246,222482
25630,173585,37229,222488
25641,173608,37240,222479
25651,173573,37228,222480
25661,173604,37221,222466
25670,173594,37212,222481
25680,173604,37227,222443
25695,173604,37226,222483
25701,173608,37231,222482
25710,173608,37217,222483
25721,173605,37203,222484
25731,173568,37213,222478
25741,173580,37230,222483
25750,173609,37210,222467
25760,173602,37214,222491
25770,173586,37210,222489
25781,173580,37234,222478
25791,173590,37214,222477
25800,173593,37213,222472
25811,173594,37194,222474
25821,173594,37214,222469
25831,173596,37213,222463
25841,173600,37214,222470
25851,173573,37211,222481
25861,173593,37221,222466
25871,173587,37204,222472
25880,173582,37198,222475
25890,173564,37209,222461
25901,173569,37206,222482
25911,173576,37213,222467
25921,173573,37205,222469
25931,173576,37202,222471
25941,173568,37206,222462
25951,173578,37204,222448
25960,173572,37198,222439
25970,173572,37195,222450
25980,173581,37190,222437
25990,173583,37205,222455
26000,173584,37194,222459
26010,173566,37195,222469
26020,173570,37190,222458
26030,173574,37202,222469
26041,173583,37195,222434
26051,173574,37186,222469
26061,173565,37193,222436
26071,173585,37200,222452
26081,173542,37210,222454
26090,173568,37188,222427
26101,173556,37204,222447
26111,173570,37198,222432
26121,173561,37195,222466
26130,173547,37201,222462
26141,173557,37198,222452
26151,173568,37189,222456
26161,173567,37197,222460
26170,173570,37198,222465
26180,173581,37192,222472
26191,173566,37195,222460
26200,173568,37186,222445
26210,173546,37190,222463
26221,173577,37196,222450
26231,173573,37192,222461
26241,173567,37198,222476
26250,173563,37204,222476
26260,173587,37188,222463
26270,173571,37191,222462
26281,173561,37206,222452
26291,173579,37204,222454
26300,173575,37205,222495
26310,173578,37204,222482
26320,173584,37208,222480
26331,173568,37204,222489
26340,173587,37216,222473
26350,173592,37186,222480
26361,173578,37194,222473
26371,173582,37206,222477
26380,173570,37208,222489
26390,173565,37214,222506
26401,173582,37224,222509
26411,173602,37216,222488
26420,173561,37217,222481
26430,173576,37216,222511
26440,173588,37210,222499
26450,173584,37228,222508
26460,173600,37221,222512
26470,173600,37222,222504
26480,173588,37218,222530
26491,173598,37213,222519
26500,173600,37228,222539
26510,173609,37229,222548
26520,173610,37236,222516
26530,173614,37228,222542
26541,173611,37231,222541
26550,173618,37240,222538
26560,173611,37226,222543
26570,173606,37232,222521
26580,173619,37221,222524
26589,173613,37248,222528
26600,173627,37232,222545
26610,173636,37228,222532
26620,173637,37239,222540
26630,173624,37249,222552
26640,173638,37244,222516
26651,173619,37255,222571
26661,173629,37244,222538
26670,173628,37236,222545
26680,173634,37245,222547
26690,173642,37243,222545
26700,173643,37261,222556
26709,173635,37243,222542
26719,173645,37231,222550
26730,173635,37251,222554
26740,173651,37252,222564
26750,173655,37243,222554
26760,173647,37248,222575
26770,173623,37254,222569
26780,173655,37262,222545
26790,173659,37253,222569
26800,173652,37255,222570
26810,173653,37264,222569
26820,173650,37268,222561
26831,173659,37248,222573
26840,173650,37247,222558
26850,173655,37257,222565
26860,173650,37248,222574
26870,173644,37257,222572
26880,173648,37262,222558
26890,173630,37265,222555
26900,173664,37275,222540
26910,173660,37255,222563
26919,173653,37266,222573
26929,173657,37271,222568
26940,173647,37258,222578
26950,173659,37255,222574
26959,173656,37263,222569
26970,173655,37259,222574
26979,173664,37276,222554
26989,173652,37267,222562
27000,173659,37261,222562
27010,173659,37264,222558
27020,173644,37271,222543
27030,173660,37285,222555
27040,173661,37260,222573
27049,173649,37260,222566
27059,173654,37272,222580
27069,173638,37270,222549
27080,173647,37271,222583
27090,173656,37266,222557
27100,173648,37284,222545
27110,173668,37280,222545
27120,173639,37273,222555
27129,173647,37258,222556
27139,173665,37277,222569
27155,173639,37275,222553
27160,173648,37274,222559
27169,173674,37287,222572
27196,173656,37279,222556
27199,173668,37277,222576
27209,173653,37276,222530
27219,173648,37265,222547
27230,173656,37283,222571
27239,173665,37283,222559
27250,173635,37284,222585
27260,173646,37296,222574
27270,173656,37291,222565
27280,173642,37294,222554
27290,173666,37283,222565
27299,173651,37293,222566
27309,173642,37272,222554
27320,173657,37264,222577
27330,173676,37284,222579
27340,173636,37278,222576
27350,173641,37284,222571
27360,173654,37284,222571
27370,173642,37282,222578
27379,173641,37289,222548
27389,173653,37284,222556
27399,173653,37288,222574
27409,173650,37286,222568
27419,173653,37289,222563
27429,173659,37293,222567
27439,173654,37281,222588
27450,173646,37298,222557
27459,173640,37304,222557
27469,173629,37298,222552
27479,173646,37301,222526
27490,173649,37284,222549
27500,173657,37304,222531
27509,173623,37299,222508
27519,173630,37289,222515
27529,173637,37302,222473
27540,173615,37296,222464
27549,173617,37296,222447
27559,173578,37299,222413
27570,173601,37293,222421
27580,173590,37301,222377
27589,173587,37305,222396
27599,173590,37307,222379
27609,173590,37312,222375
27620,173595,37308,222384
27629,173565,37320,222376
27639,173591,37320,222365
27649,173589,37316,222356
27659,173597,37333,222378
27668,173595,37312,222357
27679,173591,37300,222363
27690,173569,37321,222362
27700,173600,37342,222355
27709,173597,37330,222355
27719,173558,37327,222374
27729,173591,37331,222349
27739,173579,37331,222338
27749,173599,37325,222366
27759,173580,37333,222376
27769,173590,37337,222376
27779,173574,37327,222384
27790,173589,37329,222386
27799,173604,37329,222368
27809,173577,37333,222402
27819,173613,37322,222376
27829,173586,37319,222390
27839,173606,37335,222386
27849,173608,37332,222392
27859,173595,37328,222393
27870,173589,37340,222393
27879,173600,37342,222396
27889,173603,37323,222362
27899,173604,37334,222408
27909,173600,37344,222397
27918,173603,37332,222376
27928,173610,37328,222405
27939,173585,37337,222405
27949,173600,37338,222411
27959,173608,37333,222394
27969,173619,37341,222392
27979,173579,37324,222400
27989,173608,37346,222400
27999,173615,37339,222422
28008,173606,37340,222418
28019,173599,37335,222408
28029,173590,37349,222389
28039,173603,37335,222375
28048,173591,37336,222383
28058,173590,37330,222378
28068,173599,37340,222383
28079,173601,37334,222391
28088,173602,37341,222395
28098,173595,37322,222412
28108,173591,37356,222394
28119,173597,37322,222391
28129,173588,37332,222414
28139,173602,37345,222398
28149,173605,37347,222404
28159,173596,37349,222396
28168,173591,37338,222423
28178,173602,37346,222392
28188,173608,37343,222414
28216,173610,37343,222446
28218,173610,37346,222455
28229,173585,37317,222444
28239,173614,37331,222449
28249,173636,37340,222478
28259,173630,37346,222488
28269,173621,37346,222466
28279,173648,37334,222502
28289,173627,37335,222517
28298,173636,37336,222529
28308,173640,37331,222537
28319,173645,37330,222531
28329,173635,37320,222555
28338,173638,37314,222543
28349,173621,37349,222535
28358,173643,37325,222526
28369,173656,37311,222545
28379,173639,37321,222553
28389,173645,37329,222537
28399,173641,37320,222545
28409,173618,37336,222538
28418,173635,37334,222534
28428,173668,37334,222535
28438,173660,37323,222566
28448,173635,37326,222542
28458,173646,37300,222531
28468,173645,37323,222569
28478,173637,37311,222553
28489,173627,37308,222548
28499,173618,37323,222536
28509,173622,37323,222530
28519,173638,37314,222529
28529,173636,37317,222545
28539,173644,37304,222544
28548,173620,37314,222530
28559,173630,37310,222548
28569,173608,37297,222545
28579,173631,37309,222527
28588,173621,37302,222519
28598,173609,37317,222524
28615,173633,37307,222533
28619,173622,37316,222520
28628,173603,37304,222541
28638,173636,37297,222502
28649,173611,37279,222505
28659,173612,37300,222515
28668,173618,37298,222504
28678,173627,37286,222514
28688,173616,37302,222514
28699,173621,37291,222518
28708,173624,37291,222497
28718,173621,37282,222526
28728,173609,37301,222512
28739,173603,37298,222495
28749,173625,37284,222479
28758,173612,37302,222528
28768,173609,37280,222509
28778,173616,37292,222518
28788,173614,37281,222504
28798,173615,37300,222516
28808,173609,37294,222500
28818,173621,37251,222492
28829,173600,37264,222516
28838,173594,37291,222502
28848,173585,37267,222505
28858,173599,37286,222464
28868,173594,37286,222485
28878,173587,37282,222499
28888,173600,37282,222466
28898,173595,37273,222500
28909,173594,37265,222490
28918,173572,37290,222484
28928,173601,37272,222489
28938,173602,37273,222476
28948,173597,37268,222495
28958,173571,37280,222497
28968,173593,37290,222481
28978,173577,37266,222488
28988,173601,37281,222496
28998,173585,37279,222509
29007,173592,37288,222481
29018,173579,37270,222511
29029,173602,37283,222507
29038,173589,37263,222511
29048,173590,37268,222523
29058,173598,37284,222506
29069,173575,37278,222519
29078,173597,37274,222529
29088,173578,37270,222522
29098,173598,37272,222526
29108,173584,37270,222533
29119,173572,37279,222510
29128,173598,37279,222501
29138,173582,37276,222521
29148,173603,37274,222525
29158,173596,37256,222520
29167,173578,37272,222536
29178,173604,37265,222534
29188,173610,37263,222516
29216,173592,37265,222531
29218,173609,37258,222516
29228,173597,37259,222516
29238,173590,37266,222544
29249,173580,37245,222527
29258,173601,37264,222565
29268,173613,37273,222547
29278,173613,37250,222557
29288,173599,37257,222541
29297,173615,37281,222531
29307,173615,37252,222522
29318,173604,37261,222552
29328,173614,37265,222552
29337,173607,37267,222559
29348,173610,37262,222555
29358,173628,37281,222565
29375,173611,37279,222545
29377,173623,37269,222568
29388,173624,37267,222564
29397,173628,37283,222573
29408,173637,37274,222577
29418,173623,37274,222585
29428,173638,37286,222586
29438,173624,37280,222581
29448,173627,37271,222587
29458,173631,37264,222564
29467,173649,37268,222599
29478,173651,37273,222601
29488,173632,37270,222594
29498,173644,37269,222579
29508,173631,37279,222609
29518,173647,37284,222573
29528,173659,37280,222597
29538,173630,37271,222593
29547,173634,37285,222599
29558,173636,37271,222570
29568,173634,37276,222578
29578,173653,37273,222586
29587,173648,37282,222589
29598,173642,37283,222571
29608,173622,37283,222571
29618,173644,37277,222569
29627,173651,37289,222581
29637,173645,37289,222585
29648,173672,37268,222603
29658,173660,37281,222606
29667,173622,37283,222597
29677,173654,37264,222596
29687,173626,37291,222605
29698,173661,37275,222599
29708,173645,37273,222600
29717,173651,37277,222607
29727,173646,37286,222576
29737,173643,37277,222600
29747,173617,37284,222598
29757,173655,37276,222601
29767,173613,37287,222616
29777,173654,37276,222583
29788,173647,37254,222590
29797,173641,37267,222593
29807,173627,37271,222568
29818,173630,37279,222593
29828,173631,37273,222560
29837,173642,37276,222592
29847,173654,37283,222589
29857,173645,37282,222601
29868,173643,37286,222577
29877,173652,37282,222572
29887,173629,37282,222601
29898,173654,37264,222588
29908,173647,37279,222595
29917,173626,37281,222601
29935,173642,37278,222571
29937,173636,37290,222598
29947,173636,37309,222599
29958,173650,37274,222599
29967,173657,37285,222590
29977,173632,37291,222601
29987,173651,37287,222578
29997,173652,37273,222593
30006,173648,37280,222589
30017,173645,37269,222593
30028,173664,37268,222598
30038,173641,37284,222578
30047,173629,37283,222597
30057,173652,37287,222598
30067,173624,37288,222573
30077,173626,37298,222588
30087,173657,37285,222578
30097,173659,37272,222538
30108,173641,37281,222588
30117,173651,37289,222554
30127,173669,37288,222591
30137,173651,37284,222569
30148,173615,37279,222568
30158,173643,37284,222564
30167,173597,37282,222561
30177,173636,37283,222585
30187,173662,37273,222596
30197,173660,37284,222582
30207,173643,37298,222613
30217,173644,37295,222562
30227,173642,37277,222568
30237,173642,37295,222587
30247,173638,37292,222562
30256,173636,37280,222576
30266,173616,37284,222565
30277,173642,37270,222571
30287,173642,37303,222572
30296,173645,37277,222541
30306,173634,37284,222580
30317,173651,37268,222560
30328,173636,37275,222575
30337,173640,37289,222549
30347,173627,37277,222561
30357,173640,37260,222565
30367,173651,37288,222580
30377,173643,37285,222547
30387,173625,37260,222509
30397,173642,37274,222559
30407,173616,37276,222543
30416,173593,37284,222551
30427,173641,37259,222559
30437,173620,37282,222528
30447,173601,37286,222548
30458,173616,37278,222556
30467,173599,37283,222569
30477,173639,37252,222552
30487,173625,37256,222552
30497,173628,37261,222554
30506,173606,37262,222547
30517,173626,37264,222549
30527,173612,37272,222541
30537,173609,37263,222537
30547,173616,37278,222553
30557,173612,37255,222508
30567,173607,37270,222539
30577,173605,37276,222535
30586,173597,37253,222510
30597,173620,37262,222543
30607,173598,37277,222519
30617,173627,37285,222522
30626,173583,37269,222529
30636,173625,37274,222535
30646,173612,37258,222549
30657,173631,37259,222534
30667,173635,37270,222559
30676,173610,37278,222528
30687,173618,37264,222537
30697,173611,37259,222540
30708,173617,37260,222550
30716,173609,37276,222553
30727,173619,37248,222555
30736,173621,37247,222507
30747,173597,37249,222524
30756,173610,37260,222521
30767,173591,37247,222511
30777,173605,37268,222503
30787,173627,37269,222546
30796,173612,37245,222534
30806,173629,37262,222498
30817,173608,37256,222512
30827,173617,37245,222496
30836,173608,37267,222537
30846,173599,37258,222519
30856,173618,37261,222516
30866,173603,37264,222537
30876,173584,37257,222523
30886,173613,37252,222521
30897,173601,37236,222513
30907,173593,37259,222523
30916,173604,37268,222513
30926,173612,37252,222531
30936,173605,37250,222506
30946,173615,37258,222534
30957,173612,37257,222521
30967,173627,37268,222537
30976,173611,37256,222516
30986,173609,37252,222503
30996,173587,37250,222522
31006,173604,37241,222520
31016,173599,37250,222511
31027,173603,37239,222503
31037,173595,37248,222526
31046,173605,37263,222504
31056,173575,37262,222520
31066,173568,37246,222451
31076,173594,37247,222520
31086,173602,37250,222526
31096,173588,37252,222484
31107,173576,37241,222465
31117,173575,37256,222475
31126,173560,37249,222501
31136,173577,37257,222506
31146,173597,37253,222505
31156,173583,37255,222471
31166,173568,37256,222488
31176,173585,37249,222476
31187,173572,37245,222485
31196,173572,37230,222462
31207,173581,37246,222447
31216,173580,37249,222464
31226,173566,37230,222477
31236,173575,37246,222484
31246,173572,37242,222482
31255,173574,37233,222479
31265,173565,37216,222448
31276,173585,37240,222471
31287,173561,37232,222438
31296,173560,37245,222449
31306,173567,37237,222469
31316,173546,37225,222456
31327,173580,37241,222460
31336,173548,37227,222444
31346,173543,37238,222445
31356,173567,37236,222444
31366,173551,37241,222423
31375,173552,37226,222439
31386,173555,37221,222456
31396,173569,37228,222449
31406,173543,37254,222454
31416,173554,37227,222449
31426,173545,37227,222442
31435,173553,37239,222438
31446,173548,37213,222466
31457,173550,37234,222447
31466,173559,37230,222469
31476,173535,37227,222437
31486,173553,37219,222441
31496,173564,37208,222419
31505,173542,37227,222444
31515,173546,37206,222432
31526,173545,37208,222412
31536,173554,37216,222438
31546,173536,37201,222424
31555,173528,37216,222414
31566,173539,37218,222430
31576,173561,37209,222448
31585,173549,37236,222441
31596,173531,37212,222431
31606,173535,37218,222463
31616,173523,37214,222420
31625,173521,37220,222397
31636,173527,37214,222442
31646,173523,37227,222451
31656,173528,37205,222437
31666,173532,37220,222404
31676,173521,37211,222449
31686,173556,37208,222422
31696,173550,37212,222440
31706,173542,37219,222411
31715,173515,37209,222445
31725,173544,37206,222415
31736,173533,37199,222423
31746,173531,37230,222408
31755,173519,37202,222426
31766,173521,37214,222425
31775,173527,37199,222437
31786,173515,37185,222427
31795,173518,37210,222402
31806,173537,37189,222407
31816,173543,37212,222405
31826,173499,37199,222425
31835,173489,37212,222435
31845,173530,37198,222424
31856,173521,37203,222449
31866,173518,37203,222428
31875,173505,37207,222448
31885,173523,37186,222435
31895,173520,37197,222404
31905,173516,37197,222462
31916,173518,37198,222437
31925,173515,37226,222438
31935,173513,37200,222431
31946,173531,37191,222431
31955,173531,37207,222428
31965,173511,37198,222437
31975,173516,37197,222447
31986,173532,37194,222428
31996,173517,37212,222432
32005,173525,37208,222440
32015,173533,37183,222436
32025,173517,37202,222430
32035,173518,37213,222432
32045,173529,37175,222438
32055,173532,37195,222405
32065,173516,37195,222421
32076,173525,37198,222436
32085,173524,37191,222430
32095,173532,37197,222427
32105,173518,37194,222460
32115,173534,37193,222449
32125,173534,37192,222438
32135,173539,37197,222437
32145,173535,37209,222449
32155,173522,37191,222431
32165,173549,37175,222454
32175,173548,37199,222454
32185,173550,37180,222465
32195,173535,37202,222461
32206,173545,37195,222446
32215,173547,37204,222458
32225,173554,37206,222455
32236,173558,37192,222472
32246,173549,37172,222461
32255,173554,37189,222466
32265,173563,37194,222479
32275,173559,37199,222470
32285,173557,37201,222483
32295,173544,37192,222472
32305,173560,37216,222460
32315,173561,37204,222490
32325,173572,37186,222447
32335,173551,37206,222469
32345,173566,37226,222474
32355,173546,37220,222486
32365,173558,37179,222472
32375,173566,37197,222476
32385,173579,37227,222475
32395,173574,37197,222467
32405,173575,37200,222492
32416,173564,37199,222485
32425,173569,37187,222476
32435,173572,37200,222495
32445,173580,37203,222494
32456,173570,37192,222477
32465,173570,37189,222473
32475,173563,37201,222470
32485,173562,37207,222453
32495,173558,37196,222486
32504,173567,37198,222488
32515,173572,37206,222475
32525,173564,37196,222479
32536,173555,37194,222482
32545,173576,37212,222444
32555,173583,37204,222464
32565,173563,37186,222467
32576,173569,37206,222484
32585,173576,37200,222490
32595,173566,37213,222482
32605,173574,37216,222495
32615,173586,37206,222488
32625,173573,37207,222484
32634,173571,37208,222496
32644,173575,37192,222496
32655,173583,37200,222482
32666,173569,37218,222490
32675,173586,37218,222465
32685,173558,37216,222474
32695,173575,37199,222482
32705,173571,37224,222447
32715,173578,37194,222467
32725,173574,37223,222481
32735,173569,37202,222466
32745,173566,37214,222487
32754,173568,37212,222500
32764,173584,37207,222494
32774,173570,37215,222485
32785,173592,37189,222452
32795,173581,37205,222463
32805,173562,37210,222487
32815,173546,37219,222472
32825,173574,37213,222477
32835,173567,37218,222484
32845,173594,37193,222494
32855,173578,37226,222494
32865,173584,37219,222516
32875,173587,37210,222488
32884,173576,37198,222488
32895,173589,37230,222471
32905,173581,37227,222493
32915,173605,37223,222487
32924,173578,37206,222500
32935,173593,37219,222474
32945,173586,37210,222495
32955,173571,37218,222481
32964,173583,37212,222460
32974,173575,37227,222489
32985,173581,37252,222492
32995,173590,37223,222470
33004,173568,37230,222487
33014,173593,37227,222498
33025,173582,37231,222483
33035,173589,37221,222466
33044,173574,37223,222478
33077,173571,37225,222492
33083,173581,37220,222475
33095,173584,37220,222473
33105,173574,37213,222459
33115,173570,37213,222449
33125,173558,37233,222448
33134,173573,37207,222461
33144,173570,37228,222427
33154,173574,37224,222440
33165,173565,37218,222464
33174,173566,37218,222433
33184,173575,37226,222457
33195,173567,37222,222477
33205,173569,37222,222461
33214,173572,37232,222453
33224,173573,37226,222483
33235,173561,37222,222483
33244,173582,37227,222464
33255,173576,37197,222478
33264,173570,37210,222456
33275,173568,37215,222465
33285,173574,37220,222429
33294,173574,37222,222482
33304,173592,37195,222467
33315,173576,37223,222470
33324,173574,37213,222483
33333,173566,37218,222478
33344,173570,37225,222462
33355,173573,37225,222478
33365,173587,37230,222493
33375,173580,37227,222492
33384,173567,37209,222482
33394,173566,37219,222467
33404,173564,37217,222465
33414,173570,37226,222484
33423,173574,37214,222492
33435,173569,37207,222456
33444,173576,37216,222451
33455,173585,37217,222465
33464,173573,37218,222499
33474,173587,37210,222483
33484,173583,37192,222477
33494,173570,37200,222462
33503,173574,37206,222476
33514,173565,37204,222489
33524,173569,37196,222482
33535,173580,37185,222486
33544,173569,37218,222470
33554,173575,37209,222466
33564,173571,37208,222493
33574,173573,37226,222471
33583,173575,37197,222480
33594,173580,37189,222480
33604,173570,37216,222454
33614,173570,37211,222467
33624,173567,37198,222470
33633,173589,37211,222470
33643,173568,37210,222472
33655,173570,37190,222479
33665,173574,37204,222443
33674,173555,37217,222440
33684,173546,37210,222478
33694,173569,37200,222465
33704,173571,37205,222461
33713,173561,37206,222477
33724,173581,37191,222491
33734,173574,37208,222443
33744,173551,37213,222469
33753,173550,37225,222476
33764,173540,37213,222461
33774,173549,37219,222439
33784,173542,37221,222480
33794,173561,37200,222474
33804,173557,37198,222436
33814,173545,37210,222456
33824,173560,37211,222465
33833,173560,37216,222464
33843,173560,37206,222465
33854,173551,37223,222461
33864,173559,37194,222459
33874,173543,37212,222453
33883,173559,37199,222450
33893,173561,37209,222454
33903,173554,37216,222448
33914,173564,37181,222451
33923,173553,37203,222419
33933,173545,37197,222447
33943,173561,37205,222449
33954,173545,37191,222435
33963,173552,37197,222401
33973,173552,37196,222432
33984,173552,37207,222426
33994,173537,37202,222423
34003,173549,37210,222426
34013,173545,37189,222428
34024,173534,37176,222425
34034,173540,37205,222415
34043,173526,37185,222414
34053,173536,37195,222437
34063,173537,37195,222424
34074,173527,37196,222426
34083,173532,37199,222431
34094,173538,37173,222416
34104,173544,37189,222410
34116,173538,37186,222435
34124,173528,37185,222425
34133,173546,37190,222407
34144,173527,37193,222424
34154,173522,37190,222406
34164,173520,37173,222413
34173,173539,37183,222408
34183,173528,37175,222423
34194,173543,37170,222425
34204,173528,37173,222404
34213,173527,37190,222408
34223,173522,37174,222411
34233,173525,37193,222407
34244,173496,37196,222407
34253,173515,37183,222409
34263,173528,37170,222403
34274,173534,37169,222416
34284,173512,37185,222368
34293,173502,37186,222433
34303,173525,37186,222402
34313,173515,37179,222404
34323,173523,37167,222378
34333,173520,37169,222380
34343,173517,37174,222381
34353,173479,37188,222383
34363,173504,37189,222372
34373,173500,37180,222369
34383,173505,37165,222354
34394,173503,37194,222341
34404,173499,37187,222354
34414,173485,37184,222333
34423,173486,37178,222324
34435,173476,37186,222331
34443,173489,37174,222333
34453,173474,37198,222323
34463,173469,37173,222325
34473,173495,37178,222330
34483,173488,37180,222326
34493,173466,37185,222326
34503,173477,37176,222343
34513,173478,37193,222319
34523,173483,37191,222329
34533,173482,37186,222332
34542,173466,37189,222346
34553,173484,37193,222337
34563,173493,37189,222329
34573,173490,37192,222340
34596,173490,37184,222349
34603,173485,37194,222348
34613,173469,37183,222326
34623,173498,37187,222337
34632,173480,37193,222332
34643,173462,37186,222355
34653,173479,37181,222356
34664,173499,37187,222344
34673,173475,37186,222337
34683,173505,37179,222340
34693,173485,37185,222364
34703,173491,37185,222353
34712,173485,37190,222373
34723,173496,37192,222362
34735,173490,37185,222347
34744,173479,37175,222367
34753,173495,37200,222354
34763,173495,37176,222378
34773,173496,37187,222338
34783,173499,37196,222330
34792,173493,37176,222367
34803,173468,37190,222350
34813,173490,37172,222346
34823,173483,37179,222344
34833,173489,37179,222313
34842,173472,37177,222337
34853,173491,37181,222352
34863,173476,37185,222316
34873,173476,37176,222323
34883,173451,37181,222328
34893,173445,37194,222326
34903,173470,37191,222320
34913,173489,37178,222340
34922,173473,37176,222325
34932,173476,37172,222350
34943,173465,37170,222347
34953,173478,37175,222341
34963,173477,37168,222332
34973,173463,37177,222314
34983,173457,37183,222311
34993,173463,37174,222323
35002,173444,37164,222338
35012,173475,37174,222341
35022,173465,37156,222319
35032,173473,37179,222340
35042,173469,37168,222318
35053,173466,37178,222328
35062,173461,37160,222328
35073,173481,37152,222323
35083,173465,37170,222321
35092,173439,37160,222321
35102,173459,37174,222315
35112,173468,37167,222321
35123,173448,37152,222326
35132,173461,37167,222302
35142,173451,37168,222312
35152,173471,37165,222292
35163,173434,37159,222313
35172,173439,37155,222319
35182,173445,37169,222310
35192,173452,37168,222302
35203,173439,37164,222320
35212,173447,37149,222327
35222,173446,37161,222308
35233,173452,37131,222310
35243,173441,37156,222290
35252,173443,37155,222296
35263,173418,37171,222313
35273,173439,37153,222283
35283,173438,37149,222312
35295,173436,37163,222308
35302,173448,37150,222306
35313,173451,37161,222308
35323,173434,37152,222297
35333,173429,37159,222303
35342,173428,37158,222311
35352,173416,37145,222317
35363,173436,37166,222298
35373,173427,37159,222289
35382,173445,37155,222292
35392,173421,37169,222290
35402,173434,37155,222284
35413,173424,37160,222289
35422,173414,37153,222317
35432,173420,37154,222293
35442,173421,37144,222301
35453,173415,37131,222297
35462,173420,37137,222284
35472,173424,37148,222319
35483,173433,37147,222300
35493,173431,37149,222296
35502,173425,37158,222292
35512,173428,37152,222306
35522,173424,37151,222306
35532,173424,37148,222288
35542,173442,37133,222294
35552,173422,37136,222295
35562,173424,37144,222300
35572,173422,37146,222310
35583,173422,37145,222314
35592,173403,37155,222300
35602,173410,37148,222304
35612,173422,37131,222315
35623,173408,37137,222312
35632,173419,37119,222312
35642,173427,37135,222293
35652,173415,37151,222294
35663,173424,37131,222286
35672,173423,37131,222292
35682,173418,37141,222272
35692,173425,37145,222305
35703,173429,37122,222300
35712,173396,37151,222291
35722,173400,37130,222297
35732,173416,37153,222293
35743,173407,37139,222324
35752,173390,37142,222309
35762,173418,37150,222299
35772,173400,37158,222290
35783,173411,37146,222301
35792,173417,37140,222294
35802,173409,37129,222290
35812,173395,37160,222295
35822,173413,37150,222295
35832,173416,37144,222304
35842,173413,37139,222277
35852,173388,37150,222293
35862,173429,37144,222299
35873,173415,37134,222278
35882,173407,37138,222305
35892,173417,37149,222315
35902,173427,37128,222300
35912,173418,37142,222280
35922,173400,37146,222302
35932,173414,37123,222299
35942,173430,37137,222274
35952,173428,37141,222290
35962,173403,37135,222305
35972,173420,37143,222309
35982,173409,37141,222294
35992,173414,37144,222302
36002,173418,37145,222306
36012,173411,37136,222285
36021,173400,37139,222304
36032,173410,37143,222313
36042,173430,37136,222309
36052,173417,37153,222290
36061,173416,37146,222301
36072,173425,37126,222307
36083,173416,37152,222305
36092,173414,37144,222309
36101,173406,37150,222307
36112,173423,37140,222321
36123,173405,37148,222313
36132,173411,37147,222312
36141,173406,37152,222333
36152,173434,37137,222327
36162,173414,37148,222279
36172,173406,37136,222310
36181,173402,37145,222296
36192,173402,37149,222327
36202,173408,37159,222304
36212,173435,37128,222319
36222,173420,37137,222307
36232,173417,37145,222325
36242,173424,37151,222319
36251,173427,37154,222294
36262,173394,37157,222331
36272,173430,37153,222339
36282,173431,37142,222318
36291,173426,37143,222328
36301,173415,37152,222339
36311,173428,37146,222336
36322,173424,37118,222313
36332,173407,37145,222332
36341,173444,37155,222324
36351,173432,37152,222343
36361,173429,37151,222304
36371,173431,37141,222352
36382,173433,37147,222332
36392,173428,37155,222327
36402,173403,37160,222333
36412,173422,37163,222337
36421,173403,37148,222348
36431,173415,37149,222329
36442,173426,37153,222332
36452,173418,37164,222344
36461,173427,37155,222354
36471,173433,37152,222342
36481,173428,37168,222333
36491,173431,37161,222316
36501,173421,37167,222349
36511,173442,37159,222351
36521,173434,37169,222372
36532,173419,37169,222370
36541,173447,37177,222346
36551,173444,37180,222369
36562,173435,37159,222361
36572,173435,37164,222372
36582,173457,37176,222362
36591,173435,37174,222393
36601,173448,37178,222389
36611,173461,37185,222372
36621,173450,37186,222369
36630,173451,37193,222384
36642,173462,37166,222382
36652,173441,37172,222377
36662,173427,37186,222410
36671,173442,37183,222388
36681,173442,37198,222394
36691,173467,37190,222399
36701,173457,37175,222387
36711,173455,37180,222396
36736,173464,37199,222414
36742,173459,37187,222412
36751,173443,37210,222392
36761,173490,37203,222397
36775,173471,37208,222403
36782,173480,37205,222420
36791,173479,37191,222432
36801,173484,37197,222412
36811,173480,37200,222420
36821,173460,37210,222429
36831,173489,37217,222403
36840,173469,37204,222428
36851,173462,37213,222412
36861,173478,37206,222416
36872,173480,37211,222425
36880,173491,37205,222391
36891,173458,37213,222431
36902,173466,37224,222416
36912,173475,37213,222399
36921,173449,37206,222424
36931,173475,37219,222432
36941,173503,37218,222421
36951,173480,37231,222435
36961,173477,37229,222420
36971,173476,37222,222419
36981,173477,37229,222417
36991,173494,37230,222419
37000,173484,37239,222427
37010,173483,37229,222441
37021,173487,37233,222441
37031,173479,37227,222411
37041,173481,37226,222427
37051,173493,37228,222437
37061,173458,37240,222447
37071,173474,37221,222409
37081,173469,37232,222426
37090,173468,37225,222415
37101,173477,37240,222423
37111,173493,37219,222425
37121,173473,37242,222441
37131,173497,37208,222422
37141,173475,37232,222420
37151,173472,37232,222401
37161,173466,37241,222419
37171,173486,37239,222387
37181,173463,37243,222402
37191,173489,37235,222413
37201,173469,37238,222406
37210,173480,37233,222410
37220,173487,37230,222422
37231,173470,37244,222420
37241,173477,37237,222428
37251,173477,37217,222424
37261,173478,37246,222409
37271,173473,37245,222403
37281,173465,37243,222441
37291,173479,37236,222409
37300,173469,37231,222436
37311,173461,37232,222421
37321,173471,37240,222427
37331,173476,37223,222432
37340,173475,37231,222404
37350,173481,37226,222433
37361,173476,37237,222405
37371,173469,37230,222420
37380,173474,37223,222403
37390,173484,37238,222400
37401,173472,37244,222414
37411,173463,37236,222411
37420,173470,37231,222410
37430,173487,37236,222422
37440,173485,37242,222406
37451,173451,37237,222416
37460,173477,37237,222427
37471,173462,37241,222429
37480,173481,37247,222412
37490,173483,37244,222432
37500,173471,37227,222427
37511,173484,37242,222417
37520,173492,37256,222442
37531,173487,37230,222415
37541,173491,37247,222404
37550,173475,37235,222432
37561,173471,37229,222415
37571,173472,37237,222429
37581,173476,37230,222442
37590,173470,37232,222415
37600,173478,37250,222437
37611,173453,37245,222422
37621,173468,37236,222413
37630,173486,37253,222429
37640,173477,37236,222434
37651,173474,37227,222427
37661,173460,37244,222415
37670,173486,37243,222399
37681,173447,37238,222434
37691,173460,37242,222435
37701,173467,37245,222442
37710,173462,37244,222433
37720,173470,37249,222434
37730,173481,37242,222428
37741,173472,37255,222437
37750,173472,37243,222443
37760,173462,37248,222420
37770,173482,37241,222415
37780,173456,37250,222428
37790,173457,37230,222402
37800,173466,37230,222408
37811,173476,37240,222410
37820,173464,37236,222383
37831,173485,37218,222418
37839,173461,37247,222394
37850,173461,37234,222410
37860,173468,37236,222395
37871,173458,37213,222406
37879,173467,37244,222379
37890,173467,37235,222414
37901,173447,37236,222389
37911,173454,37240,222403
37920,173470,37218,222386
37930,173457,37242,222412
37940,173455,37239,222416
37951,173456,37227,222410
37959,173462,37242,222382
37969,173444,37237,222395
37980,173462,37217,222371
37990,173473,37228,222396
38000,173458,37224,222394
38009,173473,37231,222396
38020,173464,37221,222405
38030,173473,37226,222410
38040,173466,37218,222384
38050,173461,37240,222402
38060,173463,37226,222391
38070,173454,37227,222387
38081,173435,37219,222396
38090,173460,37229,222395
38100,173456,37231,222362
38110,173448,37232,222406
38120,173445,37226,222371
38129,173448,37235,222358
38140,173441,37234,222386
38150,173444,37230,222388
38161,173456,37230,222403
38170,173448,37224,222395
38180,173462,37215,222395
38190,173441,37227,222370
38200,173437,37230,222391
38210,173438,37230,222386
38219,173439,37229,222378
38230,173450,37219,222371
38241,173436,37223,222389
38250,173436,37221,222358
38260,173438,37217,222362
38270,173436,37227,222353
38280,173430,37232,222374
38290,173434,37215,222383
38300,173441,37219,222379
38310,173442,37225,222371
38320,173447,37216,222373
38330,173445,37224,222387
38339,173431,37236,222394
38349,173437,37218,222366
38360,173438,37217,222375
38371,173435,37233,222368
38380,173432,37222,222373
38390,173440,37221,222385
38400,173433,37232,222379
38410,173398,37234,222371
38419,173428,37222,222360
38429,173398,37230,222381
38440,173425,37231,222376
38450,173446,37224,222375
38459,173447,37210,222373
38469,173427,37226,222377
38479,173438,37223,222356
38490,173414,37224,222371
38500,173432,37210,222379
38510,173429,37220,222379
38519,173430,37222,222361
38529,173429,37222,222369
38540,173426,37212,222348
38550,173439,37208,222364
38560,173424,37224,222330
38570,173426,37222,222347
38580,173418,37234,222358
38589,173424,37223,222352
38599,173422,37228,222378
38609,173425,37224,222366
38619,173430,37214,222341
38629,173423,37220,222342
38640,173405,37210,222360
38650,173420,37218,222326
38660,173399,37223,222351
38669,173408,37208,222337
38679,173423,37206,222344
38689,173416,37214,222349
38700,173398,37226,222339
38709,173412,37217,222320
38719,173404,37209,222332
38730,173411,37208,222328
38739,173402,37202,222293
38750,173412,37215,222330
38759,173417,37209,222336
38769,173385,37205,222329
38780,173413,37207,222336
38790,173401,37207,222321
38799,173414,37209,222328
38809,173399,37189,222325
38819,173412,37204,222322
38830,173404,37192,222331
38839,173412,37205,222313
38850,173403,37202,222315
38859,173394,37183,222298
38870,173422,37191,222327
38879,173398,37205,222298
38889,173388,37204,222323
38899,173403,37205,222299
38910,173384,37195,222319
38918,173396,37200,222318
38929,173375,37202,222322
38940,173396,37193,222297
38950,173384,37182,222302
38959,173382,37195,222307
38969,173400,37199,222318
38979,173397,37201,222313
38989,173385,37199,222317
39000,173389,37195,222313
39009,173387,37199,222328
39019,173377,37180,222332
39029,173394,37199,222311
39040,173395,37196,222331
39049,173394,37184,222320
39059,173386,37183,222294
39069,173392,37177,222329
39080,173399,37172,222297
39089,173351,37192,222307
39099,173376,37190,222333
39109,173366,37175,222315
39119,173380,37194,222295
39128,173402,37197,222281
39139,173357,37189,222317
39149,173379,37177,222290
39159,173370,37167,222298
39169,173374,37161,222284
39179,173355,37188,222288
39189,173364,37185,222319
39200,173376,37176,222310
39209,173359,37181,222275
39219,173373,37164,222297
39229,173381,37158,222307
39239,173365,37184,222299
39250,173344,37184,222309
39259,173365,37169,222302
39269,173356,37173,222290
39279,173361,37157,222300
39289,173360,37175,222288
39299,173353,37179,222307
39309,173357,37168,222295
39319,173360,37181,222283
39329,173371,37182,222302
39338,173368,37169,222298
39349,173362,37161,222295
39359,173363,37165,222259
39370,173352,37163,222281
39379,173350,37162,222266
39389,173325,37167,222287
39399,173360,37177,222284
39409,173356,37169,222263
39418,173365,37168,222276
39429,173341,37164,222277
39439,173350,37165,222282
39449,173349,37173,222289
39458,173329,37169,222288
39469,173339,37155,222296
39478,173343,37161,222250
39489,173353,37159,222289
39499,173337,37169,222292
39509,173350,37167,222266
39518,173352,37166,222273
39529,173357,37151,222270
39540,173334,37166,222271
39549,173358,37161,222269
39559,173330,37170,222287
39569,173324,37163,222265
39579,173337,37146,222280
39588,173317,37152,222255
39599,173329,37149,222271
39609,173324,37154,222268
39619,173325,37156,222263
39628,173333,37151,222259
39638,173340,37148,222250
39648,173319,37146,222244
39659,173331,37158,222267
39668,173338,37148,222271
39679,173326,37137,222247
39689,173328,37143,222267
39699,173328,37139,222259
39708,173343,37130,222248
39718,173324,37146,222231
39728,173321,37151,222245
39739,173321,37140,222263
39749,173322,37136,222239
39758,173314,37143,222239
39769,173330,37114,222221
39778,173311,37130,222215
39789,173322,37142,222235
39798,173307,37133,222254
39809,173327,37132,222227
39819,173322,37136,222240
39829,173305,37134,222247
39838,173313,37133,222208
39848,173319,37127,222256
39858,173295,37130,222242
39868,173310,37128,222221
39878,173304,37129,222251
39889,173288,37128,222240
39898,173288,37133,222225
39909,173323,37132,222216
39918,173303,37131,222217
39928,173302,37128,222218
39938,173292,37136,222232
39948,173307,37127,222243
39958,173323,37109,222224
39968,173309,37125,222240
39978,173301,37134,222233
39988,173281,37120,222246
39998,173306,37117,222220
40008,173310,37136,222229
40018,173315,37107,222235
40029,173302,37128,222239
40039,173293,37109,222224
40048,173296,37112,222226
40058,173303,37132,222239
40068,173291,37128,222247
40079,173312,37112,222226
40088,173310,37121,222223
40098,173311,37120,222222
40108,173290,37102,222217
40118,173301,37118,222215
40127,173314,37127,222221
40138,173298,37117,222225
40148,173282,37122,222215
40158,173296,37123,222218
40168,173302,37111,222219
40178,173305,37132,222236
40188,173301,37125,222218
40199,173271,37136,222241
40208,173333,37131,222224
40218,173296,37124,222242
40228,173283,37129,222237
40238,173304,37124,222244
40248,173296,37126,222251
40258,173295,37112,222254
40268,173307,37128,222239
40278,173311,37133,222243
40289,173300,37111,222250
40297,173310,37122,222253
40308,173306,37123,222255
40318,173306,37135,222269
40329,173328,37116,222248
40338,173314,37140,222261
40348,173310,37136,222248
40358,173301,37152,222266
40368,173291,37130,222234
40378,173328,37141,222266
40388,173310,37142,222276
40398,173343,37149,222258
40408,173311,37144,222284
40418,173339,37146,222257
40428,173320,37148,222286
40438,173345,37148,222268
40448,173312,37144,222270
40458,173347,37152,222266
40468,173338,37140,222295
40478,173351,37159,222280
40488,173351,37155,222265
40498,173351,37140,222289
40507,173345,37135,222282
40517,173358,37144,222288
40528,173364,37155,222311
40538,173366,37139,222305
40548,173343,37143,222305
40558,173361,37157,222270
40568,173361,37172,222304
40578,173372,37147,222293
40587,173361,37160,222322
40598,173367,37157,222312
40608,173339,37160,222306
40618,173359,37151,222302
40627,173374,37170,222309
40638,173356,37152,222299
40648,173382,37162,222312
40658,173379,37154,222280
40667,173354,37162,222305
40677,173387,37148,222318
40688,173367,37167,222305
40698,173381,37163,222292
40708,173376,37154,222320
40717,173378,37162,222299
40727,173347,37169,222339
40738,173396,37142,222316
40748,173404,37166,222319
40758,173390,37168,222313
40768,173385,37164,222287
40778,173380,37181,222307
40788,173363,37185,222332
40797,173376,37166,222327
40808,173391,37163,222309
40817,173390,37161,222298
40828,173400,37152,222310
40837,173406,37169,222306
40848,173384,37166,222325
40858,173377,37173,222317
40868,173377,37177,222321
40877,173400,37172,222312
40887,173402,37176,222324
40897,173409,37185,222340
40907,173397,37166,222303
40917,173393,37180,222336
40927,173412,37171,222329
40937,173406,37168,222326
40948,173408,37180,222339
40958,173420,37173,222324
40968,173418,37180,222347
40977,173399,37184,222338
40988,173438,37185,222347
40998,173429,37180,222345
41008,173424,37178,222345
41017,173420,37178,222325
41028,173437,37181,222314
41038,173422,37185,222345
41047,173404,37176,222319
41057,173416,37197,222336
41067,173417,37182,222322
41078,173421,37181,222329
41087,173398,37181,222349
41097,173414,37182,222328
41107,173376,37184,222337
41117,173421,37167,222331
41127,173427,37175,222336
41137,173430,37173,222331
41147,173408,37191,222348
41158,173429,37184,222354
41167,173440,37212,222342
41177,173428,37193,222340
41187,173407,37197,222352
41197,173410,37195,222351
41208,173426,37181,222339
41217,173427,37209,222345
41227,173397,37195,222345
41238,173434,37187,222341
41248,173412,37186,222345
41257,173426,37187,222335
41267,173424,37193,222313
41277,173421,37203,222335
41287,173413,37209,222341
41297,173438,37196,222336
41307,173428,37205,222330
41317,173452,37204,222351
41327,173409,37194,222336
41337,173437,37202,222335
41347,173426,37201,222336
41357,173442,37178,222338
41368,173447,37209,222377
41377,173434,37193,222326
41387,173451,37197,222308
41397,173418,37206,222345
41407,173431,37199,222331
41417,173439,37194,222329
41427,173429,37197,222348
41437,173440,37202,222338
41447,173446,37195,222332
41457,173439,37202,222324
41467,173451,37181,222318
41477,173449,37198,222311
41488,173429,37187,222367
41497,173448,37196,222326
41507,173436,37189,222330
41517,173423,37190,222331
41527,173423,37179,222325
41538,173441,37184,222315
41547,173433,37186,222305
41557,173432,37194,222320
41567,173446,37171,222295
41577,173425,37180,222322
41586,173434,37187,222310
41597,173418,37183,222307
41607,173454,37183,222341
41617,173445,37156,222305
41626,173452,37181,222353
41636,173431,37175,222311
41647,173428,37156,222305
41657,173423,37171,222269
41666,173412,37166,222296
41677,173418,37185,222306
41687,173439,37174,222270
41697,173423,37190,222320
41707,173431,37171,222308
41716,173440,37189,222303
41726,173436,37178,222308
41737,173432,37191,222316
41747,173440,37172,222285
41756,173408,37186,222317
41767,173441,37185,222312
41777,173437,37171,222311
41787,173438,37174,222289
41796,173434,37174,222312
41807,173445,37170,222295
41817,173426,37157,222309
41827,173444,37164,222298
41836,173427,37165,222283
41846,173433,37186,222265
41857,173421,37171,222318
41867,173438,37177,222324
41876,173439,37160,222291
41887,173433,37171,222299
41897,173437,37181,222298
41907,173441,37178,222314
41916,173429,37177,222284
41926,173412,37186,222248
41936,173433,37177,222318
41947,173436,37173,222296
41957,173438,37172,222286
41967,173427,37179,222283
41977,173428,37179,222285
41987,173419,37177,222276
41997,173434,37159,222268
42006,173405,37179,222290
42017,173440,37163,222291
42027,173452,37182,222273
42037,173442,37167,222314
42046,173445,37171,222308
42056,173436,37165,222283
42067,173434,37185,222289
42077,173440,37179,222281
42086,173424,37180,222309
42096,173435,37176,222293
42106,173423,37163,222285
42117,173429,37174,222275
42126,173441,37157,222286
42136,173429,37175,222274
42146,173445,37161,222276
42157,173425,37167,222296
42166,173440,37181,222301
42176,173408,37172,222278
42186,173417,37168,222312
42196,173430,37158,222284
42207,173421,37169,222284
42216,173428,37165,222273
42226,173420,37173,222249
42237,173409,37178,222276
42247,173418,37182,222273
42256,173430,37144,222260
42266,173416,37157,222208
42276,173416,37164,222274
42287,173431,37155,222254
42296,173421,37152,222237
42307,173399,37137,222281
42316,173410,37169,222255
42327,173393,37142,222220
42336,173419,37149,222237
42346,173423,37151,222264
42356,173399,37149,222245
42366,173416,37131,222259
42376,173415,37151,222241
42386,173422,37125,222271
42396,173412,37136,222229
42406,173420,37151,222228
42416,173430,37124,222238
42426,173394,37125,222195
42436,173399,37120,222210
42447,173387,37120,222215
42457,173411,37132,222212
42466,173388,37130,222212
42476,173391,37131,222228
42495,173404,37118,222205
42498,173406,37119,222216
42506,173399,37087,222211
42516,173386,37128,222216
42526,173392,37127,222192
42536,173396,37129,222204
42545,173402,37117,222215
42556,173395,37113,222210
42566,173399,37130,222184
42576,173405,37108,222203
42586,173385,37124,222194
42596,173401,37103,222176
42606,173391,37110,222214
42617,173397,37107,222212
42626,173404,37116,222232
42635,173405,37111,222205
42646,173403,37094,222214
42656,173395,37106,222194
42666,173385,37095,222214
42676,173389,37114,222174
42686,173380,37105,222211
42696,173382,37122,222202
42706,173395,37099,222199
42716,173376,37105,222195
42726,173381,37106,222211
42736,173378,37119,222189
42746,173384,37125,222199
42755,173372,37115,222193
42765,173380,37111,222207
42776,173393,37097,222207
42786,173391,37119,222215
42795,173381,37114,222205
42805,173402,37097,222202
42815,173405,37091,222209
42826,173398,37096,222192
42835,173389,37096,222200
42846,173397,37096,222208
42856,173389,37104,222198
42866,173396,37101,222188
42876,173375,37080,222176
42886,173384,37067,222165
42896,173377,37069,222180
42906,173395,37101,222206
42916,173382,37081,222196
42925,173388,37085,222196
42936,173380,37103,222173
42946,173369,37108,222202
42956,173381,37103,222167
42965,173372,37093,222202
42975,173383,37095,222200
42986,173378,37074,222170
42996,173379,37095,222188
43006,173357,37089,222198
43016,173362,37092,222177
43026,173372,37101,222196
43036,173356,37098,222193
43045,173372,37070,222173
43055,173371,37086,222178
43065,173384,37067,222205
43076,173371,37081,222178
43085,173374,37089,222196
43096,173374,37078,222203
43106,173358,37090,222180
43116,173348,37093,222190
43125,173367,37066,222183
43135,173352,37096,222166
43145,173355,37102,222145
43155,173365,37067,222167
43166,173374,37071,222164
43175,173361,37070,222180
43185,173363,37061,222158
43196,173335,37083,222159
43206,173370,37085,222120
43215,173351,37064,222159
43225,173362,37069,222132
43235,173342,37069,222148
43246,173377,37064,222141
43255,173344,37062,222160
43265,173352,37078,222148
43276,173344,37050,222154
43286,173361,37052,222148
43295,173338,37062,222134
43305,173348,37049,222141
43316,173349,37062,222138
43326,173349,37049,222138
43335,173348,37049,222121
43345,173344,37052,222133
43355,173340,37045,222142
43365,173358,37057,222134
43375,173341,37031,222122
43385,173355,37045,222140
43395,173325,37040,222124
43405,173340,37043,222122
43415,173333,37048,222113
43425,173325,37027,222116
43436,173335,37029,222112
43446,173328,37058,222134
43456,173340,37042,222135
43465,173347,37016,222122
43475,173329,37040,222143
43485,173357,37019,222129
43496,173330,37032,222126
43505,173342,37041,222116
43515,173325,37028,222131
43525,173311,37043,222152
43535,173317,37021,222122
43544,173317,37044,222133
43555,173337,37021,222133
43565,173331,37026,222130
43575,173339,37027,222125
43584,173331,37024,222132
43595,173322,37032,222114
43605,173324,37043,222114
43615,173336,37009,222113
43625,173329,37025,222116
43635,173326,37029,222104
43645,173307,37022,222125
43656,173325,37021,222104
43666,173332,37022,222113
43675,173336,37018,222136
43685,173327,37019,222100
43696,173335,37018,222114
43706,173329,36997,222111
43715,173330,37021,222101
43725,173328,37014,222097
43735,173319,37029,222118
43745,173317,37013,222113
43755,173333,37018,222107
43765,173330,37028,222122
43775,173330,37019,222129
43785,173341,37001,222116
43794,173299,37009,222106
43804,173333,37000,222131
43815,173344,37017,222131
43826,173343,37025,222124
43835,173336,37019,222098
43845,173331,37047,222124
43855,173351,37030,222119
43865,173351,36992,222130
43875,173354,37037,222132
43884,173345,37026,222152
43895,173354,37039,222127
43905,173376,37010,222165
43915,173355,37036,222154
43925,173369,37026,222154
43935,173355,37042,222132
43945,173371,37042,222147
43955,173363,37037,222145
43964,173357,37037,222152
43975,173378,37028,222168
43985,173352,37038,222173
43995,173381,37045,222169
44005,173383,37025,222162
44015,173379,37042,222172
44025,173376,37039,222167
44035,173354,37036,222157
44044,173391,37048,222155
44054,173395,37042,222185
44065,173394,37021,222155
44075,173405,37042,222152
44084,173397,37036,222170
44094,173383,37043,222180
44104,173401,37045,222155
44115,173386,37041,222169
44125,173400,37042,222159
44135,173399,37024,222168
44145,173402,37047,222172
44155,173401,37042,222169
44165,173398,37009,222176
44174,173380,37039,222174
44184,173407,37048,222147
44217,173405,37047,222175
44224,173394,37038,222169
44235,173378,37044,222176
44245,173407,37049,222185
44254,173402,37045,222172
44264,173394,37031,222153
44275,173402,37023,222165
44285,173401,37038,222174
44294,173390,37038,222170
44304,173398,37016,222165
44315,173404,37034,222180
44325,173401,37039,222158
44334,173424,37036,222159
44344,173402,37035,222168
44354,173405,37052,222185
44365,173414,37033,222166
44375,173402,37037,222137
44384,173389,37032,222165
44395,173409,37027,222176
44405,173398,37045,222153
44415,173412,37032,222146
44424,173409,37034,222153
44434,173394,37036,222167
44444,173408,37045,222170
44454,173408,37047,222141
44464,173408,37049,222145
44475,173388,37047,222175
44484,173392,37047,222152
44495,173426,37030,222160
44504,173402,37048,222157
44515,173405,37038,222155
44525,173380,37043,222168
44535,173408,37032,222163
44544,173408,37044,222145
44554,173417,37043,222167
44564,173422,37043,222174
44575,173404,37067,222170
44584,173409,37050,222168
44594,173393,37043,222149
44604,173406,37040,222156
44614,173410,37048,222131
44625,173414,37054,222166
44634,173413,37040,222131
44644,173402,37047,222161
44654,173407,37043,222173
44664,173403,37055,222187
44674,173406,37045,222166
44684,173423,37042,222171
44695,173414,37038,222195
44704,173407,37048,222155
44714,173420,37043,222188
44724,173410,37056,222149
44735,173428,37047,222166
44745,173393,37055,222172
44754,173408,37054,222161
44764,173422,37044,222187
44774,173398,37056,222169
44784,173410,37045,222163
44793,173428,37051,222167
44804,173425,37032,222157
44815,173407,37037,222164
44824,173427,37044,222156
44834,173428,37050,222169
44843,173418,37051,222151
44854,173440,37041,222155
44864,173415,37044,222163
44874,173424,37038,222162
44884,173414,37042,222140
44894,173412,37038,222142
44905,173414,37028,222144
44915,173409,37059,222158
44924,173385,37037,222157
44934,173394,37045,222121
44944,173425,37035,222124
44954,173400,37046,222098
44964,173399,37045,222143
44974,173417,37037,222140
44984,173402,37037,222131
44994,173388,37046,222155
45003,173408,37027,222147
45013,173412,37032,222133
45024,173393,37033,222119
45036,173407,37035,222116
45043,173420,37030,222119
45054,173398,37034,222112
45064,173395,37016,222081
45074,173389,37028,222119
45083,173397,37023,222102
45093,173402,37023,222098
45103,173394,37003,222114
45114,173395,37001,222112
45124,173397,37017,222077
45133,173393,37017,222122
45144,173400,37015,222086
45154,173398,37013,222092
45164,173386,37025,222108
45174,173385,37015,222108
45184,173391,37020,222070
45194,173386,37009,222110
45204,173387,37006,222101
45213,173394,37024,222092
45223,173384,37019,222093
45234,173399,37000,222112
45244,173386,37007,222077
45253,173379,37019,222104
45264,173374,37020,222089
45274,173415,37013,222100
45284,173409,37005,222097
45293,173394,37008,222084
45303,173375,37004,222106
45314,173368,37004,222106
45324,173382,36998,222065
45333,173385,37013,222086
45343,173392,37014,222087
45353,173373,37011,222090
45363,173384,37009,222085
45374,173388,36997,222089
45384,173374,37009,222092
45394,173379,37007,222080
45404,173369,36999,222095
45414,173376,36988,222098
45423,173379,37000,222085
45433,173372,37015,222072
45443,173387,36984,222093
45454,173369,36997,222086
45463,173367,36995,222061
45473,173373,36994,222084
45484,173360,37003,222061
45494,173386,37014,222079
45503,173379,37008,222108
45513,173373,37011,222057
45523,173371,37015,222075
45534,173352,36998,222072
45543,173374,37013,222062
45553,173356,37002,222076
45563,173374,37003,222078
45573,173381,37010,222078
45583,173369,36995,222081
45593,173368,37004,222072
45603,173394,36981,222072
45614,173379,37009,222079
45624,173369,37002,222083
45633,173363,36997,222089
45643,173361,37012,222081
45653,173363,36999,222075
45664,173372,36998,222094
45673,173366,37001,222084
45683,173361,36992,222092
45694,173366,37000,222067
45704,173360,37000,222089
45713,173345,36987,222091
45723,173356,37002,222068
45733,173363,36991,222072
45743,173367,36991,222084
45752,173365,37011,222041
45763,173340,36995,222056
45774,173354,36999,222072
45784,173350,36980,222071
45793,173370,37000,222061
45803,173340,37006,222066
45813,173344,36978,222065
45823,173351,36994,222083
45833,173348,36998,222074
45843,173345,36983,222087
45853,173357,36987,222073
45864,173369,36982,222058
45874,173357,36995,222063
45883,173343,36977,222063
45893,173342,36986,222068
45903,173363,36978,222071
45913,173365,36978,222066
45922,173358,36952,222067
45932,173360,36982,222064
45943,173357,36962,222066
45953,173339,36978,222056
45962,173355,36973,222066
45972,173346,36962,222059
45983,173344,36954,222073
45993,173352,36977,222052
46003,173347,36952,222070
46013,173346,36953,222048
46023,173344,36962,222057
46033,173347,36964,222088
46042,173344,36967,222045
46052,173350,36955,222020
46063,173333,36967,222050
46074,173311,36956,222057
46083,173345,36953,222034
46093,173357,36956,222054
46103,173351,36953,222046
46113,173319,36965,222070
46123,173326,36963,222066
46132,173326,36950,222042
46143,173308,36960,222044
46153,173340,36955,222051
46163,173350,36959,222056
46172,173303,36963,222059
46183,173322,36959,222053
46193,173322,36965,222045
46204,173324,36951,222042
46213,173320,36970,222033
46223,173312,36955,222052
46233,173304,36962,222060
46243,173322,36956,222014
46252,173334,36947,222049
46262,173321,36965,222063
46273,173311,36949,222011
46283,173323,36945,222036
46292,173322,36952,222042
46302,173328,36937,222050
46313,173327,36926,222034
46323,173302,36954,222031
46335,173326,36961,222047
46342,173325,36956,222046
46352,173317,36953,222032
46363,173309,36951,222036
46373,173319,36958,222023
46382,173307,36955,222035
46392,173327,36949,222049
46403,173345,36942,222030
46413,173311,36942,222035
46422,173304,36957,222035
46433,173296,36951,222028
46443,173294,36948,222013
46453,173317,36957,222008
46462,173289,36953,222038
46473,173289,36945,222036
46483,173309,36948,222016
46493,173295,36946,222028
46502,173317,36954,222016
46512,173300,36932,222002
46523,173302,36948,222020
46533,173300,36945,222033
46542,173290,36954,222020
46552,173300,36952,222042
46562,173322,36962,222002
46572,173314,36960,222024
46583,173307,36955,222031
46592,173322,36966,222032
46603,173318,36953,222034
46613,173305,36955,222022
46623,173301,36958,222034
46632,173299,36963,222039
46643,173309,36964,222036
46653,173308,36948,222027
46663,173330,36957,222046
46672,173309,36950,222041
46682,173315,36963,222035
46693,173324,36952,222030
46703,173330,36958,222061
46712,173343,36967,222039
46723,173332,36948,222047
46733,173340,36981,222053
46743,173317,36955,222050
46752,173317,36975,222061
46762,173331,36963,222069
46773,173310,36962,222047
46783,173326,36957,222056
46792,173340,36965,222067
46802,173334,36950,222051
46812,173336,36964,222041
46823,173335,36966,222074
46833,173339,36970,222082
46842,173349,36965,222087
46852,173354,36969,222079
46862,173342,36969,222079
46872,173367,36976,222068
46882,173358,36974,222082
46892,173369,36991,222092
46902,173342,36982,222079
46912,173355,36980,222067
46922,173356,36985,222102
46932,173352,36973,222088
46943,173359,36995,222072
46953,173352,36983,222075
46962,173342,36981,222092
46972,173360,36986,222083
46982,173359,36989,222094
46993,173355,36973,222076
47002,173349,36966,222073
47012,173349,36991,222094
47023,173368,36986,222095
47033,173377,36982,222096
47042,173370,36985,222108
47052,173352,36988,222115
47062,173355,36995,222102
47072,173368,36991,222103
47083,173362,36995,222105
47092,173352,36997,222095
47102,173386,36993,222113
47113,173379,36987,222096
47123,173370,36991,222065
47132,173387,37005,222088
47142,173366,36979,222095
47155,173360,36996,222103
47162,173378,36992,222132
47171,173365,36999,222092
47182,173366,36993,222091
47192,173367,37006,222114
47203,173375,36987,222130
47212,173377,37006,222084
47221,173353,37008,222096
47232,173359,37011,222104
47243,173361,37013,222097
47252,173383,37008,222103
47261,173362,37008,222096
47271,173372,37017,222112
47282,173376,37007,222119
47292,173361,37010,222116
47302,173374,37010,222111
47312,173387,37010,222095
47322,173380,37018,222102
47332,173389,37013,222124
47341,173388,37008,222109
47352,173353,37011,222111
47362,173390,37027,222071
47372,173394,37021,222107
47381,173368,37019,222117
47391,173382,37021,222092
47402,173379,37012,222117
47413,173379,37016,222112
47421,173393,37026,222107
47432,173393,37018,222113
47442,173385,37026,222128
47452,173389,37039,222112
47461,173371,37035,222119
47472,173384,37030,222122
47481,173393,37027,222120
47492,173387,37025,222111
47501,173379,37035,222101
47511,173385,37026,222096
47521,173374,37038,222103
47531,173389,37035,222117
47542,173399,37028,222100
47552,173389,37027,222104
47562,173385,37043,222109
47572,173387,37043,222107
47582,173391,37023,222113
47591,173391,37036,222112
47602,173392,37033,222105
47612,173383,37024,222091
47622,173406,37033,222130
47632,173382,37031,222117
47642,173385,37039,222101
47652,173399,37032,222097
47662,173373,37027,222110
47671,173398,37024,222087
47682,173350,37037,222106
47692,173388,37041,222092
47702,173358,37038,222096
47711,173384,37026,222095
47721,173359,37030,222111
47731,173351,37021,222086
47742,173380,37020,222072
47751,173377,37034,222065
47761,173377,37022,222089
47772,173375,37026,222108
47781,173388,37034,222112
47791,173387,37020,222082
47801,173380,37014,222080
47812,173377,37024,222088
47821,173385,37035,222107
47832,173375,37019,222085
47841,173376,37030,222068
47852,173375,37021,222092
47862,173376,37025,222080
47872,173378,37042,222093
47881,173376,37041,222097
47891,173381,37024,222073
47901,173386,37036,222104
47912,173380,37039,222088
47921,173387,37041,222085
47932,173374,37031,222079
47942,173367,37026,222077
47952,173374,37038,222090
47961,173371,37036,222100
47971,173365,37034,222080
47981,173382,37037,222091
47992,173351,37045,222076
48001,173380,37035,222071
48011,173372,37042,222062
48021,173375,37025,222078
48031,173358,37032,222072
48041,173390,37027,222081
48051,173381,37047,222062
48061,173341,37055,222079
48071,173362,37053,222081
48082,173353,37032,222092
48091,173366,37045,222068
48102,173357,37043,222087
48112,173375,37035,222072
48122,173351,37039,222082
48131,173356,37034,222079
48141,173379,37042,222070
48151,173360,37036,222087
48162,173370,37032,222085
48171,173355,37037,222085
48181,173377,37031,222055
48191,173383,37049,222081
48201,173364,37029,222089
48211,173375,37029,222089
48221,173363,37050,222078
48231,173370,37018,222067
48241,173365,37031,222052
48251,173371,37039,222063
48260,173370,37048,222084
48271,173377,37048,222083
48282,173375,37031,222091
48291,173368,37045,222043
48301,173362,37047,222075
48311,173355,37036,222060
48322,173375,37033,222077
48332,173360,37031,222035
48341,173355,37029,222074
48351,173361,37032,222053
48361,173364,37045,222064
48372,173381,37040,222061
48381,173356,37036,222066
48391,173308,37055,222066
48401,173345,37046,222058
48411,173353,37038,222057
48420,173356,37027,222056
48431,173341,37047,222050
48441,173350,37041,222035
48452,173338,37044,222053
48461,173345,37047,222027
48471,173354,37040,222031
48481,173332,37018,222062
48491,173350,37048,222016
48501,173326,37048,222044
48511,173369,37041,222042
48521,173344,37018,222030
48531,173333,37022,222041
48541,173335,37028,222062
48550,173337,37032,222033
48561,173362,37029,222037
48571,173333,37023,222055
48581,173337,37022,222035
48591,173341,37020,222034
48600,173331,37028,222037
48611,173336,37025,222053
48621,173339,37032,222009
48631,173331,37022,222020
48641,173333,37025,222041
48651,173336,37027,222012
48661,173315,37034,222013
48670,173321,37013,221997
48681,173294,37030,222005
48691,173325,37029,222007
48701,173309,37024,222029
48710,173313,37031,222019
48721,173310,37031,222041
48731,173302,37029,222019
48741,173326,37021,222018
48750,173309,37025,222027
48761,173328,37039,222016
48771,173305,37010,222021
48781,173314,37026,222029
48791,173319,37014,222016
48800,173329,37024,222030
48810,173306,37030,222018
48821,173307,37019,222032
48831,173309,37018,222024
48841,173319,37009,221999
48851,173321,37022,221996
48860,173318,37026,222002
48871,173307,37007,222012
48881,173296,37017,221986
48891,173306,37013,221990
48901,173306,37025,222002
48911,173333,37025,221989
48920,173315,37019,222019
48930,173310,37008,222013
48940,173309,37011,221992
48951,173297,37012,221998
48960,173295,37028,222016
48971,173276,37015,222019
48981,173297,37023,221989
48991,173293,37021,221989
49000,173278,37008,221984
49010,173285,37017,222004
49021,173311,37014,222005
49031,173289,37023,222006
49041,173299,37029,221983
49050,173296,37031,222000
49060,173312,36988,222019
49071,173309,37015,222014
49081,173294,37026,222020
49090,173305,37014,222006
49100,173290,37009,222012
49111,173282,37022,222010
49121,173291,37013,222023
49130,173300,37006,222023
49140,173289,37014,221994
49150,173300,37010,222000
49161,173278,37001,221998
49170,173269,37015,222027
49180,173308,37010,222014
49190,173290,37016,221994
49200,173272,37003,222002
49209,173286,37015,221994
49220,173286,37007,222000
49230,173278,37024,221982
49240,173280,37024,222003
49250,173266,37030,221983
49260,173266,37018,221986
49270,173281,37012,221982
49280,173289,37008,221976
49291,173269,37011,221993
49300,173284,37019,221989
49310,173271,37023,221978
49321,173270,37008,221995
49331,173279,37010,221966
49340,173269,37015,221987
49350,173274,37002,221971
49360,173275,37018,221973
49371,173256,37013,221991
49380,173275,37005,221971
49390,173260,37014,221979
49400,173267,37004,221979
49411,173262,37013,221982
49419,173275,37019,221966
49430,173263,37018,221977
49440,173250,37009,221972
49451,173272,36990,221962
49460,173258,36999,221952
49470,173261,37003,221951
49480,173257,36994,221953
49490,173249,36999,221955
49500,173250,37009,221973
49510,173248,37005,221971
49520,173253,37014,221959
49530,173252,37006,221967
49540,173261,36980,221963
49550,173243,37011,221974
49560,173248,36986,221963
49571,173240,36993,221959
49580,173245,36995,221944
49590,173242,36992,221953
49599,173251,37004,221968
49610,173263,37002,221954
49621,173268,37012,221960
49630,173219,37007,221957
49640,173242,37012,221972
49650,173249,37003,221930
49660,173216,36988,221946
49670,173228,36997,221959
49679,173234,36991,221950
49690,173252,36979,221964
49701,173245,36996,221940
49710,173234,36996,221929
49720,173236,37001,221944
49730,173236,36986,221950
49740,173235,37009,221944
49750,173237,36984,221930
49760,173237,36988,221950
49770,173249,37000,221929
49780,173223,37000,221956
49790,173250,37015,221941
49800,173256,37000,221958
49810,173232,36983,221956
49820,173244,37007,221969
49830,173227,37015,221971
49839,173234,36994,221977
49849,173243,37011,221955
49860,173231,37018,221970
49871,173232,36997,221971
49879,173236,37000,221962
49890,173238,37005,221975
49900,173246,37002,221959
49910,173246,37008,221963
49919,173239,37010,221979
49929,173236,37007,221975
49940,173245,37014,221972
49950,173250,37002,221974
49959,173257,37002,221986
49969,173255,37020,221975
49979,173262,36993,221975
49990,173253,37000,221967
50000,173247,37022,221972
50010,173273,37016,221962
50019,173227,37023,221991
50030,173270,37032,221986
50040,173271,37012,221978
50050,173261,37027,222000
50060,173264,37012,221972
50070,173254,37019,221964
50080,173248,37032,221999
50089,173231,37028,222001
50100,173277,37027,221996
50110,173251,37023,221992
50120,173271,37024,221998
50129,173283,37031,222012
50139,173282,37032,222010
50149,173294,37026,221994
50160,173293,37039,222024
50169,173285,37036,222009
50180,173302,37027,222032
50190,173298,37034,222011
50200,173279,37049,222015
50209,173295,37033,222015
50220,173297,37059,222028
50230,173289,37049,222005
50240,173302,37032,222033
50250,173289,37053,222005
50259,173293,37053,222014
50269,173291,37050,222006
50279,173289,37062,222020
50289,173298,37048,222005
50299,173290,37054,222033
50310,173306,37039,222041
50320,173296,37061,222032
50330,173294,37043,222030
50339,173282,37055,222029
50349,173320,37055,222016
50360,173278,37066,222031
50370,173322,37051,222017
50379,173314,37058,222042
50389,173311,37070,222044
50399,173317,37062,222022
50416,173320,37063,222036
50419,173322,37061,222037
50429,173290,37074,222038
50439,173321,37048,222029
50450,173302,37069,222050
50458,173293,37064,222026
50469,173301,37084,222023
50479,173317,37064,222023
50490,173322,37065,222033
50500,173305,37059,222017
50509,173318,37058,222023
50520,173314,37057,222017
50530,173327,37075,222011
50540,173304,37072,222011
50549,173312,37066,222021
50559,173322,37056,222026
50569,173302,37066,222050
50580,173328,37083,222017
50589,173295,37085,222014
50599,173301,37083,222005
50609,173307,37073,222019
50619,173290,37074,222023
50628,173319,37074,222023
50639,173314,37071,222012
50650,173307,37086,222028
50660,173302,37073,222016
50669,173310,37068,222002
50679,173300,37072,222029
50689,173307,37075,222023
50699,173305,37080,222001
50709,173307,37063,222012
50719,173305,37086,222018
50729,173300,37081,222001
50739,173310,37072,222014
50749,173308,37093,222005
50759,173315,37078,222015
50769,173311,37072,222028
50779,173313,37071,222024
50789,173304,37092,222018
50798,173310,37075,222012
50808,173294,37070,222014
50819,173301,37073,222018
50829,173303,37095,222005
50838,173325,37089,222023
50848,173315,37096,222023
50859,173313,37091,222019
50870,173302,37095,222026
50920,173311,37093,222003
50929,173313,37092,221996
50938,173324,37092,222037
50949,173327,37091,222014
50958,173308,37093,222026
50969,173311,37098,222024
50979,173323,37098,222021
50989,173301,37099,222022
50999,173306,37086,222004
51008,173328,37087,222011
51019,173332,37113,222025
51029,173320,37112,221988
51039,173303,37109,222014
51048,173324,37083,221989
51059,173313,37095,222007
51069,173328,37101,222001
51079,173295,37096,221989
51089,173314,37099,222003
51099,173319,37113,221983
51109,173346,37089,221989
51119,173320,37096,221996
51128,173292,37095,221992
51138,173312,37096,222008
51148,173323,37095,221997
51159,173291,37102,222005
51168,173307,37090,221985
51178,173320,37076,221990
51189,173307,37093,222005
51199,173320,37088,222005
51208,173318,37097,221983
51218,173302,37090,221981
51229,173328,37086,221991
51239,173289,37081,221997
51249,173293,37087,221975
51258,173304,37069,221995
51269,173283,37091,221984
51279,173313,37079,221975
51289,173283,37090,221978
51298,173294,37080,221963
51308,173286,37079,221961
51319,173309,37079,221972
51329,173301,37077,221968
51338,173306,37088,221975
51348,173300,37089,221942
51358,173283,37076,221976
51369,173309,37077,221970
51378,173279,37084,221954
51389,173304,37078,221974
51398,173292,37084,221959
51409,173315,37086,221957
51418,173295,37081,221969
51428,173271,37088,221964
51439,173270,37080,221983
51449,173288,37085,221965
51458,173301,37083,221974
51468,173282,37079,221963
51478,173294,37084,221974
51489,173281,37084,221961
51499,173283,37076,221952
51508,173282,37082,221936
51518,173286,37082,221964
51536,173279,37088,221966
51538,173275,37067,221976
51555,173281,37055,221935
51558,173286,37079,221979
51569,173289,37073,221933
51579,173287,37087,221943
51595,173282,37072,221947
51598,173297,37078,221974
51616,173264,37059,221929
51618,173285,37089,221974
51627,173281,37076,221898
51657,173275,37086,221963
51659,173282,37086,221963
51667,173273,37073,221920
51678,173289,37069,221961
51689,173266,37076,221943
51699,173277,37075,221928
51708,173262,37079,221935
51718,173271,37065,221952
51728,173244,37066,221941
51738,173263,37083,221958
51748,173291,37064,221951
51758,173267,37078,221965
51768,173265,37078,221959
51778,173280,37063,221951
51789,173264,37079,221958
51798,173266,37080,221956
51808,173246,37078,221951
51819,173255,37060,221942
51829,173250,37067,221919
51838,173275,37064,221946
51848,173255,37061,221943
51858,173268,37077,221969
51875,173267,37073,221969
51878,173272,37076,221946
51888,173230,37086,221872
51898,173268,37076,221931
51908,173236,37070,221953
51917,173262,37061,221933
51928,173257,37067,221939
51938,173245,37073,221924
51948,173287,37073,221909
51958,173251,37073,221947
51968,173259,37070,221930
51978,173269,37076,221938
51988,173247,37071,221924
51998,173256,37053,221916
52007,173242,37067,221916
52017,173249,37066,221933
52028,173252,37060,221941
52038,173261,37070,221939
52048,173239,37054,221928
52058,173248,37062,221930
52068,173237,37078,221927
52078,173232,37084,221916
52087,173251,37073,221894
52098,173236,37060,221917
52108,173243,37079,221929
52118,173234,37053,221909
52127,173238,37079,221918
52138,173239,37052,221912
52148,173245,37074,221909
52158,173232,37065,221906
52167,173215,37060,221876
52178,173214,37067,221929
52188,173230,37058,221912
52198,173208,37057,221917
52208,173235,37060,221935
52218,173231,37065,221921
52228,173224,37056,221918
52238,173217,37052,221904
52248,173216,37051,221934
52257,173215,37067,221895
52267,173218,37060,221914
52278,173230,37063,221922
52288,173227,37060,221900
52297,173237,37049,221914
52307,173245,37064,221929
52318,173220,37031,221905
52328,173224,37053,221921
52337,173214,37034,221908
52348,173199,37065,221920
52357,173232,37053,221901
52368,173193,37037,221916
52377,173200,37051,221903
52387,173174,37047,221913
52398,173207,37038,221903
52408,173201,37061,221906
52417,173198,37057,221907
52427,173210,37047,221908
52437,173184,37050,221901
52447,173194,37039,221926
52458,173186,37041,221914
52467,173207,37044,221915
52477,173191,37042,221892
52488,173191,37024,221904
52498,173199,37033,221881
52507,173184,37036,221877
52518,173170,37041,221902
52528,173184,37045,221895
52538,173213,37030,221906
52547,173174,37048,221906
52558,173175,37040,221900
52568,173185,37038,221895
52578,173191,37053,221907
52587,173192,37037,221874
52597,173156,37044,221901
52607,173178,37035,221882
52618,173179,37035,221884
52627,173160,37033,221908
52637,173181,37029,221896
52647,173159,37030,221907
52657,173187,37022,221904
52667,173175,37041,221906
52677,173181,37040,221884
52696,173137,37033,221904
52698,173180,37034,221916
52707,173186,37038,221889
52717,173175,37036,221892
52727,173175,37037,221910
52737,173177,37036,221890
52748,173185,37036,221876
52757,173175,37041,221887
52767,173174,37044,221850
52778,173161,37039,221873
52788,173161,37031,221902
52797,173168,37043,221870
52807,173163,37035,221880
52817,173166,37051,221877
52836,173176,37044,221898
52838,173188,37035,221891
52847,173174,37020,221881
52857,173185,37032,221886
52867,173157,37038,221893
52877,173177,37047,221900
52887,173187,37039,221884
52897,173154,37032,221884
52907,173170,37028,221861
52917,173173,37037,221876
52927,173198,37035,221910
52937,173201,37030,221898
52948,173189,37052,221885
52958,173186,37026,221882
52967,173176,37047,221876
52977,173160,37037,221887
52987,173182,37042,221875
52997,173182,37040,221876
53007,173183,37038,221864
53017,173171,37032,221877
53027,173165,37052,221856
53038,173160,37039,221887
53047,173182,37051,221867
53057,173176,37040,221895
53067,173191,37036,221893
53077,173179,37042,221885
53086,173158,37036,221912
53097,173198,37025,221914
53107,173210,37045,221844
53117,173191,37055,221905
53126,173197,37046,221894
53136,173188,37025,221899
53147,173182,37037,221880
53157,173209,37045,221894
53167,173208,37035,221890
53177,173184,37072,221895
53187,173199,37042,221921
53197,173205,37042,221894
53207,173205,37057,221919
53217,173192,37053,221870
53227,173195,37054,221850
53237,173194,37055,221874
53247,173212,37049,221921
53256,173204,37041,221891
53267,173214,37025,221888
53277,173182,37053,221866
53287,173176,37060,221897
53296,173207,37058,221908
53306,173193,37056,221894
53317,173199,37061,221918
53327,173213,37074,221894
53336,173201,37063,221915
53347,173204,37054,221911
53357,173203,37052,221879
53367,173183,37054,221915
53377,173208,37074,221902
53387,173208,37061,221918
53397,173187,37070,221907
53407,173207,37065,221923
53417,173209,37053,221917
53427,173231,37073,221906
53437,173209,37052,221902
53447,173217,37064,221905
53457,173209,37069,221891
53466,173194,37083,221909
53477,173210,37067,221906
53487,173215,37071,221925
53497,173219,37043,221904
53506,173206,37067,221931
53517,173217,37053,221909
53527,173216,37072,221934
53537,173224,37058,221913
53546,173214,37079,221953
53556,173208,37069,221895
53567,173208,37056,221931
53577,173225,37074,221937
53586,173214,37074,221933
53597,173205,37074,221939
53607,173225,37071,221925
53617,173208,37070,221935
53626,173227,37081,221946
53637,173233,37071,221937
53647,173232,37087,221944
53657,173234,37062,221934
53666,173230,37071,221935
53676,173241,37075,221942
53686,173232,37080,221922
53696,173252,37079,221923
53707,173231,37074,221922
53717,173247,37086,221929
53727,173252,37081,221942
53737,173231,37084,221927
53747,173262,37096,221935
53756,173247,37097,221931
53766,173247,37079,221923
53777,173252,37083,221946
53787,173258,37085,221934
53797,173259,37080,221937
53807,173257,37080,221947
53817,173272,37102,221951
53827,173265,37102,221926
53836,173261,37093,221950
53846,173246,37096,221925
53857,173251,37101,221947
53867,173246,37088,221943
53876,173244,37090,221935
53886,173249,37088,221904
53897,173265,37099,221937
53907,173271,37092,221928
53916,173258,37092,221935
53926,173246,37090,221923
53936,173226,37107,221933
53947,173260,37092,221956
53957,173246,37093,221911
53966,173255,37095,221947
53977,173257,37091,221935
53987,173246,37089,221909
53997,173250,37096,221924
54006,173266,37095,221922
54016,173250,37093,221924
54026,173240,37096,221926
54037,173253,37095,221931
54046,173267,37094,221958
54056,173273,37090,221937
54066,173255,37124,221939
54076,173244,37078,221911
54086,173257,37087,221889
54096,173248,37091,221899
54106,173239,37094,221929
54117,173219,37108,221921
54126,173244,37099,221928
54136,173244,37112,221927
54146,173247,37074,221928
54156,173254,37098,221900
54166,173264,37099,221950
54176,173253,37096,221940
54186,173274,37117,221944
54196,173234,37090,221917
54207,173251,37095,221913
54215,173277,37098,221914
54226,173260,37088,221925
54237,173272,37116,221911
54247,173241,37103,221927
54256,173258,37095,221931
54266,173255,37094,221919
54276,173267,37117,221914
54286,173273,37129,221918
54295,173254,37087,221922
54305,173253,37086,221899
54316,173246,37085,221923
54327,173241,37087,221912
54336,173246,37090,221901
54346,173244,37103,221915
54356,173240,37093,221918
54366,173249,37097,221911
54376,173246,37100,221920
54386,173220,37096,221942
54396,173243,37097,221905
54406,173233,37122,221918
54416,173231,37108,221923
54426,173262,37111,221905
54436,173250,37099,221924
54446,173238,37091,221923
54456,173245,37097,221933
54466,173260,37115,221915
54476,173266,37104,221911
54486,173248,37106,221903
54497,173251,37099,221908
54506,173256,37076,221896
54516,173249,37103,221911
54526,173258,37070,221909
54536,173264,37106,221914
54545,173274,37115,221903
54556,173257,37105,221893
54566,173236,37117,221942
54576,173253,37112,221905
54585,173233,37136,221910
54595,173218,37093,221924
54606,173244,37094,221881
54616,173234,37102,221904
54625,173245,37130,221903
54636,173230,37099,221895
54646,173249,37084,221901
54656,173234,37106,221918
54666,173234,37109,221901
54676,173252,37105,221902
54686,173234,37098,221899
54696,173238,37090,221902
54706,173243,37112,221868
54715,173254,37101,221902
54725,173251,37102,221885
54736,173246,37088,221885
54746,173228,37096,221873
54755,173219,37100,221891
54765,173247,37088,221875
54776,173228,37094,221875
54786,173229,37105,221884
54795,173221,37091,221870
54805,173233,37089,221877
54816,173229,37096,221875
54826,173235,37099,221864
54835,173226,37097,221868
54845,173214,37101,221859
54856,173221,37084,221868
54866,173210,37104,221875
54875,173226,37096,221847
54885,173204,37120,221865
54896,173233,37076,221864
54906,173208,37096,221854
54916,173219,37101,221871
54925,173201,37107,221854
54936,173214,37086,221874
54946,173213,37100,221880
54956,173219,37079,221851
54965,173203,37074,221852
54975,173225,37073,221869
54986,173226,37083,221849
54996,173222,37085,221862
55005,173216,37071,221857
55015,173229,37065,221869
55025,173216,37055,221857
55036,173214,37079,221855
55045,173224,37071,221873
55056,173206,37067,221853
55066,173220,37058,221858
55076,173206,37052,221844
55085,173200,37082,221839
55095,173212,37067,221854
55105,173195,37067,221823
55115,173208,37065,221849
55125,173198,37070,221847
55135,173217,37066,221833
55145,173187,37067,221845
55156,173182,37069,221850
55166,173190,37069,221847
55175,173181,37067,221830
55185,173200,37067,221845
55195,173199,37071,221833
55205,173199,37066,221835
55215,173196,37052,221860
55225,173195,37037,221840
55236,173179,37068,221833
55246,173201,37060,221820
55255,173169,37062,221852
55265,173191,37071,221824
55275,173187,37053,221832
55285,173190,37070,221829
55295,173185,37057,221841
55305,173182,37053,221829
55316,173179,37059,221832
55326,173201,37064,221828
55335,173203,37064,221818
55345,173159,37087,221846
55355,173193,37059,221819
55365,173196,37070,221821
55375,173199,37057,221804
55385,173159,37056,221824
55396,173169,37059,221841
55406,173185,37069,221840
55416,173167,37063,221829
55425,173163,37052,221831
55435,173174,37057,221816
55445,173169,37059,221828
55456,173155,37078,221829
55465,173176,37060,221817
55476,173171,37046,221809
55486,173134,37066,221823
55496,173165,37056,221815
55505,173161,37064,221818
55515,173162,37060,221821
55525,173180,37055,221813
55535,173167,37047,221796
55544,173158,37060,221815
55555,173164,37059,221822
55565,173177,37041,221786
55576,173135,37061,221791
55584,173155,37056,221790
55595,173161,37046,221805
55605,173155,37063,221795
55616,173158,37048,221818
55625,173156,37054,221794
55635,173135,37067,221789
55645,173146,37052,221794
55655,173143,37038,221800
55665,173161,37054,221775
55675,173146,37051,221783
55685,173136,37049,221795
55695,173145,37039,221789
55705,173146,37010,221785
55715,173147,37021,221789
55724,173140,37030,221810
55735,173128,37041,221794
55746,173138,37037,221779
55755,173142,37038,221791
55765,173144,37030,221778
55775,173137,37033,221781
55785,173136,37037,221777
55794,173127,37041,221763
55804,173136,37041,221764
55814,173131,37032,221783
55825,173127,37022,221780
55835,173122,37023,221757
55845,173101,37038,221785
55855,173104,37031,221766
55865,173124,37038,221767
55875,173128,37010,221758
55884,173119,37007,221763
55895,173135,37020,221786
55905,173121,37015,221797
55915,173110,37027,221772
55924,173109,37024,221769
55934,173136,37019,221783
55945,173125,36999,221768
55955,173117,37019,221751
55964,173110,37015,221773
55974,173129,37015,221757
55985,173109,37020,221752
55995,173107,37011,221770
56005,173122,37006,221768
56015,173102,37009,221733
56025,173097,37006,221754
56036,173112,37010,221770
56044,173107,37015,221759
56054,173118,37019,221752
56064,173102,37002,221764
56075,173103,37012,221770
56084,173093,37000,221765
56095,173073,37026,221775
56105,173107,37013,221751
56115,173116,37011,221777
56125,173104,37021,221750
56134,173115,37017,221751
56144,173089,37010,221754
56154,173097,37006,221747
56164,173105,37007,221756
56175,173089,37004,221747
56185,173082,37007,221730
56195,173097,37016,221777
56205,173102,36996,221753
56214,173088,37028,221739
56224,173111,37010,221750
56234,173108,37002,221758
56245,173133,37009,221741
56254,173109,37014,221782
56264,173107,37012,221748
56274,173105,37004,221756
56285,173097,37006,221773
56294,173091,37021,221778
56304,173094,37007,221762
56314,173100,37005,221763
56325,173113,37021,221760
56334,173116,37005,221752
56344,173112,37015,221771
56355,173109,37006,221765
56365,173118,37016,221746
56375,173109,37024,221784
56384,173119,37016,221764
56394,173111,37014,221770
56404,173135,37014,221775
56415,173097,37022,221774
56424,173121,37016,221787
56434,173103,37034,221770
56444,173127,37028,221775
56455,173142,37021,221790
56464,173145,37032,221774
56476,173130,37029,221804
56484,173137,37010,221799
56495,173150,37030,221796
56504,173164,37026,221789
56514,173145,37027,221809
56524,173150,37044,221802
56534,173145,37044,221805
56543,173143,37023,221810
56554,173131,37045,221818
56564,173164,37039,221794
56574,173154,37034,221803
56584,173168,37039,221807
56594,173160,37038,221804
56604,173173,37058,221806
56614,173168,37037,221816
56625,173161,37028,221831
56634,173185,37043,221807
56644,173175,37045,221831
56654,173172,37026,221829
56665,173186,37043,221807
56674,173176,37028,221810
56684,173174,37044,221825
56694,173183,37045,221832
56704,173181,37038,221828
56714,173187,37047,221837
56724,173193,37046,221823
56734,173177,37056,221825
56744,173192,37045,221819
56755,173186,37059,221847
56763,173194,37050,221839
56774,173178,37059,221831
56784,173190,37066,221810
56794,173157,37049,221838
56804,173181,37063,221842
56814,173192,37042,221815
56824,173178,37069,221838
56834,173184,37060,221852
56843,173190,37053,221841
56854,173208,37054,221823
56864,173199,37056,221823
