timestamp,red,green,ir
34934,162479,37169,218032
34944,162480,37151,218035
34954,162478,37161,218039
34969,162481,37152,218049
34991,162507,37154,218006
34994,162469,37145,218009
35076,162467,37127,218014
35078,162466,37138,218020
35083,162462,37129,218013
35093,162470,37122,218014
35103,162480,37133,218041
35113,162489,37115,218031
35123,162473,37129,218052
35133,162478,37110,218028
35144,162508,37115,218041
35154,162478,37113,218025
35164,162471,37127,218040
35173,162477,37124,218038
35183,162479,37120,218027
35193,162469,37110,218008
35204,162466,37117,218009
35213,162445,37105,217968
35224,162451,37097,217955
35234,162426,37115,217945
35244,162424,37115,217930
35253,162410,37109,217918
35263,162373,37105,217891
35274,162373,37113,217879
35284,162363,37118,217866
35293,162363,37120,217837
35303,162360,37114,217836
35313,162364,37122,217806
35323,162346,37111,217810
35333,162320,37115,217837
35343,162348,37118,217790
35353,162330,37103,217826
35364,162351,37084,217828
35391,162372,37100,217865
35394,162377,37103,217889
35410,162378,37141,217894
35413,162426,37103,217936
35422,162393,37091,217972
35433,162438,37095,217985
35443,162464,37100,218012
35454,162449,37111,217992
35463,162451,37093,218023
35473,162452,37096,218053
35483,162459,37092,218027
35494,162453,37095,218027
35503,162466,37090,218046
35513,162442,37099,218057
35523,162453,37087,218050
35533,162475,37088,218037
35542,162476,37092,218042
35552,162482,37090,218072
35563,162505,37068,218111
35574,162487,37099,218107
35583,162505,37072,218126
35593,162508,37070,218132
35603,162504,37083,218159
35613,162498,37067,218138
35629,162501,37070,218163
35633,162502,37068,218155
35650,162487,37068,218184
35653,162521,37049,218171
35663,162506,37066,218207
35673,162500,37057,218162
35683,162523,37049,218165
35693,162517,37041,218180
35703,162526,37056,218188
35713,162537,37043,218172
35723,162524,37037,218193
35733,162524,37030,218182
35744,162534,37020,218160
35753,162524,37049,218187
35763,162517,37036,218175
35773,162512,37019,218199
35783,162518,37044,218190
35811,162520,37023,218202
35814,162515,37028,218180
35824,162507,37016,218139
35850,162506,37027,218180
35853,162495,37026,218166
35863,162504,37034,218187
35873,162495,37031,218160
35882,162489,37034,218123
35892,162484,37033,218136
35903,162480,37021,218137
35913,162490,37035,218131
35923,162498,37028,218135
35933,162477,37027,218115
35943,162492,37034,218112
35953,162469,37020,218135
35963,162460,37037,218152
35972,162496,37037,218134
35983,162483,37016,218135
35993,162481,37021,218148
36002,162473,37035,218158
36013,162501,37021,218161
36023,162497,37016,218157
36033,162496,37032,218158
36042,162498,37018,218163
36052,162509,37019,218173
36063,162505,37013,218187
36073,162509,37026,218160
36090,162499,37022,218195
36092,162526,37023,218220
36102,162520,37056,218230
36113,162524,37014,218221
36123,162534,37000,218252
36132,162537,37025,218251
36171,162550,37005,218280
36174,162562,37021,218302
36183,162533,37020,218263
36193,162558,37000,218288
36209,162565,36992,218299
36212,162556,36997,218321
36222,162567,37010,218291
36233,162555,36999,218300
36243,162532,37025,218282
36252,162532,37019,218317
36263,162548,37021,218292
36272,162538,37027,218292
36283,162566,37002,218300
36292,162542,37007,218281
36302,162541,37013,218283
36313,162536,37022,218298
36351,162545,37005,218286
36354,162543,37007,218298
36363,162533,37011,218252
36373,162539,37022,218316
36382,162545,36990,218286
36392,162531,36990,218295
36402,162531,37022,218265
36413,162526,37002,218288
36429,162531,37001,218300
36494,162557,36997,218331
36511,162562,36968,218307
36531,162561,36984,218328
36533,162563,36995,218364
36541,162562,36964,218300
36552,162580,36983,218347
36562,162576,36996,218326
36573,162555,36987,218342
36583,162570,36984,218346
36592,162576,36981,218358
36602,162579,36983,218357
36630,162578,36976,218380
36633,162561,36980,218376
36642,162557,36966,218329
36652,162589,36970,218371
36663,162584,36977,218418
36672,162595,36967,218386
36682,162604,36963,218392
36693,162602,36966,218413
36703,162566,36976,218405
36712,162597,36958,218379
36722,162570,36978,218414
36733,162564,36978,218387
36793,162587,36975,218412
36834,162597,36979,218453
36842,162572,36994,218440
36852,162595,36973,218424
36870,162596,36964,218443
36891,162565,36992,218438
36894,162601,36958,218439
36903,162589,36966,218440
36912,162589,36980,218444
36922,162599,36963,218438
36932,162602,36965,218442
36942,162565,36963,218465
36952,162597,36956,218438
36962,162602,36948,218442
36972,162588,36961,218439
36982,162585,36975,218461
37010,162593,36971,218463
37013,162603,36965,218487
37022,162590,36978,218469
37032,162614,36969,218437
37041,162593,36973,218459
37094,162586,36967,218457
37101,162567,36966,218445
37112,162572,36949,218437
37123,162578,36956,218418
37131,162568,36969,218430
37142,162599,36963,218436
37152,162577,36971,218416
37162,162550,36981,218396
37171,162556,36990,218424
37189,162582,36971,218431
37210,162576,36955,218394
37213,162568,36968,218432
37222,162572,36964,218436
37232,162566,36969,218433
37250,162560,36962,218413
37252,162577,36960,218437
37270,162568,36941,218413
37273,162559,36964,218405
37282,162558,36942,218411
37291,162568,36952,218410
37301,162556,36954,218438
37374,162539,36962,218361
37376,162521,36954,218364
37381,162523,36960,218353
37392,162512,36971,218350
37402,162485,36973,218359
37412,162495,36979,218338
37421,162505,36978,218324
37431,162486,36953,218309
37441,162517,36961,218330
37452,162490,36986,218326
37461,162497,36984,218312
37471,162490,36970,218286
37481,162489,36957,218277
37491,162466,36961,218312
37509,162495,36965,218285
37512,162498,36953,218287
37521,162489,36948,218304
37595,162491,36955,218301
37597,162471,36964,218300
37601,162473,36990,218272
37612,162482,36952,218266
37622,162452,36959,218253
37631,162467,36958,218261
37641,162455,36956,218268
37652,162445,36952,218257
37662,162465,36956,218239
37671,162447,36957,218227
37681,162449,36962,218228
37692,162435,36970,218231
37702,162438,36959,218235
37711,162451,36969,218254
37721,162448,36960,218245
37731,162445,36963,218258
37741,162428,36967,218247
37750,162448,36958,218245
37761,162463,36960,218248
37791,162465,36958,218265
37793,162456,36962,218273
37801,162465,36950,218255
37811,162439,36964,218277
37822,162454,36970,218308
37832,162478,36959,218283
37841,162473,36969,218275
37851,162474,36957,218295
37862,162484,36963,218303
37872,162492,36965,218315
37881,162491,36969,218299
37891,162477,36966,218327
37901,162496,36952,218339
37911,162494,36967,218348
37920,162504,36974,218352
37931,162504,36959,218360
37949,162504,36955,218347
37952,162519,36955,218374
37961,162517,36961,218360
37971,162506,36955,218371
37990,162523,36957,218366
38011,162522,36941,218344
38013,162528,36952,218370
38021,162512,36972,218381
38031,162515,36947,218360
38041,162526,36959,218377
38050,162507,36965,218382
38061,162516,36953,218379
38071,162523,36957,218368
38081,162518,36963,218379
38090,162540,36941,218391
38131,162529,36963,218402
38134,162524,36947,218408
38141,162532,36946,218362
38151,162501,36956,218389
38161,162535,36951,218378
38170,162534,36947,218405
38181,162547,36930,218418
38192,162531,36952,218401
38202,162527,36960,218408
38211,162549,36961,218422
38221,162549,36953,218422
38231,162549,36935,218441
38241,162536,36950,218437
38250,162541,36957,218421
38270,162535,36956,218426
38272,162543,36961,218441
38281,162555,36967,218421
38291,162544,36950,218434
38301,162556,36958,218437
38311,162533,36960,218441
38321,162546,36946,218417
38331,162555,36959,218436
38340,162552,36953,218447
38350,162551,36949,218450
38361,162544,36956,218446
38390,162535,36942,218442
38393,162540,36945,218435
38401,162540,36953,218426
38411,162526,36944,218419
38421,162538,36943,218438
38431,162538,36943,218445
38441,162531,36950,218427
38451,162539,36948,218437
38460,162537,36949,218425
38471,162539,36938,218444
38481,162524,36968,218448
38491,162552,36957,218418
38500,162531,36944,218448
38510,162534,36951,218424
38521,162551,36948,218435
38531,162545,36953,218417
38541,162528,36951,218452
38551,162525,36945,218444
38561,162529,36961,218436
38571,162548,36941,218433
38581,162551,36962,218440
38634,162548,36952,218444
38640,162546,36944,218450
38651,162547,36948,218431
38661,162520,36945,218446
38691,162526,36950,218440
38693,162530,36949,218435
38700,162534,36949,218435
38710,162535,36959,218420
38720,162535,36948,218382
38730,162537,36931,218419
38741,162541,36957,218382
38750,162542,36965,218418
38760,162514,36946,218398
38771,162520,36959,218429
38781,162539,36933,218406
38791,162526,36957,218431
38800,162529,36954,218413
38811,162550,36956,218437
38821,162531,36963,218402
38831,162528,36947,218435
38840,162535,36946,218442
38850,162549,36967,218452
38860,162531,36955,218459
38870,162533,36963,218443
38880,162549,36934,218452
38934,162553,36937,218448
38950,162553,36934,218453
38953,162558,36953,218444
38960,162534,36939,218436
38970,162530,36944,218461
38980,162548,36949,218450
39077,162548,36947,218445
39081,162549,36948,218448
39111,162543,36938,218456
39113,162539,36935,218463
39120,162542,36951,218465
39130,162548,36951,218426
39140,162552,36956,218468
39150,162551,36939,218461
39160,162541,36944,218481
39192,162546,36944,218448
39201,162531,36943,218464
39209,162541,36947,218443
39220,162535,36927,218460
39230,162535,36938,218442
39240,162540,36941,218427
39250,162529,36930,218455
39259,162530,36918,218443
39270,162525,36943,218428
39281,162540,36935,218445
39291,162533,36964,218428
39309,162515,36949,218443
39311,162537,36937,218446
39321,162536,36935,218449
39331,162520,36950,218415
39340,162532,36953,218438
39350,162532,36933,218429
39360,162546,36936,218380
39370,162534,36930,218431
39420,162532,36910,218456
39430,162520,36929,218441
39440,162531,36948,218430
39451,162526,36940,218438
39460,162519,36928,218453
39470,162533,36939,218441
39480,162542,36972,218443
39490,162517,36948,218444
39500,162527,36931,218440
39532,162541,36940,218448
39594,162533,36934,218447
39600,162552,36940,218454
39610,162531,36925,218442
39620,162540,36934,218438
39629,162523,36937,218461
39640,162541,36942,218457
39650,162543,36927,218453
39660,162533,36931,218453
39669,162534,36930,218451
39679,162533,36947,218444
39733,162526,36940,218474
39740,162544,36928,218478
39750,162541,36939,218472
39760,162547,36917,218441
39769,162553,36928,218463
39780,162518,36949,218440
39790,162512,36943,218447
39799,162536,36932,218453
39810,162531,36947,218458
39820,162540,36943,218449
39830,162528,36935,218442
39839,162541,36931,218464
39849,162531,36933,218425
39859,162525,36920,218448
39870,162520,36941,218445
39889,162510,36930,218419
39892,162506,36944,218426
39900,162507,36924,218420
39910,162511,36934,218421
39930,162517,36927,218412
39940,162489,36939,218391
39950,162494,36931,218389
39959,162492,36953,218387
39969,162495,36937,218380
39979,162499,36939,218403
39989,162491,36935,218378
39999,162501,36901,218355
40010,162481,36921,218379
40020,162496,36950,218355
40030,162470,36931,218365
40040,162470,36925,218357
40049,162441,36936,218363
40059,162493,36940,218351
40070,162468,36939,218359
40080,162472,36932,218363
40089,162471,36952,218353
40099,162480,36926,218350
40109,162475,36946,218322
40120,162457,36938,218348
40130,162481,36938,218348
40140,162460,36936,218353
40150,162452,36941,218340
40160,162450,36932,218345
40169,162466,36932,218311
40179,162446,36936,218328
40190,162442,36942,218333
40199,162449,36934,218338
40209,162426,36928,218312
40219,162437,36924,218303
40251,162435,36936,218316
40271,162439,36933,218285
40280,162426,36933,218289
40290,162439,36952,218286
40299,162417,36938,218292
40309,162413,36932,218277
40319,162401,36923,218278
40330,162407,36950,218243
40339,162398,36937,218275
40349,162413,36944,218257
40360,162407,36938,218279
40370,162418,36950,218249
40379,162419,36937,218280
40389,162418,36936,218266
40399,162395,36953,218289
40409,162427,36938,218276
40418,162427,36939,218284
40429,162420,36953,218290
40439,162413,36939,218292
40449,162411,36930,218309
40458,162424,36937,218295
40468,162437,36928,218324
40479,162427,36927,218291
40490,162437,36942,218283
40500,162430,36934,218299
40509,162441,36917,218310
40519,162433,36940,218326
40529,162429,36949,218311
40540,162449,36933,218330
40549,162432,36932,218318
40559,162426,36932,218323
40569,162439,36941,218313
40579,162438,36941,218296
40589,162429,36929,218322
40599,162434,36951,218307
40609,162432,36921,218333
40619,162449,36925,218329
40628,162447,36934,218338
40638,162419,36936,218340
40648,162440,36927,218358
40659,162450,36940,218339
40670,162453,36933,218365
40678,162443,36928,218351
40688,162443,36935,218349
40699,162450,36945,218320
40709,162437,36934,218334
40774,162439,36927,218343
40779,162434,36923,218340
40790,162450,36936,218333
40799,162437,36926,218332
40832,162434,36930,218332
40838,162445,36928,218365
40848,162438,36924,218334
40858,162443,36938,218365
40869,162436,36926,218347
40878,162438,36932,218345
40889,162455,36904,218371
40899,162454,36913,218323
40909,162452,36917,218353
40918,162430,36941,218358
40928,162448,36922,218353
40938,162443,36939,218348
40951,162425,36911,218368
40958,162433,36928,218362
40968,162430,36923,218347
40978,162443,36899,218358
40989,162431,36905,218342
40999,162427,36927,218342
41009,162431,36920,218350
41019,162430,36914,218363
41029,162433,36918,218345
41050,162434,36908,218341
41058,162436,36938,218346
41069,162425,36914,218337
41079,162431,36918,218308
41088,162426,36922,218306
41098,162413,36913,218335
41109,162427,36915,218326
41119,162420,36917,218328
41128,162416,36918,218329
41138,162424,36919,218311
41148,162415,36921,218322
41158,162414,36907,218320
41168,162422,36907,218321
41178,162420,36912,218302
41188,162412,36913,218313
41198,162408,36920,218309
41209,162408,36918,218322
41218,162410,36920,218320
41230,162402,36912,218304
41239,162405,36919,218317
41249,162404,36922,218291
41258,162398,36904,218315
41268,162398,36923,218329
41291,162395,36911,218310
41298,162418,36925,218291
41308,162406,36927,218277
41318,162404,36911,218314
41328,162405,36927,218306
41338,162405,36911,218329
41348,162393,36919,218299
41359,162379,36914,218318
41369,162405,36898,218305
41378,162396,36911,218301
41388,162401,36916,218302
41398,162382,36909,218319
41410,162393,36907,218318
41417,162397,36924,218315
41430,162394,36909,218302
41438,162397,36914,218316
41449,162387,36906,218313
41458,162389,36916,218298
41468,162387,36918,218299
41478,162394,36910,218321
41488,162382,36900,218303
41498,162395,36910,218314
41508,162384,36904,218293
41518,162370,36902,218276
41528,162370,36903,218308
41538,162378,36908,218277
41549,162375,36908,218315
41558,162383,36905,218299
41568,162376,36908,218313
41579,162383,36902,218289
41588,162370,36908,218282
41598,162344,36913,218289
41608,162398,36906,218274
41618,162372,36905,218277
41627,162377,36914,218287
41637,162369,36896,218282
41648,162372,36901,218283
41659,162375,36904,218261
41668,162373,36903,218268
41678,162349,36907,218279
41688,162366,36906,218275
41698,162350,36901,218263
41708,162354,36897,218269
41717,162357,36885,218259
41728,162363,36889,218252
41738,162345,36912,218239
41750,162346,36887,218247
41758,162328,36900,218237
41768,162349,36908,218249
41778,162340,36909,218238
41788,162335,36903,218216
41797,162344,36887,218243
41807,162331,36902,218248
41818,162328,36890,218253
41830,162352,36874,218250
41837,162336,36889,218245
41847,162338,36894,218238
41858,162329,36887,218225
41869,162326,36903,218229
41878,162329,36910,218218
41888,162325,36892,218226
41898,162318,36903,218219
41908,162324,36895,218222
41917,162328,36904,218223
41927,162320,36900,218253
41938,162332,36872,218214
41948,162334,36894,218220
41958,162317,36869,218204
41968,162329,36898,218221
41978,162313,36886,218228
41988,162302,36908,218226
42010,162317,36893,218205
42018,162320,36890,218226
42051,162315,36896,218224
42058,162317,36874,218225
42070,162304,36882,218238
42078,162325,36887,218223
42089,162322,36892,218235
42097,162328,36889,218240
42107,162321,36895,218240
42118,162322,36893,218217
42127,162325,36891,218249
42138,162327,36882,218274
42148,162334,36884,218244
42158,162325,36881,218269
42167,162339,36880,218249
42177,162322,36889,218263
42187,162334,36886,218273
42210,162350,36879,218282
42218,162336,36877,218286
42228,162344,36876,218281
42250,162363,36865,218317
42257,162346,36875,218324
42268,162355,36869,218289
42278,162368,36883,218293
42288,162362,36886,218295
42297,162340,36867,218307
42307,162352,36875,218326
42318,162349,36879,218322
42328,162363,36865,218298
42337,162350,36861,218302
42350,162343,36868,218316
42371,162366,36861,218301
42377,162349,36865,218312
42387,162345,36871,218302
42398,162342,36879,218317
42408,162373,36868,218319
42417,162362,36868,218300
42430,162371,36869,218316
42437,162347,36874,218325
42448,162330,36871,218311
42471,162359,36861,218318
42477,162345,36866,218321
42487,162348,36866,218319
42497,162343,36880,218307
42507,162346,36858,218317
42517,162351,36853,218295
42527,162342,36864,218328
42537,162361,36862,218304
42547,162364,36852,218317
42570,162347,36865,218308
42617,162338,36859,218317
42652,162343,36853,218316
42657,162334,36839,218315
42666,162354,36862,218305
42676,162330,36858,218317
42690,162324,36855,218292
42697,162343,36847,218295
42708,162339,36850,218304
42716,162339,36869,218290
42727,162335,36839,218306
42738,162342,36850,218284
42748,162314,36860,218300
42757,162319,36848,218302
42770,162319,36850,218300
42777,162318,36847,218311
42787,162323,36852,218295
42797,162342,36861,218313
42807,162332,36842,218287
42817,162336,36845,218300
42827,162325,36836,218301
42836,162331,36858,218285
42846,162325,36855,218282
42871,162325,36839,218290
42876,162331,36839,218292
42886,162319,36862,218258
42897,162310,36848,218300
42908,162329,36836,218301
42917,162312,36848,218282
42930,162302,36853,218293
42937,162311,36835,218293
42947,162291,36845,218294
42957,162313,36850,218284
42967,162294,36852,218292
42977,162316,36841,218270
42987,162315,36831,218289
42998,162317,36839,218298
43007,162323,36829,218312
43017,162289,36842,218304
43051,162327,36830,218304
43056,162300,36835,218291
43067,162315,36828,218289
43077,162325,36836,218265
43089,162330,36832,218289
43097,162311,36825,218321
43107,162324,36820,218316
43117,162306,36823,218298
43126,162314,36838,218314
43136,162315,36828,218290
43146,162333,36817,218289
43157,162317,36834,218321
43166,162334,36820,218317
43177,162320,36823,218326
43187,162314,36818,218312
43197,162331,36825,218327
43207,162319,36828,218300
43216,162313,36828,218337
43227,162314,36825,218328
43250,162317,36821,218310
43257,162316,36810,218335
43270,162312,36841,218308
43276,162304,36827,218309
43287,162315,36821,218322
43296,162311,36816,218311
43306,162316,36824,218296
43317,162320,36813,218290
43327,162301,36819,218317
43336,162324,36821,218310
43346,162324,36818,218329
43356,162309,36799,218314
43366,162306,36813,218316
43376,162302,36803,218315
43386,162316,36811,218301
43397,162296,36816,218322
43407,162285,36813,218326
43416,162303,36812,218313
43426,162317,36802,218295
43436,162318,36810,218317
43446,162316,36804,218294
43457,162299,36807,218330
43466,162315,36806,218305
43477,162291,36815,218327
43487,162305,36800,218304
43511,162296,36799,218308
43516,162308,36799,218295
43527,162305,36799,218334
43537,162298,36796,218305
43546,162304,36801,218310
43557,162304,36794,218313
43567,162301,36797,218275
43577,162288,36804,218318
43586,162307,36785,218306
43596,162317,36794,218312
43606,162308,36785,218316
43617,162308,36813,218317
43626,162307,36780,218324
43636,162313,36793,218311
43650,162311,36786,218322
43656,162292,36786,218328
43713,162299,36788,218322
43716,162279,36768,218307
43726,162292,36767,218276
43737,162271,36784,218322
43747,162287,36777,218301
43756,162295,36766,218298
43766,162285,36767,218304
43776,162284,36782,218287
43790,162291,36776,218290
43796,162289,36761,218306
43806,162275,36771,218301
43831,162280,36774,218293
43836,162282,36764,218317
43846,162288,36768,218292
43856,162291,36773,218297
43871,162272,36764,218312
43875,162298,36758,218320
43886,162277,36754,218299
43896,162281,36770,218282
43906,162285,36771,218313
43916,162270,36743,218274
43926,162269,36768,218260
43951,162269,36752,218299
43956,162279,36755,218298
44013,162273,36755,218286
44031,162270,36754,218280
44036,162285,36753,218307
44045,162273,36755,218302
44056,162275,36751,218311
44066,162263,36766,218280
44076,162265,36752,218291
44086,162263,36740,218314
44095,162268,36751,218293
44106,162269,36734,218293
44116,162273,36737,218308
44126,162251,36731,218299
44136,162267,36739,218287
44146,162253,36740,218290
44156,162238,36756,218294
44213,162259,36744,218296
44215,162250,36727,218294
44225,162264,36731,218287
44236,162251,36729,218285
44250,162238,36726,218282
44255,162244,36742,218298
44266,162247,36730,218278
44276,162250,36734,218255
44286,162247,36738,218280
44295,162221,36733,218285
44305,162257,36719,218289
44316,162257,36738,218257
44326,162263,36730,218265
44335,162241,36742,218280
44345,162247,36746,218279
44355,162250,36739,218301
44365,162254,36735,218303
44376,162252,36716,218298
44386,162267,36726,218286
44396,162259,36731,218300
44406,162221,36727,218282
44416,162236,36714,218277
44426,162259,36712,218266
44436,162239,36721,218264
44446,162221,36713,218270
44456,162252,36719,218264
44469,162223,36733,218273
44491,162217,36705,218261
44496,162235,36712,218263
44505,162208,36713,218261
44515,162231,36712,218262
44526,162249,36695,218259
44536,162235,36704,218247
44549,162225,36686,218270
44614,162224,36692,218261
44617,162226,36693,218250
44625,162194,36705,218209
44635,162231,36675,218236
44646,162221,36691,218251
44656,162226,36694,218238
44666,162216,36687,218250
44675,162222,36684,218244
44685,162222,36678,218235
44696,162193,36696,218240
44706,162223,36685,218233
44715,162220,36680,218251
44725,162234,36677,218221
44735,162217,36677,218230
44745,162201,36687,218227
44755,162192,36686,218229
44766,162196,36673,218212
44776,162204,36681,218195
44790,162189,36679,218209
44811,162193,36680,218193
44816,162184,36676,218201
44826,162158,36675,218159
44851,162175,36676,218186
44872,162161,36668,218208
44890,162163,36667,218211
44911,162198,36671,218207
44915,162186,36660,218222
44924,162233,36670,218212
44935,162203,36649,218212
44946,162165,36671,218224
44956,162191,36657,218206
44965,162197,36666,218173
44975,162169,36673,218210
44985,162178,36678,218203
44996,162181,36655,218201
45005,162196,36669,218217
45015,162174,36656,218211
45025,162188,36652,218213
45036,162155,36656,218187
45050,162192,36653,218180
45071,162172,36661,218204
45091,162196,36639,218195
45095,162188,36647,218215
45105,162190,36664,218214
45115,162176,36660,218192
45125,162151,36656,218207
45135,162172,36646,218225
45145,162188,36654,218204
45155,162170,36643,218229
45165,162188,36655,218227
45174,162186,36644,218224
45184,162192,36638,218234
45195,162179,36643,218220
45206,162187,36635,218228
45214,162180,36647,218218
45225,162186,36636,218199
45235,162162,36652,218217
45245,162160,36646,218200
45255,162178,36635,218209
45265,162167,36641,218205
45275,162162,36636,218198
45291,162182,36636,218189
45311,162166,36625,218203
45315,162169,36636,218196
45325,162144,36646,218204
45334,162167,36634,218190
45344,162169,36629,218190
45355,162174,36639,218181
45365,162165,36623,218197
45375,162169,36633,218182
45385,162150,36633,218174
45395,162164,36627,218169
45454,162166,36612,218202
45456,162157,36610,218187
45464,162122,36643,218205
45475,162153,36626,218201
45490,162161,36621,218175
45495,162171,36608,218198
45510,162146,36602,218183
45515,162161,36619,218191
45530,162141,36603,218173
45535,162157,36611,218180
45544,162135,36603,218143
45555,162127,36616,218182
45571,162148,36600,218175
45575,162165,36594,218178
45590,162131,36594,218167
45594,162141,36609,218173
45605,162168,36593,218163
45656,162140,36598,218154
45665,162116,36601,218123
45674,162111,36602,218141
45685,162130,36595,218139
45695,162124,36591,218134
45705,162133,36592,218120
45714,162117,36605,218143
45724,162105,36594,218134
45735,162122,36599,218113
45745,162111,36588,218118
45794,162114,36585,218119
45804,162099,36594,218078
45814,162114,36577,218105
45830,162107,36575,218121
45834,162100,36573,218111
45844,162090,36581,218098
45872,162091,36589,218094
45874,162090,36574,218110
45884,162065,36564,218081
45894,162087,36581,218061
45905,162107,36566,218076
45915,162090,36584,218068
45924,162082,36582,218082
45934,162083,36587,218070
45944,162080,36590,218073
45955,162055,36580,218082
45964,162084,36576,218065
45974,162067,36570,218082
45985,162079,36569,218078
46011,162083,36573,218070
46014,162078,36578,218091
46025,162036,36553,218044
46035,162084,36571,218073
46044,162064,36582,218031
46054,162066,36587,218064
46065,162070,36579,218068
46074,162061,36581,218070
46084,162087,36560,218076
46094,162045,36572,218052
46105,162063,36575,218077
46115,162072,36579,218033
46130,162056,36572,218077
46134,162066,36566,218073
46144,162069,36555,218065
46154,162044,36569,218040
46164,162068,36560,218053
46174,162051,36576,218060
46184,162048,36582,218060
46194,162062,36561,218051
46205,162037,36572,218049
46213,162043,36575,218050
46224,162059,36562,218033
46234,162052,36579,218025
46245,162055,36554,218041
46254,162043,36573,218002
46264,162033,36573,218032
46274,162047,36562,218041
46285,162032,36554,218022
46293,162047,36563,218012
46304,162039,36559,218017
46314,162032,36559,218011
46324,162032,36558,218006
46333,162032,36556,217998
46344,162013,36541,217999
46354,162031,36562,217985
46364,162006,36568,217991
46374,162013,36564,218004
46384,162012,36535,217978
46394,162018,36557,217954
46404,162018,36525,217992
46415,162008,36543,217959
46424,162000,36553,217955
46451,162007,36544,217986
46455,162004,36543,218006
46464,161981,36548,218020
46474,162014,36545,217974
46484,162010,36533,217978
46494,162000,36542,217966
46504,161987,36544,217980
46513,162005,36531,217977
46524,161986,36535,217970
46534,162002,36536,217968
46544,162016,36545,217977
46554,162006,36538,217967
46564,161998,36535,217947
46574,161996,36522,217959
46583,162002,36550,217959
46594,162006,36534,217951
46604,162000,36539,217971
46614,161995,36541,217950
46624,161983,36535,217967
46694,161991,36522,217981
46710,161985,36537,217935
46714,162003,36514,217990
46724,161980,36521,217951
46734,162007,36520,217984
46744,162025,36512,217976
46753,162001,36505,218009
46764,162005,36524,218003
46774,162037,36519,217997
46784,162016,36511,218023
46793,162027,36499,218011
46803,162011,36499,218019
46814,162019,36508,218011
46824,162030,36504,218042
46833,162034,36505,218058
46843,162047,36517,218052
46853,162028,36504,218037
46864,162040,36494,218064
46874,162053,36499,218052
46890,162056,36496,218079
46894,162051,36501,218086
46904,162049,36497,218073
46914,162041,36490,218050
46930,162057,36493,218060
46933,162054,36482,218080
46943,162033,36491,218107
46954,162046,36495,218089
46963,162058,36489,218116
46973,162075,36482,218078
46983,162053,36493,218083
46994,162065,36467,218097
47003,162088,36487,218126
47013,162074,36481,218092
47024,162083,36487,218115
47034,162069,36478,218086
47050,162074,36481,218114
47053,162079,36473,218129
47070,162091,36452,218097
47073,162076,36466,218117
47090,162053,36481,218138
47093,162077,36479,218136
47104,162084,36462,218098
47114,162065,36476,218125
47124,162049,36477,218124
47133,162062,36466,218138
47143,162079,36462,218150
47153,162077,36443,218145
47169,162090,36460,218126
47192,162079,36451,218152
47194,162086,36451,218146
47232,162091,36445,218150
47235,162082,36452,218150
47244,162094,36440,218143
47253,162084,36451,218151
47263,162093,36433,218153
47273,162112,36445,218163
47283,162089,36427,218167
47293,162085,36437,218156
47303,162095,36444,218149
47314,162083,36436,218157
47324,162092,36439,218140
47333,162080,36423,218161
47350,162086,36435,218147
47353,162093,36438,218173
47363,162087,36424,218203
47415,162052,36428,218133
47452,162082,36419,218131
47471,162056,36410,218102
47473,162043,36426,218136
47483,162061,36441,218097
47493,162048,36425,218103
47510,162060,36420,218104
47513,162050,36424,218127
47523,162042,36441,218065
47534,162065,36425,218103
47543,162061,36400,218088
47553,162058,36416,218132
47563,162045,36411,218116
47574,162046,36407,218135
47612,162068,36415,218153
47614,162073,36412,218136
47624,162046,36422,218115
47633,162081,36406,218132
47643,162063,36421,218138
47695,162078,36408,218146
47703,162055,36419,218114
47713,162072,36396,218158
47729,162065,36405,218125
47750,162049,36411,218147
47753,162067,36415,218154
47763,162088,36467,218122
47773,162067,36421,218134
47783,162071,36421,218139
47792,162068,36424,218152
47802,162081,36414,218139
47813,162077,36423,218152
47823,162074,36398,218178
47833,162064,36404,218136
47842,162041,36419,218151
47852,162077,36416,218157
47893,162065,36406,218166
47912,162066,36414,218172
47915,162078,36410,218152
47930,162059,36421,218184
47933,162078,36424,218152
47943,162099,36420,218097
47953,162060,36403,218163
47963,162094,36399,218147
47972,162067,36400,218136
47983,162084,36401,218153
47993,162068,36404,218154
48003,162095,36405,218131
48013,162069,36405,218159
48023,162067,36397,218144
48033,162043,36420,218168
48042,162067,36397,218146
48052,162067,36410,218142
48062,162067,36395,218148
48073,162093,36371,218163
48090,162064,36396,218164
48111,162087,36398,218145
48114,162084,36391,218171
48123,162091,36392,218143
48132,162086,36382,218179
48143,162098,36382,218174
48153,162088,36387,218163
48163,162070,36388,218160
48172,162073,36390,218158
48183,162058,36363,218151
48193,162073,36387,218152
48203,162058,36391,218160
48212,162068,36384,218175
48222,162078,36372,218141
48233,162066,36388,218132
48243,162056,36388,218146
48252,162073,36377,218157
48262,162074,36392,218141
48273,162072,36390,218155
48290,162060,36379,218139
48292,162084,36394,218159
48302,162034,36364,218098
48312,162060,36368,218141
48322,162035,36374,218140
48333,162052,36384,218152
48342,162048,36401,218168
48352,162070,36363,218126
48363,162093,36371,218146
48372,162065,36381,218126
48382,162059,36375,218147
48393,162060,36377,218130
48403,162033,36378,218126
48413,162049,36379,218139
48422,162048,36372,218137
48451,162064,36366,218138
48454,162045,36381,218148
48462,162044,36389,218137
48472,162059,36372,218163
48482,162066,36374,218124
48492,162046,36380,218134
48502,162061,36361,218147
48512,162045,36372,218140
48523,162046,36353,218136
48532,162050,36366,218127
48542,162081,36357,218141
48552,162048,36374,218142
48562,162055,36362,218106
48573,162060,36366,218148
48583,162043,36356,218162
48592,162049,36360,218140
48611,162054,36371,218148
48614,162043,36357,218156
48623,162059,36350,218148
48632,162059,36362,218141
48642,162070,36358,218157
48652,162054,36375,218144
48663,162060,36374,218157
48672,162052,36358,218148
48711,162055,36352,218165
48713,162056,36359,218169
48730,162054,36357,218138
48732,162071,36362,218161
48742,162078,36410,218169
48752,162066,36357,218157
48762,162080,36358,218188
48772,162054,36367,218161
48782,162049,36355,218177
48791,162073,36359,218167
48810,162071,36362,218163
48813,162070,36354,218183
48823,162076,36346,218144
48832,162059,36363,218168
48851,162076,36364,218178
48853,162071,36348,218180
48892,162062,36352,218167
48894,162056,36344,218168
48902,162071,36354,218165
48912,162059,36344,218168
48922,162045,36333,218179
48932,162052,36337,218169
48942,162038,36349,218176
48952,162064,36345,218185
48961,162053,36367,218168
48971,162067,36353,218168
48982,162072,36344,218165
48993,162061,36340,218165
49002,162067,36351,218160
49012,162035,36357,218189
49022,162051,36348,218187
49032,162077,36323,218173
49041,162076,36347,218187
49052,162064,36343,218192
49062,162066,36340,218162
49072,162062,36354,218178
49082,162072,36340,218192
49092,162068,36342,218176
49102,162069,36353,218178
49112,162048,36340,218169
49122,162065,36339,218186
49131,162067,36344,218169
49142,162047,36335,218164
49152,162051,36352,218163
49162,162059,36339,218162
49171,162041,36336,218147
49182,162057,36341,218139
49192,162047,36334,218152
49202,162042,36345,218137
49211,162032,36337,218169
49221,162049,36336,218179
49232,162036,36353,218167
49242,162041,36340,218162
49251,162051,36331,218157
49262,162039,36328,218156
49271,162042,36336,218130
49282,162043,36328,218162
49291,162042,36328,218152
49301,162021,36352,218161
49312,162021,36357,218151
49322,162051,36340,218165
49332,162055,36327,218174
49341,162036,36346,218155
49352,162028,36345,218167
49362,162036,36321,218164
49372,162069,36330,218172
49381,162054,36328,218174
49391,162055,36311,218156
49402,162055,36329,218172
49412,162040,36330,218138
49452,162040,36339,218171
49455,162045,36328,218159
49470,162054,36294,218137
49472,162060,36322,218177
49481,162057,36291,218144
49492,162050,36328,218178
49501,162044,36329,218200
49511,162043,36322,218177
49521,162036,36324,218181
49532,162056,36324,218181
49541,162048,36317,218151
49551,162045,36316,218186
49561,162065,36327,218148
49571,162031,36318,218176
49612,162039,36322,218192
49631,162053,36287,218148
49651,162046,36294,218158
49654,162039,36315,218189
49662,162041,36305,218163
49671,162049,36317,218188
49681,162051,36306,218174
49691,162039,36328,218203
49702,162053,36335,218203
49711,162050,36326,218198
49721,162050,36330,218187
49731,162047,36313,218197
49742,162069,36319,218226
49751,162059,36318,218201
49761,162029,36322,218207
49771,162034,36314,218211
49781,162025,36323,218211
49791,162066,36323,218186
49800,162044,36306,218201
49811,162051,36297,218220
49821,162029,36298,218185
49832,162033,36298,218205
49841,162049,36312,218201
49851,162039,36323,218225
49861,162046,36301,218202
49872,162052,36320,218205
49881,162052,36298,218217
49891,162058,36326,218201
49901,162037,36304,218225
49911,162026,36305,218226
49920,162049,36306,218215
49931,162038,36311,218247
49941,162043,36317,218215
49970,162055,36300,218230
49973,162051,36296,218236
49981,162054,36298,218230
49991,162052,36282,218241
50001,162042,36300,218241
50011,162056,36306,218219
50021,162014,36296,218209
50031,162031,36306,218217
50041,162035,36309,218230
50051,162044,36309,218228
50070,162041,36305,218204
50073,162019,36321,218226
50081,162028,36303,218220
50091,162036,36307,218204
50101,162038,36305,218192
50111,162033,36295,218193
50121,162017,36311,218194
50131,161992,36297,218182
50141,162016,36299,218194
50151,162010,36313,218187
50170,162028,36325,218192
50172,162013,36310,218197
50180,162008,36309,218213
50191,162010,36289,218166
50210,162002,36298,218149
50212,162001,36303,218176
50230,161999,36301,218201
50233,161998,36295,218188
50241,162010,36322,218193
50250,161998,36296,218175
50270,161993,36306,218180
50273,161990,36307,218179
50281,162010,36316,218173
50291,161998,36309,218155
50301,161997,36303,218168
50311,161998,36318,218178
50321,161992,36309,218186
50332,161990,36311,218155
50341,161997,36309,218127
50351,161991,36319,218164
50361,161985,36316,218173
50371,161962,36308,218164
50389,161969,36312,218167
50392,161971,36305,218166
50401,161976,36316,218151
50411,161965,36304,218158
50420,161978,36314,218148
50430,161984,36305,218166
50440,161989,36316,218180
50451,161982,36303,218147
50460,161980,36301,218141
50470,161968,36294,218148
50481,161961,36324,218130
50490,161972,36304,218139
50500,161955,36312,218146
50511,161960,36321,218143
50521,161951,36316,218149
50530,161966,36315,218131
50541,161980,36309,218158
50551,161957,36311,218155
50561,161954,36317,218139
50571,161935,36304,218138
50581,161949,36296,218143
50590,161955,36304,218127
50611,161958,36315,218155
50631,161957,36314,218138
50641,161953,36281,218138
50651,161955,36327,218114
50661,161933,36317,218136
50670,161956,36312,218145
50680,161936,36294,218125
50691,161961,36311,218132
50709,161935,36317,218094
50711,161939,36321,218114
50760,161930,36302,218115
50770,161926,36328,218112
50780,161929,36307,218113
50790,161923,36327,218083
50800,161931,36316,218088
50811,161933,36310,218089
50821,161917,36323,218094
50831,161930,36325,218088
50840,161913,36344,218093
50850,161919,36316,218087
50860,161934,36319,218075
50871,161892,36322,218086
50880,161922,36292,218065
50890,161930,36308,218084
50911,161924,36321,218100
50960,161931,36315,218089
50970,161904,36329,218088
50980,161907,36304,218076
50990,161927,36314,218065
51000,161923,36333,218075
51009,161905,36306,218087
51020,161909,36304,218060
51030,161918,36308,218055
51049,161892,36313,218075
51052,161912,36335,218059
51060,161912,36314,218093
51071,161901,36319,218061
51081,161915,36325,218093
51090,161903,36316,218061
51111,161909,36307,218099
51120,161929,36323,218090
51129,161928,36311,218087
51139,161923,36323,218089
51151,161924,36303,218101
51160,161930,36302,218102
51170,161928,36306,218111
51189,161923,36285,218084
51192,161934,36291,218107
51200,161937,36313,218116
51210,161939,36324,218127
51220,161930,36306,218123
51231,161926,36315,218108
51251,161933,36312,218136
51299,161924,36296,218146
51310,161949,36307,218121
51320,161942,36290,218165
51330,161949,36298,218154
51339,161938,36294,218163
51349,161965,36281,218155
51360,161932,36302,218158
51370,161950,36285,218153
51380,161955,36306,218168
51391,161936,36299,218177
51400,161958,36301,218185
51410,161942,36294,218159
51419,161943,36290,218181
51429,161959,36294,218179
51439,161946,36288,218176
51450,161937,36304,218183
51459,161949,36289,218187
51469,161943,36292,218190
51480,161956,36287,218179
51491,161965,36285,218196
51500,161960,36287,218204
51510,161960,36295,218194
51560,161962,36272,218225
51570,161948,36295,218209
51580,161960,36315,218202
51589,161974,36292,218205
51599,161955,36295,218226
51610,161954,36285,218219
51620,161963,36282,218217
51629,161963,36277,218219
51639,161951,36288,218253
51649,161977,36274,218264
51659,161983,36276,218264
51669,161962,36276,218282
51680,161973,36270,218288
51690,161969,36267,218284
51700,161984,36253,218288
51710,161972,36268,218315
51719,161974,36273,218295
51730,161972,36271,218274
51740,161972,36266,218287
51750,161980,36271,218302
51759,161969,36262,218297
51769,161964,36264,218296
51779,161985,36265,218310
51790,161971,36240,218291
51799,161965,36258,218291
51809,161977,36254,218286
51819,161949,36266,218278
51829,161954,36283,218281
51839,161942,36267,218278
51849,161950,36273,218285
51860,161962,36251,218268
51871,161964,36263,218283
51879,161953,36263,218277
51889,161939,36283,218274
51899,161957,36259,218280
51910,161937,36257,218289
51919,161953,36259,218264
51929,161967,36260,218287
51939,161948,36247,218295
51993,161961,36250,218331
52012,161967,36244,218326
52031,161979,36245,218352
52040,161961,36246,218333
52049,161975,36244,218345
52059,161958,36252,218339
52069,161957,36241,218325
52080,161972,36246,218349
52089,161968,36253,218337
52099,161955,36236,218333
52109,161961,36251,218347
52119,161962,36247,218331
52129,161964,36249,218335
52138,161951,36258,218341
52150,161943,36239,218328
52160,161969,36249,218297
52169,161958,36258,218325
52179,161976,36231,218346
52190,161968,36260,218338
52254,161966,36248,218364
52259,161977,36251,218367
52269,161996,36251,218352
52279,161952,36240,218351
52290,161945,36258,218368
52299,161958,36247,218372
52309,161966,36255,218367
52319,161961,36256,218357
52329,161954,36250,218385
52338,161954,36263,218378
52348,161963,36264,218372
52371,161959,36252,218369
52379,161960,36246,218386
52389,161929,36255,218365
52399,161948,36255,218381
52410,161955,36262,218371
52418,161961,36253,218378
52429,161956,36259,218390
52439,161957,36258,218365
52516,161959,36249,218380
52519,161957,36259,218370
52529,161961,36249,218337
52551,161945,36257,218361
52558,161960,36268,218366
52570,161948,36265,218337
52579,161962,36259,218367
52589,161952,36253,218342
52611,161939,36258,218338
52631,161944,36259,218353
52638,161948,36270,218342
52649,161936,36253,218341
52659,161939,36274,218332
52668,161918,36263,218331
52678,161937,36260,218328
52688,161930,36248,218331
52698,161930,36274,218325
52709,161913,36259,218317
52719,161935,36270,218309
52731,161936,36267,218310
52739,161925,36259,218336
52749,161934,36263,218313
52758,161942,36258,218304
52768,161921,36261,218318
52778,161920,36266,218331
52791,161911,36262,218317
52798,161933,36264,218336
52833,161917,36245,218320
52838,161935,36251,218320
52848,161931,36258,218289
52859,161925,36260,218326
52869,161907,36268,218315
52878,161912,36266,218299
52888,161920,36261,218313
52898,161919,36249,218303
52908,161917,36256,218327
52918,161929,36243,218325
52928,161900,36255,218314
52939,161929,36272,218316
52949,161914,36277,218303
52958,161907,36255,218315
52968,161915,36268,218290
52978,161919,36248,218316
52989,161920,36257,218327
52999,161897,36268,218305
53008,161907,36272,218310
53031,161909,36270,218325
53039,161907,36254,218304
53050,161898,36257,218329
53098,161908,36252,218315
53176,161906,36259,218317
53178,161912,36259,218313
53188,161904,36300,218327
53198,161898,36264,218307
53208,161882,36261,218328
53218,161900,36247,218311
53228,161899,36267,218312
53238,161880,36255,218315
53248,161904,36256,218324
53258,161909,36257,218312
53270,161911,36250,218324
53278,161910,36242,218330
53291,161918,36244,218306
53311,161902,36252,218342
53318,161906,36249,218337
53328,161887,36263,218322
53338,161908,36249,218323
53348,161901,36255,218345
53358,161907,36246,218340
53370,161904,36238,218329
53377,161898,36241,218326
53388,161899,36233,218339
53398,161897,36245,218302
53408,161882,36257,218343
53417,161890,36238,218326
53427,161897,36248,218320
53438,161902,36245,218325
53448,161896,36233,218313
53458,161896,36248,218334
53467,161886,36252,218322
53477,161895,36240,218302
53488,161874,36260,218323
53498,161882,36250,218305
53507,161890,36241,218308
53518,161881,36229,218295
53528,161876,36243,218272
53578,161879,36248,218300
53587,161869,36235,218274
53597,161868,36236,218282
53608,161888,36212,218288
53618,161863,36233,218286
53627,161887,36232,218301
53638,161889,36230,218315
53648,161873,36243,218298
53658,161872,36245,218299
53667,161872,36237,218305
53677,161852,36238,218317
53691,161866,36228,218285
53698,161876,36220,218303
53708,161849,36241,218287
53717,161865,36240,218275
53730,161865,36236,218264
53751,161863,36230,218286
53757,161863,36227,218304
53768,161844,36242,218292
53778,161850,36231,218263
53788,161854,36238,218272
53797,161828,36230,218277
53807,161853,36236,218280
53818,161845,36240,218268
53831,161850,36242,218264
53851,161830,36237,218273
53857,161838,36224,218262
53868,161833,36238,218263
53877,161840,36239,218257
53887,161825,36236,218246
53898,161820,36241,218227
53908,161815,36232,218239
53958,161821,36225,218222
53967,161818,36241,218227
53977,161811,36231,218224
53988,161819,36230,218213
53998,161817,36244,218206
54007,161812,36234,218202
54018,161800,36243,218226
54028,161808,36237,218190
54038,161796,36238,218209
54047,161816,36233,218195
54058,161793,36256,218216
54068,161788,36244,218163
54078,161779,36241,218194
54087,161776,36229,218203
54111,161790,36229,218213
54118,161797,36231,218197
54127,161802,36230,218181
54137,161786,36245,218187
54147,161794,36235,218178
54171,161767,36240,218183
54177,161774,36247,218175
54187,161760,36257,218144
54197,161751,36249,218154
54207,161765,36236,218156
54217,161750,36245,218142
54227,161753,36242,218132
54237,161736,36255,218144
54250,161747,36253,218136
54257,161771,36258,218153
54267,161745,36252,218122
54277,161747,36252,218081
54288,161741,36239,218105
54297,161735,36256,218104
54307,161742,36250,218100
54317,161730,36251,218098
54327,161710,36254,218093
54337,161729,36255,218088
54347,161709,36255,218082
54357,161721,36254,218103
54370,161730,36256,218089
54392,161727,36252,218080
54397,161730,36267,218067
54407,161726,36247,218055
54417,161718,36268,218071
54427,161715,36250,218047
54437,161712,36263,218057
54447,161709,36268,218008
54457,161714,36252,218039
54466,161694,36260,218029
54477,161664,36267,218040
54487,161700,36262,218021
54498,161684,36239,218027
54509,161670,36261,218012
54517,161700,36269,218022
54527,161678,36263,218020
54538,161673,36263,217983
54547,161672,36279,217982
54597,161655,36262,217974
54607,161637,36279,217970
54617,161646,36282,217968
54626,161665,36278,217957
54636,161678,36273,217949
54647,161651,36256,217960
54657,161659,36276,217947
54666,161636,36271,217920
54676,161644,36277,217929
54690,161630,36265,217924
54697,161638,36277,217930
54708,161633,36264,217933
54717,161622,36282,217905
54730,161638,36290,217918
54751,161648,36280,217960
54772,161656,36271,217975
54791,161655,36262,218004
54811,161678,36277,218037
54816,161680,36271,218037
54827,161664,36275,218041
54836,161704,36280,218018
54847,161694,36271,218042
54857,161677,36274,218031
54871,161669,36275,218047
54891,161679,36255,218063
54896,161677,36264,218053
54906,161677,36275,218029
54916,161668,36282,218043
54926,161672,36268,218039
54936,161685,36267,218042
54947,161669,36283,218048
54957,161687,36272,218019
54966,161662,36265,218045
54976,161673,36257,218055
54990,161679,36261,218037
54997,161671,36266,218059
55032,161671,36258,218068
55077,161682,36263,218080
55086,161662,36262,218054
55096,161678,36249,218072
55106,161687,36274,218068
55117,161666,36255,218092
55126,161686,36252,218069
55136,161674,36263,218089
55146,161683,36249,218098
55157,161690,36250,218073
55192,161694,36259,218095
55196,161682,36249,218095
55206,161728,36247,218100
55216,161702,36233,218107
55226,161676,36238,218089
55237,161695,36231,218110
55247,161697,36235,218088
55256,161667,36248,218126
55266,161682,36229,218097
55277,161663,36242,218108
55287,161666,36238,218104
55295,161686,36240,218099
55306,161665,36233,218106
55332,161694,36223,218107
55336,161688,36236,218115
55372,161684,36224,218115
55376,161687,36228,218132
55386,161669,36233,218135
55396,161684,36228,218127
55432,161698,36217,218119
55436,161693,36223,218136
55446,161675,36235,218113
55457,161672,36220,218141
55466,161690,36217,218146
55476,161684,36221,218144
55486,161687,36227,218132
55496,161682,36230,218135
55506,161687,36205,218124
55516,161675,36230,218130
55526,161688,36221,218110
55537,161691,36208,218136
55593,161679,36205,218138
55596,161673,36213,218146
55610,161676,36228,218142
55616,161687,36198,218159
55626,161680,36207,218152
55651,161682,36204,218165
55671,161685,36205,218174
55675,161693,36196,218183
55685,161714,36223,218190
55696,161693,36179,218184
55710,161671,36197,218190
55716,161689,36202,218197
55726,161688,36213,218190
55736,161684,36193,218206
55747,161700,36179,218202
55756,161694,36192,218196
55766,161688,36189,218199
55776,161689,36207,218217
55790,161704,36200,218211
55795,161699,36192,218226
55805,161683,36177,218214
55816,161708,36175,218229
55826,161688,36191,218211
55836,161678,36188,218214
55846,161684,36179,218212
55856,161690,36178,218235
55866,161687,36189,218235
55892,161685,36181,218241
55912,161664,36183,218241
55916,161698,36167,218249
55926,161699,36171,218282
55935,161682,36187,218242
55946,161685,36188,218237
55956,161693,36177,218243
55965,161686,36178,218251
55992,161682,36175,218260
55996,161685,36165,218255
56010,161649,36190,218206
56015,161681,36183,218249
56025,161672,36172,218230
56036,161663,36182,218244
56045,161669,36173,218218
56055,161675,36184,218235
56066,161638,36193,218230
56076,161652,36181,218231
56085,161653,36180,218240
56095,161660,36187,218208
56106,161650,36168,218244
56116,161649,36184,218204
56125,161649,36183,218214
56136,161638,36190,218236
56146,161646,36180,218227
56156,161652,36181,218246
56166,161651,36173,218226
56175,161653,36168,218242
56190,161646,36179,218223
56196,161638,36182,218229
56206,161657,36195,218222
56215,161659,36182,218239
56226,161632,36184,218242
56236,161643,36185,218229
56246,161645,36173,218229
56255,161634,36160,218235
56265,161642,36171,218201
56275,161632,36164,218235
56312,161638,36164,218239
56332,161627,36170,218253
56335,161633,36164,218226
56345,161652,36172,218244
56355,161628,36175,218231
56365,161605,36181,218216
56375,161634,36174,218216
56385,161613,36185,218231
56395,161612,36177,218203
56405,161604,36183,218231
56416,161613,36173,218221
56473,161625,36171,218236
56476,161614,36172,218224
56491,161600,36169,218216
56496,161610,36164,218232
56505,161585,36159,218189
56515,161621,36166,218223
56525,161609,36169,218204
56550,161610,36157,218215
56595,161603,36172,218207
56605,161573,36191,218200
56615,161588,36171,218223
56625,161599,36175,218219
56635,161593,36173,218195
56645,161588,36159,218210
56655,161596,36164,218197
56666,161592,36156,218179
56675,161601,36156,218197
56685,161589,36171,218186
56695,161598,36161,218199
56705,161592,36165,218188
56715,161584,36156,218210
56725,161562,36158,218210
56735,161589,36168,218190
56745,161586,36167,218197
56771,161588,36168,218196
56791,161579,36142,218194
56795,161579,36158,218202
56810,161564,36159,218218
56815,161581,36153,218193
56825,161574,36163,218193
56834,161561,36160,218216
56873,161586,36164,218196
56875,161563,36169,218183
56884,161577,36147,218150
56895,161563,36152,218187
56911,161562,36158,218186
56916,161577,36157,218187
56925,161542,36156,218154
56952,161565,36163,218182
56956,161560,36158,218175
56965,161546,36150,218164
56975,161563,36143,218154
56985,161556,36163,218164
56996,161550,36158,218154
57009,161539,36164,218140
57032,161545,36143,218143
57051,161545,36143,218156
57054,161539,36161,218131
57071,161539,36146,218145
57116,161525,36138,218128
57125,161501,36164,218058
57134,161526,36149,218109
57144,161529,36147,218118
57155,161511,36135,218127
57166,161505,36136,218109
57175,161503,36143,218085
57185,161514,36124,218087
57211,161505,36139,218115
57214,161499,36136,218107
57224,161482,36135,218108
57235,161521,36131,218058
57245,161519,36125,218088
57254,161511,36127,218093
57264,161489,36138,218062
57275,161497,36124,218085
57333,161503,36127,218081
57336,161492,36131,218077
57344,161452,36133,218052
57354,161505,36130,218091
57371,161486,36132,218075
57375,161497,36132,218078
57384,161466,36134,218086
57395,161495,36124,218060
57405,161470,36143,218076
57415,161491,36137,218070
57424,161491,36128,218042
57434,161456,36123,218054
57445,161499,36135,218079
57454,161466,36116,218039
57464,161485,36117,218041
57475,161471,36125,218052
57485,161485,36136,218071
57494,161474,36117,218060
57504,161488,36110,218044
57575,161494,36124,218060
57577,161479,36120,218056
57583,161460,36114,218025
57594,161472,36137,218052
57604,161473,36118,218031
57614,161460,36115,218045
57624,161463,36120,218063
57634,161476,36107,218034
57645,161462,36126,218053
57655,161472,36121,218044
57665,161456,36119,218042
57674,161469,36122,218036
57684,161468,36111,218053
57694,161454,36117,218063
57732,161460,36109,218030
57735,161469,36110,218039
57745,161442,36136,218008
57754,161461,36132,218013
57764,161441,36110,218044
57774,161468,36118,218035
57784,161446,36114,218052
57794,161472,36116,218030
57804,161460,36111,218032
57814,161459,36120,218049
57824,161468,36120,218020
57833,161462,36118,218030
57843,161464,36114,218010
57854,161446,36111,218044
57892,161473,36111,218044
57912,161448,36144,217972
57914,161461,36109,218023
57924,161424,36101,218020
57934,161453,36115,218018
57945,161486,36128,218024
57955,161453,36116,217999
57964,161446,36105,218035
57974,161458,36096,218016
57991,161465,36117,218009
57994,161452,36114,218020
58003,161411,36121,218041
58013,161433,36117,217998
58024,161441,36086,218024
58034,161453,36104,218011
58043,161432,36120,218014
58072,161441,36124,218022
58074,161459,36112,218020
58083,161442,36143,217973
58094,161429,36114,217975
58104,161450,36113,217998
58114,161437,36109,218004
58130,161433,36112,217992
58175,161441,36102,217990
58184,161409,36104,217962
58194,161444,36101,217984
58204,161425,36118,217956
58214,161418,36116,217972
58224,161417,36117,217945
58234,161428,36116,217949
58244,161428,36116,217940
58253,161408,36115,217951
58264,161407,36113,217930
58274,161417,36112,217915
58284,161395,36112,217949
58293,161426,36119,217940
58375,161421,36137,217927
58416,161422,36123,217940
58424,161426,36127,217909
58434,161407,36122,217931
58450,161426,36132,217910
58472,161416,36124,217920
58474,161405,36121,217933
58483,161397,36109,217875
58494,161409,36128,217923
58503,161409,36125,217925
58513,161416,36135,217933
58530,161419,36141,217925
58534,161432,36146,217931
58550,161425,36137,217897
58553,161430,36130,217931
58570,161422,36128,217950
58574,161430,36127,217941
58583,161435,36137,217946
58593,161414,36142,217902
58603,161437,36131,217924
58614,161439,36122,217919
58624,161420,36136,217927
58633,161430,36129,217910
58650,161419,36135,217927
58654,161441,36114,217944
58670,161423,36135,217929
58673,161432,36132,217927
58690,161396,36128,217897
58711,161406,36124,217935
58714,161429,36133,217943
58723,161401,36132,217884
58734,161421,36141,217932
58744,161420,36126,217916
58753,161399,36125,217939
58763,161425,36142,217927
58774,161426,36129,217921
58784,161418,36118,217928
58793,161434,36125,217908
58803,161426,36117,217920
58813,161420,36124,217933
58823,161436,36126,217933
58833,161423,36120,217915
58851,161426,36130,217916
58854,161430,36109,217929
58863,161410,36100,217935
58874,161435,36097,217901
58890,161420,36121,217920
58934,161453,36102,217933
58951,161418,36105,217911
58953,161450,36107,217933
58993,161443,36107,217940
58995,161453,36092,217949
59003,161418,36099,217919
59013,161438,36106,217931
59031,161458,36112,217927
59033,161445,36094,217939
59050,161447,36083,217896
59095,161446,36101,217968
59103,161461,36088,217930
59113,161454,36105,217926
59123,161465,36090,217953
59133,161471,36077,217946
59143,161463,36091,217949
59154,161450,36094,217957
59164,161465,36097,217937
59173,161456,36084,217977
59183,161468,36098,217955
59193,161468,36075,217958
59203,161475,36090,217946
59213,161462,36093,217969
59223,161480,36094,217984
59233,161474,36092,217969
59243,161486,36102,217969
59253,161476,36097,217973
59263,161460,36106,217994
59273,161472,36094,217997
59283,161486,36083,217991
59312,161490,36076,218004
59314,161492,36085,217998
59323,161497,36082,218018
59333,161499,36080,217993
59350,161477,36074,218023
59353,161493,36078,218022
59363,161472,36093,217999
59391,161495,36091,218038
59394,161499,36079,218023
59403,161473,36080,217989
59413,161490,36089,218039
59453,161501,36076,218040
59455,161502,36082,218047
59493,161503,36080,218051
59495,161512,36079,218056
59502,161499,36095,218055
59512,161514,36089,218037
59531,161509,36077,218061
59576,161517,36085,218076
59583,161513,36076,218064
59593,161513,36074,218066
59603,161512,36086,218050
59613,161508,36075,218049
59623,161528,36097,218074
59632,161510,36084,218058
59642,161499,36088,218054
59653,161519,36074,218056
59669,161523,36075,218051
59691,161517,36068,218040
59694,161517,36085,218062
59703,161511,36110,218059
59731,161521,36067,218052
59734,161523,36086,218057
59743,161517,36096,218062
59772,161523,36081,218085
59774,161522,36080,218079
59783,161525,36049,218063
59812,161533,36075,218060
59875,161509,36070,218075
59877,161532,36071,218066
59882,161533,36074,218069
59892,161534,36075,218063
59902,161529,36082,218059
59975,161527,36086,218056
59977,161522,36073,218055
59982,161513,36072,218019
60011,161511,36082,218046
60014,161520,36087,218065
60023,161517,36053,218064
60033,161523,36082,218031
60042,161494,36076,218022
60052,161515,36080,218031
60062,161505,36075,218023
60072,161493,36075,218032
60134,161520,36067,218055
60151,161513,36074,218036
60195,161534,36077,218052
60210,161527,36064,218038
60232,161542,36059,218050
60276,161521,36068,218069
60282,161517,36054,218070
60291,161513,36073,218054
60302,161528,36068,218069
60312,161510,36073,218043
60330,161532,36058,218040
60351,161519,36121,218033
60354,161523,36075,218039
60362,161516,36079,218060
60372,161530,36070,218044
60381,161521,36066,218051
60392,161513,36073,218062
60402,161520,36056,218041
60412,161544,36054,218071
60422,161533,36060,218046
60432,161541,36072,218063
60442,161500,36073,218040
60452,161528,36075,218045
60572,161525,36070,218042
60574,161528,36065,218066
60590,161517,36072,218032
60593,161514,36067,218033
60611,161519,36045,218034
60613,161517,36062,218041
60622,161528,36029,218028
60631,161536,36061,218033
60641,161526,36058,218032
60652,161517,36066,218050
60662,161524,36037,218014
60672,161516,36061,218020
60690,161516,36071,218038
60693,161515,36065,218022
60702,161518,36027,218025
60711,161506,36057,218016
60721,161515,36051,218024
60731,161500,36048,218040
60750,161517,36048,218022
60771,161513,36030,218028
60774,161522,36056,218036
60813,161500,36041,218033
60815,161506,36033,218032
60822,161508,36047,218027
60832,161522,36046,218017
60850,161507,36033,218038
60853,161512,36034,218045
60871,161508,36044,218017
60892,161515,36041,218033
60894,161507,36042,218033
60901,161509,36036,218039
60975,161510,36026,218038
60977,161494,36037,218040
60981,161500,36038,218008
60992,161540,36055,218019
61001,161497,36024,218019
61011,161514,36039,218011
61021,161498,36044,217972
61031,161476,36045,218013
61041,161489,36036,218012
61051,161471,36049,217987
61061,161474,36039,218016
61071,161495,36047,218002
61082,161488,36030,218009
61091,161480,36037,217990
61102,161466,36025,218020
61112,161479,36058,217969
61122,161453,36049,218007
61131,161484,36037,217998
61141,161471,36036,217927
61151,161465,36056,217977
61161,161476,36045,217993
61171,161455,36037,217978
61255,161464,36055,217976
61258,161447,36045,217960
61261,161457,36048,217972
61272,161450,36057,217922
61282,161458,36056,217960
61291,161450,36051,217933
61310,161442,36033,217919
61313,161428,36065,217949
61321,161446,36067,217934
61332,161437,36057,217938
61341,161436,36064,217912
61351,161415,36064,217900
61361,161419,36057,217914
61371,161431,36073,217907
61390,161437,36052,217888
61393,161430,36060,217885
61401,161426,36062,217897
61411,161414,36067,217888
61421,161419,36037,217860
61431,161408,36072,217868
61441,161382,36080,217874
61452,161421,36072,217873
61461,161401,36057,217858
61471,161408,36060,217848
61481,161405,36079,217845
61491,161405,36064,217834
61500,161406,36074,217846
61511,161379,36061,217865
61521,161397,36091,217849
61531,161398,36067,217837
61541,161395,36047,217825
61550,161409,36064,217838
61561,161395,36054,217822
61571,161389,36062,217837
61582,161382,36044,217821
61591,161408,36071,217842
61601,161401,36051,217843
61611,161396,36073,217841
61621,161392,36056,217828
61630,161389,36065,217813
61640,161372,36076,217831
61651,161373,36061,217822
61662,161377,36061,217815
61671,161374,36080,217794
61691,161386,36073,217803
61781,161358,36088,217750
61791,161359,36088,217734
61801,161343,36092,217758
61811,161369,36091,217757
61821,161352,36082,217752
61831,161357,36084,217756
61840,161342,36093,217722
61916,161362,36077,217756
61921,161360,36084,217773
61931,161341,36101,217759
61941,161354,36100,217769
61951,161353,36102,217757
61960,161359,36118,217740
61970,161370,36088,217753
61980,161361,36101,217732
61991,161358,36105,217766
62000,161361,36079,217755
62010,161351,36107,217773
62020,161348,36112,217774
62030,161346,36107,217752
62041,161342,36113,217741
62050,161350,36119,217733
62060,161350,36104,217778
62071,161329,36112,217747
62081,161338,36121,217766
62090,161337,36115,217783
62100,161342,36091,217784
62110,161345,36109,217782
62121,161352,36097,217774
62130,161350,36103,217752
62141,161316,36117,217802
62151,161355,36103,217772
62171,161357,36116,217792
62191,161336,36111,217798
62200,161344,36090,217790
62209,161350,36099,217789
62230,161357,36085,217785
62233,161343,36101,217798
62241,161354,36090,217813
62250,161358,36101,217781
62260,161357,36104,217806
62271,161346,36091,217795
62280,161358,36104,217820
62291,161354,36097,217790
62300,161341,36087,217792
62310,161338,36093,217803
62320,161354,36077,217794
62331,161357,36089,217822
62340,161376,36083,217795
62350,161365,36089,217829
62360,161375,36091,217835
62370,161370,36074,217795
62380,161372,36091,217821
62390,161377,36095,217795
62400,161348,36083,217826
62410,161388,36091,217822
62419,161372,36091,217858
62430,161364,36093,217832
62440,161377,36094,217850
62451,161383,36082,217851
62460,161380,36079,217838
62470,161383,36075,217847
62480,161381,36080,217835
62490,161375,36083,217826
62511,161371,36080,217863
62520,161366,36083,217872
62531,161357,36077,217860
62541,161377,36069,217841
62550,161351,36076,217850
62560,161377,36084,217846
62570,161391,36073,217842
62580,161361,36096,217871
62589,161384,36065,217863
62600,161391,36067,217852
62633,161383,36069,217883
62652,161384,36071,217880
62661,161389,36073,217894
62670,161371,36070,217876
62680,161392,36080,217882
62690,161396,36068,217897
62700,161399,36050,217898
62709,161390,36083,217889
62732,161396,36065,217933
62751,161409,36068,217932
62771,161403,36062,217943
62780,161416,36068,217945
62791,161409,36065,217921
62800,161415,36073,217941
62810,161424,36072,217951
62860,161441,36050,217985
62870,161438,36060,217979
62879,161426,36067,218014
62889,161451,36079,218012
62900,161445,36051,217992
62910,161439,36066,218004
62919,161449,36033,218004
62930,161451,36033,218014
62939,161432,36055,217990
62951,161451,36057,218014
62960,161446,36075,218025
62993,161437,36061,218039
63000,161446,36047,218031
63010,161439,36056,218029
63020,161445,36055,218024
63031,161437,36053,218023
63041,161451,36058,218040
63050,161458,36056,218035
63060,161455,36059,218043
63092,161449,36042,218045
63099,161441,36056,218039
63110,161451,36050,218033
63131,161433,36060,218041
63139,161460,36047,218033
63172,161457,36052,218065
63179,161445,36040,218040
63189,161456,36052,218049
63199,161451,36042,218057
63233,161474,36032,218047
63239,161447,36057,218043
63250,161462,36031,218068
63271,161451,36055,218055
63279,161461,36049,218056
63290,161458,36056,218037
63299,161433,36047,218024
63310,161443,36032,218057
63332,161450,36048,218023
63351,161459,36040,218033
63359,161464,36053,218048
63371,161455,36056,218030
63379,161436,36054,218031
63389,161430,36057,218034
63399,161441,36054,218026
63410,161453,36038,218039
63419,161433,36060,218024
63453,161457,36061,218038
63459,161458,36034,218045
63470,161448,36059,218032
63480,161462,36052,218030
63491,161439,36035,218025
63500,161443,36058,218043
63509,161436,36061,218047
63519,161451,36056,218037
63529,161439,36046,218039
63540,161460,36047,218046
63549,161440,36053,218019
63559,161424,36061,218037
63614,161453,36062,218044
63619,161445,36052,218048
63631,161440,36050,218023
63652,161453,36052,218041