timestamp,ecg
653068363625511415,16756
653068363633185855,16659
653068363640860295,16584
653068363648534735,16528
653068363656209175,16441
653068363663883615,16334
653068363671558055,16233
653068363679232495,16138
653068363686906935,16085
653068363694581375,16196
653068363702255815,16448
653068363709930255,16547
653068363717604695,16104
653068363725279135,15412
653068363732953575,15257
653068363740628015,15419
653068363748302455,15296
653068363755976895,15078
653068363763651335,14998
653068363771325775,14933
653068363779000215,14841
653068363786674655,14749
653068363794349095,14628
653068363802023535,14519
653068363809697975,14422
653068363817372415,14313
653068363825046855,14221
653068363832721295,14124
653068363840395735,14022
653068363848070175,13928
653068363855744615,13819
653068363863419055,13729
653068363871093495,13647
653068363878767935,13538
653068363886442375,13448
653068363894116815,13371
653068363901791255,13245
653068363909465695,13146
653068363917140135,13095
653068363924814575,12964
653068363932489015,12797
653068363940163455,12703
653068363947837895,12587
653068363955512335,12422
653068363963186775,12267
653068363970861215,12127
653068363978535655,11989
653068363986210095,11851
653068363993884535,11742
653068364001558975,11652
653068364009233415,11543
653068364016907855,11424
653068364024582295,11323
653068364032256735,11219
653068364039931175,11110
653068364047605615,11010
653068364055280055,10914
653068364062954495,10822
653068364070628935,10727
653068364078303375,10638
653068364085977815,10534
653068364093652255,10410
653068364101326695,10308
653068364109001135,10221
653068364116675575,10124
653068364124350015,10023
653068364132024455,9906
653068364139698895,9798
653068364147373335,9737
653068364155047775,9650
653068364162722215,9529
653068364170396655,9446
653068364178071095,9359
653068364185745600,9248
653068364193420040,9149
653068364201094480,9066
653068364208768920,8999
653068364216443360,8911
653068364224117800,8807
653068364231792240,8727
653068364239466680,8640
653068364247141120,8543
653068364254815560,8473
6.53068E+17,8386
653068364270164440,8263
653068364277838880,8156
653068364285513320,8062
653068364293187760,7967
653068364300862200,7885
653068364308536640,7803
653068364316211080,7720
653068364323885520,7638
653068364331559960,7551
653068364339234400,7471
653068364346908840,7536
653068364354583280,7832
653068364362257720,8045
653068364369932160,7682
653068364377606600,6962
653068364385281040,6725
653068364392955480,6926
653068364400629920,6868
653068364408304360,6648
653068364415978800,6636
653068364423653240,6655
653068364431327680,6536
653068364439002120,6420
653068364446676560,6381
6.53068E+17,6340
653068364462025440,6270
653068364469699880,6202
653068364477374320,6147
653068364485048760,6084
653068364492723200,6023
653068364500397640,5970
653068364508072080,5904
653068364515746520,5851
653068364523420960,5827
653068364531095400,5781
653068364538769840,5730
653068364546444280,5706
653068364554118720,5653
653068364561793160,5570
653068364569467600,5510
653068364577142040,5466
653068364584816480,5425
653068364592490920,5355
653068364600165360,5231
653068364607839800,5106
653068364615514240,5011
653068364623188680,4919
653068364630863120,4851
653068364638537560,4815
6.53068E+17,4735
653068364653886440,4633
653068364661560880,4604
653068364669235320,4580
653068364676909760,4491
653068364684584200,4442
653068364692258640,4432
653068364699933080,4377
653068364707607520,4328
653068364715281960,4299
653068364722956400,4239
653068364730630840,4166
653068364738305280,4140
653068364745979785,4125
653068364753654225,4064
653068364761328665,4002
653068364769003105,3968
653068364776677545,3926
653068364784351985,3871
653068364792026425,3830
653068364799700865,3796
653068364807375305,3738
653068364815049745,3687
653068364822724185,3636
653068364830398625,3583
653068364838073065,3566
653068364845747505,3527
653068364853421945,3452
653068364861096385,3396
653068364868770825,3367
653068364876445265,3324
653068364884119705,3292
653068364891794145,3282
653068364899468585,3246
653068364907143025,3193
653068364914817465,3152
653068364922491905,3103
653068364930166345,3048
653068364937840785,3006
653068364945515225,3002
653068364953189665,2985
653068364960864105,2922
653068364968538545,2878
653068364976212985,2866
653068364983887425,2931
653068364991561865,3215
653068364999236305,3568
653068365006910745,3401
653068365014585185,2663
653068365022259625,2312
653068365029934065,2563
653068365037608505,2614
653068365045282945,2442
653068365052957385,2452
653068365060631825,2476
653068365068306265,2394
653068365075980705,2370
653068365083655145,2392
653068365091329585,2362
653068365099004025,2307
653068365106678465,2287
653068365114352905,2280
653068365122027345,2251
653068365129701785,2237
653068365137376225,2227
653068365145050665,2195
653068365152725105,2174
653068365160399545,2166
653068365168073985,2174
653068365175748425,2181
653068365183422865,2166
653068365191097305,2149
653068365198771745,2149
653068365206446185,2140
653068365214120625,2094
653068365221795065,2055
653068365229469505,2036
653068365237143945,1973
653068365244818385,1873
653068365252492825,1820
653068365260167265,1808
653068365267841705,1745
653068365275516145,1685
653068365283190585,1677
653068365290865025,1648
653068365298539465,1610
653068365306213970,1629
653068365313888410,1629
653068365321562850,1573
653068365329237290,1539
653068365336911730,1551
653068365344586170,1568
653068365352260610,1547
653068365359935050,1520
653068365367609490,1510
653068365375283930,1484
653068365382958370,1459
653068365390632810,1457
653068365398307250,1457
653068365405981690,1428
653068365413656130,1382
653068365421330570,1370
653068365429005010,1370
653068365436679450,1358
653068365444353890,1329
653068365452028330,1292
653068365459702770,1292
653068365467377210,1302
653068365475051650,1258
653068365482726090,1220
653068365490400530,1225
653068365498074970,1193
653068365505749410,1169
653068365513423850,1196
653068365521098290,1179
653068365528772730,1140
653068365536447170,1169
653068365544121610,1174
653068365551796050,1111
653068365559470490,1091
653068365567144930,1096
653068365574819370,1048
653068365582493810,1036
653068365590168250,1074
653068365597842690,1026
653068365605517130,949
653068365613191570,1028
653068365620866010,1321
653068365628540450,1699
653068365636214890,1750
653068365643889330,1191
653068365651563770,646
653068365659238210,762
653068365666912650,956
653068365674587090,823
653068365682261530,803
653068365689935970,883
653068365697610410,825
653068365705284850,782
653068365712959290,825
653068365720633730,828
653068365728308170,789
653068365735982610,777
653068365743657050,779
653068365751331490,762
653068365759005930,772
653068365766680370,786
653068365774354810,767
653068365782029250,784
653068365789703690,811
653068365797378130,796
653068365805052570,808
653068365812727010,837
653068365820401450,849
653068365828075890,852
653068365835750330,830
653068365843424770,820
653068365851099210,832
653068365858773650,808
653068365866448155,765
653068365874122595,745
653068365881797035,704
653068365889471475,624
653068365897145915,576
653068365904820355,576
653068365912494795,564
653068365920169235,520
653068365927843675,508
653068365935518115,530
653068365943192555,532
653068365950866995,513
653068365958541435,503
653068365966215875,515
653068365973890315,532
653068365981564755,513
653068365989239195,496
653068365996913635,513
653068366004588075,508
653068366012262515,484
653068366019936955,489
653068366027611395,491
653068366035285835,479
653068366042960275,484
653068366050634715,476
653068366058309155,469
653068366065983595,493
653068366073658035,493
653068366081332475,472
653068366089006915,491
653068366096681355,508
653068366104355795,474
653068366112030235,440
653068366119704675,460
653068366127379115,469
653068366135053555,430
653068366142727995,414
653068366150402435,411
653068366158076875,399
653068366165751315,406
653068366173425755,416
653068366181100195,399
653068366188774635,363
653068366196449075,331
653068366204123515,329
653068366211797955,348
653068366219472395,360
653068366227146835,360
653068366234821275,348
653068366242495715,326
653068366250170155,353
653068366257844595,559
653068366265519035,951
653068366273193475,1188
653068366280867915,786
653068366288542355,121
653068366296216795,84
653068366303891235,365
653068366311565675,297
653068366319240115,230
653068366326914555,317
653068366334588995,278
653068366342263435,232
653068366349937875,283
653068366357612315,288
653068366365286755,266
653068366372961195,288
653068366380635635,307
653068366388310075,290
653068366395984515,273
653068366403658955,290
653068366411333395,314
653068366419007835,322
653068366426682340,322
653068366434356780,336
653068366442031220,360
653068366449705660,368
653068366457380100,358
653068366465054540,368
653068366472728980,380
653068366480403420,365
653068366488077860,355
653068366495752300,351
653068366503426740,322
653068366511101180,302
653068366518775620,283
653068366526450060,227
653068366534124500,181
653068366541798940,157
653068366549473380,142
653068366557147820,135
653068366564822260,145
653068366572496700,157
653068366580171140,150
653068366587845580,145
653068366595520020,152
653068366603194460,150
653068366610868900,145
653068366618543340,142
653068366626217780,145
653068366633892220,191
653068366641566660,213
653068366649241100,164
653068366656915540,145
653068366664589980,169
653068366672264420,169
653068366679938860,167
653068366687613300,171
653068366695287740,147
653068366702962180,123
653068366710636620,130
653068366718311060,130
653068366725985500,133
653068366733659940,150
653068366741334380,133
653068366749008820,104
653068366756683260,113
653068366764357700,135
653068366772032140,135
653068366779706580,118
653068366787381020,108
653068366795055460,128
653068366802729900,157
653068366810404340,150
653068366818078780,138
653068366825753220,159
653068366833427660,159
653068366841102100,123
653068366848776540,104
653068366856450980,106
653068366864125420,106
653068366871799860,116
653068366879474300,125
653068366887148740,94
653068366894823180,79
653068366902497620,234
653068366910172060,600
653068366917846500,917
653068366925520940,719
653068366933195380,75
653068366940869820,-196
653068366948544260,60
653068366956218700,142
653068366963893140,12
653068366971567580,33
653068366979242020,87
653068366986916525,65
653068366994590965,67
653068367002265405,89
653068367009939845,75
653068367017614285,58
653068367025288725,79
653068367032963165,96
653068367040637605,96
653068367048312045,101
653068367055986485,104
653068367063660925,104
653068367071335365,116
653068367079009805,138
653068367086684245,171
653068367094358685,169
653068367102033125,147
653068367109707565,181
653068367117382005,198
653068367125056445,169
653068367132730885,196
653068367140405325,222
653068367148079765,184
653068367155754205,152
653068367163428645,118
653068367171103085,77
653068367178777525,65
653068367186451965,58
653068367194126405,26
653068367201800845,-4
653068367209475285,-31
653068367217149725,-19
653068367224824165,26
653068367232498605,36
653068367240173045,9
653068367247847485,4
653068367255521925,43
653068367263196365,50
653068367270870805,16
653068367278545245,24
653068367286219685,55
653068367293894125,41
653068367301568565,14
653068367309243005,26
653068367316917445,41
653068367324591885,29
653068367332266325,-4
653068367339940765,-19
653068367347615205,7
653068367355289645,19
653068367362964085,2
653068367370638525,12
653068367378312965,33
653068367385987405,31
653068367393661845,19
653068367401336285,21
653068367409010725,36
653068367416685165,31
653068367424359605,19
653068367432034045,21
653068367439708485,29
653068367447382925,31
653068367455057365,24
653068367462731805,26
653068367470406245,41
653068367478080685,38
653068367485755125,46
653068367493429565,53
653068367501104005,26
653068367508778445,4
653068367516452885,9
653068367524127325,26
653068367531801765,26
653068367539476205,19
653068367547165758,21
653068367554839989,38
653068367562514220,213
653068367570188451,595
653068367577862682,842
653068367585536913,493
653068367593211144,-147
653068367600885375,-232
653068367608559606,31
653068367616233837,-12
653068367623908068,-99
653068367631582299,-16
653068367639256530,-7
653068367646930761,-60
653068367654604992,-53
653068367662279223,-29
653068367669953454,-19
653068367677627685,-7
653068367685301916,14
653068367692976147,14
653068367700650378,-9
653068367708324609,-7
653068367715998840,19
653068367723673071,31
653068367731347302,55
653068367739021533,70
653068367746695764,75
653068367754369995,108
653068367762044226,140
653068367769718457,121
653068367777392688,106
653068367785066919,145
653068367792741150,154
653068367800415381,118
653068367808089612,104
653068367815763843,101
653068367823438074,60
653068367831112305,2
653068367838786536,-24
653068367846460767,-24
653068367854134998,-46
653068367861809229,-89
653068367869483460,-99
653068367877157691,-72
653068367884831922,-53
653068367892506153,-62
653068367900180384,-77
653068367907854615,-70
653068367915528846,-55
653068367923203077,-53
653068367930877308,-41
653068367938551539,-43
653068367946225770,-55
653068367953900001,-48
653068367961574232,-33
653068367969248463,-24
653068367976922694,-36
653068367984596925,-50
653068367992271156,-33
653068367999945387,-31
653068368007619618,-48
653068368015293849,-26
653068368022968080,-19
653068368030642311,-65
653068368038316542,-84
653068368045990773,-62
653068368053665004,-48
653068368061339235,-50
653068368069013466,-43
653068368076687697,-46
653068368084361928,-70
653068368092036159,-60
653068368099710390,-26
653068368107384682,-41
653068368115058913,-75
653068368122733144,-50
653068368130407375,-24
653068368138081606,-31
653068368145755837,-26
653068368153430068,-24
653068368161104299,-38
653068368168778530,-50
653068368176452761,-53
653068368184126992,-50
653068368191801223,-50
653068368199475454,-48
653068368207149685,-58
653068368214823916,-38
653068368222498147,159
653068368230172378,544
653068368237846609,765
653068368245520840,377
653068368253195071,-266
653068368260869302,-305
653068368268543533,-4
653068368276217764,-41
653068368283891995,-140
653068368291566226,-43
653068368299240457,-21
653068368306914688,-82
653068368314588919,-43
653068368322263150,4
653068368329937381,-9
653068368337611612,-24
653068368345285843,-21
653068368352960074,0
653068368360634305,36
653068368368308536,38
653068368375982767,33
653068368383656998,38
653068368391331229,29
653068368399005460,46
653068368406679691,79
653068368414353922,84
653068368422028153,96
653068368429702384,106
653068368437376615,82
653068368445050846,77
653068368452725077,92
653068368460399308,89
653068368468073539,67
653068368475747770,21
653068368483422001,-21
653068368491096232,-33
653068368498770463,-55
653068368506444694,-89
653068368514118925,-96
653068368521793156,-99
653068368529467387,-92
653068368537141618,-65
653068368544815849,-70
653068368552490080,-92
653068368560164311,-70
653068368567838542,-43
653068368575512773,-62
653068368583187004,-77
653068368590861235,-48
653068368598535466,-31
653068368606209697,-50
653068368613883928,-53
653068368621558159,-33
653068368629232390,-46
653068368636906621,-72
653068368644580852,-62
653068368652255083,-41
653068368659929314,-53
653068368667588562,-65
653068368675263002,-60
653068368682937442,-50
653068368690611882,-43
653068368698286322,-43
653068368705960762,-43
653068368713635202,-46
653068368721309642,-46
653068368728984082,-48
653068368736658522,-55
653068368744332962,-53
653068368752007402,-60
653068368759681842,-82
653068368767356282,-62
653068368775030722,-26
653068368782705162,-31
653068368790379602,-31
653068368798054042,-16
653068368805728482,-36
653068368813402922,-36
653068368821077362,-14
653068368828751802,-60
653068368836426242,-79
653068368844100682,-4
653068368851775122,9
653068368859449562,-46
653068368867124002,-43
653068368874798442,-7
653068368882472882,116
653068368890147322,476
653068368897821762,828
653068368905496202,605
653068368913170642,-75
653068368920845082,-312
653068368928519522,-21
653068368936193962,29
653068368943868402,-116
653068368951542842,-60
653068368959217282,-19
653068368966891722,-111
653068368974566162,-125
653068368982240602,-50
653068368989915042,-24
653068368997589482,-62
653068369005263922,-87
653068369012938362,-53
653068369020612802,-29
653068369028287242,-43
653068369035961682,-38
653068369043636122,-16
653068369051310562,-29
653068369058985002,-24
653068369066659442,41
653068369074333882,104
653068369082008322,92
653068369089682762,77
653068369097357202,113
653068369105031642,121
653068369112706082,84
653068369120380522,82
653068369128054962,87
653068369135729402,46
653068369143403842,-4
653068369151078282,-24
653068369158752722,-58
653068369166427162,-123
653068369174101602,-140
653068369181776042,-101
653068369189450482,-101
653068369197124922,-145
653068369204799362,-138
653068369212473802,-92
653068369220148242,-94
653068369227822747,-118
653068369235497187,-101
653068369243171627,-84
653068369250846067,-87
653068369258520507,-89
653068369266194947,-108
653068369273869387,-108
653068369281543827,-72
653068369289218267,-55
653068369296892707,-75
653068369304567147,-89
653068369312241587,-87
653068369319916027,-84
653068369327590467,-77
653068369335264907,-67
653068369342939347,-55
653068369350613787,-62
653068369358288227,-89
653068369365962667,-75
653068369373637107,-36
653068369381311547,-53
653068369388985987,-72
653068369396660427,-38
653068369404334867,-33
653068369412009307,-55
653068369419683747,-38
653068369427358187,-31
653068369435032627,-43
653068369442707067,-19
653068369450381507,2
653068369458055947,-21
653068369465730387,-26
653068369473404827,-12
653068369481079267,-41
653068369488753707,-72
653068369496428147,-62
653068369504102587,-75
653068369511777027,-106
653068369519451467,-77
653068369527125907,-38
653068369534800347,-65
653068369542474787,50
653068369550149227,445
653068369557823667,777
653068369565498107,549
653068369573172547,-96
653068369580846987,-314
653068369588521427,-41
653068369596195867,-14
653068369603870307,-164
653068369611544747,-99
653068369619219187,-16
653068369626893627,-62
653068369634568067,-96
653068369642242507,-77
653068369649916947,-53
653068369657591387,-31
653068369665265827,-41
653068369672940267,-60
653068369680614707,-55
653068369688289147,-48
653068369695963587,-41
653068369703638027,-24
653068369711312467,-12
653068369718986907,2
653068369726661347,31
653068369734335787,60
653068369742010227,82
653068369749684667,89
653068369757359107,87
653068369765033547,92
653068369772707987,89
653068369780382427,77
653068369788087028,77
653068369795761050,62
653068369803435072,0
653068369811109094,-31
653068369818783116,-36
653068369826457138,-96
653068369834131160,-138
653068369841805182,-104
653068369849479204,-99
653068369857153226,-130
653068369864827248,-104
653068369872501270,-77
653068369880175292,-96
653068369887849314,-96
653068369895523336,-72
653068369903197358,-58
653068369910871380,-62
653068369918545402,-79
653068369926219424,-79
653068369933893446,-58
653068369941567468,-50
653068369949241490,-77
653068369956915512,-92
653068369964589534,-77
653068369972263556,-53
653068369979937578,-60
653068369987611600,-75
653068369995285622,-50
653068370002959644,-46
653068370010633666,-62
653068370018307688,-53
653068370025981710,-41
653068370033655732,-60
653068370041329754,-58
653068370049003776,-24
653068370056677798,-43
653068370064351820,-108
653068370072025842,-87
653068370079699864,-14
653068370087373886,-29
653068370095047908,-62
653068370102721930,-31
653068370110395952,-26
653068370118069974,-33
653068370125743996,4
653068370133418018,-2
653068370141092040,-48
653068370148766062,-65
653068370156440084,-79
653068370164114106,-75
653068370171788128,-29
653068370179462150,-16
653068370187136172,-53
653068370194810194,-2
653068370202484216,254
653068370210158238,634
653068370217832260,740
653068370225506282,217
653068370233180304,-346
653068370240854326,-222
653068370248528348,21
653068370256202370,-118
653068370263876392,-169
653068370271550414,-53
653068370279224436,-79
653068370286898458,-135
653068370294572480,-87
653068370302246502,-50
653068370309920524,-67
653068370317594546,-82
653068370325268568,-65
653068370332942590,-33
653068370340616612,-26
653068370348270607,-38
653068370355944908,-21
653068370363619209,4
653068370371293510,7
653068370378967811,9
653068370386642112,33
653068370394316413,70
653068370401990714,77
653068370409665015,75
653068370417339316,92
653068370425013617,104
653068370432687918,94
653068370440362219,72
653068370448036520,53
653068370455710821,43
653068370463385122,16
653068370471059423,-46
653068370478733724,-94
653068370486408025,-89
653068370494082326,-79
653068370501756627,-79
653068370509430928,-84
653068370517105229,-106
653068370524779530,-106
653068370532453831,-92
653068370540128132,-82
653068370547802433,-65
653068370555476734,-65
653068370563151035,-77
653068370570825336,-79
653068370578499637,-72
653068370586173938,-33
653068370593848239,-29
653068370601522540,-79
653068370609196841,-58
653068370616871142,-4
653068370624545443,-36
653068370632219744,-72
653068370639894045,-48
653068370647568346,-48
653068370655242647,-70
653068370662916948,-55
653068370670591249,-43
653068370678265550,-65
653068370685939851,-82
653068370693614152,-60
653068370701288453,-38
653068370708962754,-46
653068370716637055,-48
653068370724311356,-53
653068370731985657,-62
653068370739659958,-53
653068370747334259,-53
653068370755008560,-53
653068370762682861,-43
653068370770357162,-50
653068370778031463,-48
653068370785705764,-16
653068370793380065,-12
653068370801054366,-21
653068370808728667,-31
653068370816402968,-55
653068370824077269,-58
653068370831751570,-50
653068370839425871,-50
653068370847100172,-33
653068370854774473,-41
653068370862448774,-48
653068370870123075,16
653068370877797376,227
653068370885471677,605
653068370893145978,748
653068370900820279,210
653068370908504626,-372
653068370916178788,-249
653068370923852950,-14
653068370931527112,-108
653068370939201274,-140
653068370946875436,-96
653068370954549598,-135
653068370962223760,-113
653068370969897922,-43
653068370977572084,-60
653068370985246246,-113
653068370992920408,-116
653068371000594570,-82
653068371008268732,-58
653068371015942894,-58
653068371023617056,-60
653068371031291218,-29
653068371038965380,2
653068371046639542,-19
653068371054313704,-33
653068371061987866,7
653068371069662028,38
653068371077336190,72
653068371085010352,118
653068371092684514,111
653068371100358676,67
653068371108032838,79
6.53068E+17,123
653068371123381162,96
653068371131055324,33
653068371138729486,-12
653068371146403648,-50
653068371154077810,-99
653068371161751972,-125
653068371169426134,-106
653068371177100296,-101
653068371184774458,-133
653068371192448620,-140
653068371200122782,-123
653068371207796944,-101
653068371215471106,-104
653068371223145268,-111
653068371230819430,-106
653068371238493592,-108
653068371246167754,-99
653068371253841916,-92
653068371261516078,-106
653068371269190240,-89
653068371276864402,-55
653068371284538564,-67
653068371292212726,-113
653068371299886888,-104
653068371307561050,-55
653068371315235212,-53
653068371322909374,-84
653068371330583536,-79
653068371338257698,-60
653068371345931860,-75
653068371353606022,-87
653068371361280184,-75
653068371368954346,-70
653068371376628508,-50
653068371384302670,-53
653068371391976832,-82
653068371399650994,-55
653068371407325156,-33
653068371414999318,-55
653068371422673480,-48
653068371430347642,-14
653068371438021804,-19
653068371445695966,-46
653068371453370128,-38
653068371461044290,-41
653068371468718467,-75
653068371476392629,-99
653068371484066791,-96
653068371491740953,-55
653068371499415115,-38
653068371507089277,-79
653068371514763439,-99
653068371522437601,7
653068371530111763,297
653068371537785925,651
653068371545460087,673
653068371553134249,113
653068371560808411,-382
653068371568482573,-222
653068371576156735,14
653068371583830897,-82
653068371591505059,-140
653068371599179221,-94
653068371606853383,-113
653068371614527545,-111
653068371622201707,-67
653068371629875869,-77
653068371637550031,-104
653068371645224193,-111
653068371652898355,-118
653068371660572517,-106
653068371668246679,-72
653068371675920841,-67
653068371683595003,-50
653068371691269165,-16
653068371698943327,-29
653068371706617489,-19
653068371714291651,43
653068371721965813,67
653068371729639975,62
653068371737314137,94
653068371744988299,111
653068371752662461,92
653068371760336623,82
653068371768010785,87
653068371775684947,79
653068371783359109,43
653068371791033271,7
653068371798707433,-16
653068371806381595,-67
653068371814055757,-108
653068371821729919,-96
653068371829404081,-67
653068371837078243,-89
653068371844752405,-138
653068371852426567,-108
653068371860100729,-55
653068371867774891,-79
653068371875449053,-89
653068371883123215,-62
653068371890797377,-67
653068371898471539,-72
653068371906145701,-70
653068371913819863,-38
653068371921494025,-7
653068371929168187,-50
653068371936842349,-75
653068371944516511,-24
653068371952190673,-12
653068371959864835,-55
653068371967538997,-55
653068371975213159,-26
653068371982887321,-43
653068371990561483,-82
653068371998235645,-77
653068372005909807,-41
653068372013583969,-29
653068372021258131,-41
653068372028922296,-36
653068372036596597,-29
653068372044270898,-60
653068372051945199,-89
653068372059619500,-65
653068372067293801,12
653068372074968102,53
653068372082642403,-21
653068372090316704,-77
653068372097991005,-19
653068372105665306,-9
653068372113339607,-70
653068372121013908,-70
653068372128688209,-43
653068372136362510,-26
653068372144036811,-16
653068372151711112,-46
653068372159385413,-58
653068372167059714,89
653068372174734015,440
653068372182408316,769
653068372190082617,602
653068372197756918,-53
653068372205431219,-338
653068372213105520,-72
653068372220779821,-2
653068372228454122,-128
653068372236128423,-65
653068372243802724,-43
653068372251477025,-118
653068372259151326,-77
653068372266825627,-33
653068372274499928,-87
653068372282174229,-108
653068372289848530,-77
653068372297522831,-65
653068372305197132,-72
653068372312871433,-60
653068372320545734,-53
653068372328220035,-58
653068372335894336,-38
653068372343568637,7
653068372351242938,36
653068372358917239,60
653068372366591540,70
653068372374265841,75
653068372381940142,87
653068372389614443,79
653068372397288744,58
653068372404963045,75
653068372412637346,92
653068372420311647,31
653068372427985948,-24
653068372435660249,-21
653068372443334550,-60
653068372451008851,-116
653068372458683152,-111
653068372466357453,-94
653068372474031754,-99
653068372481706055,-108
653068372489380356,-113
653068372497054657,-104
653068372504728958,-99
653068372512403259,-123
653068372520077560,-116
653068372527751861,-67
653068372535426162,-48
653068372543100463,-79
653068372550774764,-99
653068372558449065,-84
653068372566123366,-65
653068372573797667,-87
653068372581471968,-104
653068372589136303,-58
653068372596810743,-50
653068372604485183,-101
653068372612159623,-111
653068372619834063,-70
653068372627508503,-38
653068372635182943,-60
653068372642857383,-89
653068372650531823,-67
653068372658206263,-48
653068372665880703,-72
653068372673555143,-101
653068372681229583,-67
653068372688904023,-29
653068372696578463,-50
653068372704252903,-53
653068372711927343,-19
653068372719601783,-31
653068372727276223,-75
653068372734950663,-67
653068372742625103,-58
653068372750299543,-65
653068372757973983,-24
653068372765648423,-14
653068372773322863,-60
653068372780997303,-77
653068372788671743,-29
653068372796346183,145
653068372804020623,479
653068372811695063,786
653068372819369503,571
653068372827043943,-108
653068372834718383,-353
653068372842392823,-72
653068372850067263,4
653068372857741703,-99
653068372865416143,-82
653068372873090583,-70
653068372880765023,-94
653068372888439463,-70
653068372896113903,-55
653068372903788343,-65
653068372911462783,-50
653068372919137223,-16
653068372926811663,-7
653068372934486103,-38
653068372942160543,-24
653068372949834983,21
653068372957509423,16
653068372965183863,7
653068372972858303,31
653068372980532743,53
653068372988207183,77
653068372995881623,106
653068373003556063,113
653068373011230503,111
653068373018904943,125
653068373026579383,133
653068373034253823,116
653068373041928263,101
653068373049602703,67
653068373057277143,19
653068373064951583,-14
653068373072626023,-41
653068373080300463,-82
653068373087974903,-96
653068373095649343,-82
653068373103323783,-87
653068373110998223,-79
653068373118672663,-67
653068373126347103,-89
653068373134021543,-75
653068373141695983,-41
653068373149400584,-58
653068373157074606,-70
653068373164748628,-43
653068373172422650,-29
653068373180096672,-65
653068373187770694,-87
653068373195444716,-62
653068373203118738,-58
653068373210792760,-70
653068373218466782,-53
653068373226140804,-50
653068373233814826,-70
653068373241488848,-75
653068373249162870,-77
653068373256836892,-77
653068373264510914,-89
653068373272184936,-89
653068373279858958,-53
653068373287532980,-50
653068373295207002,-89
653068373302881024,-89
653068373310555046,-79
653068373318229068,-87
653068373325903090,-48
653068373333577112,-2
653068373341251134,-24
653068373348925156,-53
653068373356599178,-43
653068373364273200,-46
653068373371947222,-70
653068373379621244,-65
653068373387295266,-31
653068373394969288,-26
653068373402643310,-55
653068373410317332,-77
653068373417991354,-9
653068373425665376,266
653068373433339398,680
653068373441013420,794
653068373448687442,246
653068373456361464,-326
653068373464035486,-205
653068373471709508,26
653068373479383530,-96
653068373487057552,-130
653068373494731574,-38
653068373502405596,-70
653068373510079618,-104
653068373517753640,-50
653068373525427662,-19
653068373533101684,-46
653068373540775706,-48
653068373548449728,-24
653068373556123750,-26
653068373563797772,-48
653068373571471794,-43
653068373579145816,0
653068373586819838,31
653068373594493860,7
653068373602167882,0
653068373609841904,31
653068373617515926,58
653068373625189948,75
653068373632863970,84
653068373640537992,89
653068373648212014,89
653068373655886036,84
653068373663560058,89
653068373671234080,82
653068373678908102,26
653068373686582124,-43
653068373694256146,-67
653068373701930168,-62
653068373709604251,-77
653068373717278273,-113
653068373724952295,-128
653068373732626317,-125
653068373740300339,-133
653068373747974361,-123
653068373755648383,-99
653068373763322405,-101
653068373770996427,-99
653068373778670449,-75
653068373786344471,-75
653068373794018493,-96
653068373801692515,-87
653068373809366537,-46
653068373817040559,-48
653068373824714581,-70
653068373832388603,-46
653068373840062625,-48
653068373847736647,-70
653068373855410669,-70
653068373863084691,-58
653068373870758713,-33
653068373878432735,-43
653068373886106757,-75
653068373893780779,-67
653068373901454801,-53
653068373909128823,-55
653068373916802845,-62
653068373924476867,-55
653068373932150889,-24
653068373939824911,-21
653068373947498933,-46
653068373955172955,-21
653068373962846977,12
653068373970520999,-9
653068373978195021,-33
653068373985869043,-26
653068373993543065,-46
653068374001217087,-58
653068374008891109,-24
653068374016565131,-19
653068374024239153,-19
653068374031913175,7
653068374039587197,26
653068374047261219,225
653068374054935241,682
653068374062609263,832
653068374070283285,230
653068374077957307,-358
653068374085631329,-186
653068374093305351,48
653068374100979373,-108
653068374108653395,-138
653068374116327417,-19
653068374124001439,-60
653068374131675461,-104
653068374139349483,-36
653068374147023505,-31
653068374154697527,-79
653068374162371549,-46
653068374170045571,4
653068374177719593,-31
653068374185393615,-70
653068374193067637,-26
653068374200741659,-2
653068374208415681,-21
653068374216089703,4
653068374223763725,50
653068374231437747,53
653068374239111769,60
653068374246785791,92
653068374254459813,89
653068374262133835,65
653068374269777822,50
653068374277452262,72
653068374285126702,87
653068374292801142,38
653068374300475582,-26
653068374308150022,-62
653068374315824462,-84
653068374323498902,-101
653068374331173342,-125
653068374338847782,-154
653068374346522222,-152
653068374354196662,-142
653068374361871102,-147
653068374369545542,-152
653068374377219982,-147
653068374384894422,-121
653068374392568862,-104
653068374400243302,-108
653068374407917742,-128
653068374415592182,-135
653068374423266622,-111
653068374430941062,-82
653068374438615502,-92
653068374446289942,-116
653068374453964382,-89
653068374461638822,-50
653068374469313262,-89
653068374476987702,-123
653068374484662142,-82
653068374492336582,-75
653068374500011022,-92
653068374507685462,-70
653068374515359902,-65
653068374523034342,-75
653068374530708782,-104
653068374538383222,-130
653068374546057662,-92
653068374553732102,-58
653068374561406542,-67
653068374569080982,-67
653068374576755422,-70
653068374584429862,-89
653068374592104302,-94
653068374599778742,-101
653068374607453182,-106
653068374615127622,-82
653068374622802062,-82
653068374630476502,-108
653068374638150942,-101
653068374645825382,-58
653068374653499822,104
653068374661174262,464
653068374668848702,757
653068374676523142,484
653068374684197582,-188
653068374691872022,-387
653068374699546462,-96
653068374707220902,-29
653068374714895342,-140
653068374722569782,-113
653068374730244222,-67
653068374737918662,-101
653068374745593102,-101
653068374753267542,-77
653068374760941982,-99
653068374768616422,-82
653068374776290862,-4
653068374783965302,-4
653068374791639742,-65
653068374799314182,-55
653068374806988622,-4
653068374814663062,0
653068374822337502,4
653068374830032023,41
653068374837706185,60
653068374845380347,60
653068374853054509,82
653068374860728671,116
653068374868402833,128
653068374876076995,101
653068374883751157,70
653068374891425319,79
653068374899099481,96
653068374906773643,48
653068374914447805,-33
653068374922121967,-65
653068374929796129,-65
653068374937470291,-99
653068374945144453,-125
653068374952818615,-116
653068374960492777,-128
653068374968166939,-128
653068374975841101,-101
653068374983515263,-104
653068374991189425,-118
653068374998863587,-116
653068375006537749,-96
653068375014211911,-77
653068375021886073,-84
653068375029560235,-94
653068375037234397,-87
653068375044908559,-62
653068375052582721,-48
653068375060256883,-65
653068375067931045,-65
653068375075605207,-38
653068375083279369,-55
653068375090953531,-84
653068375098627693,-67
653068375106301855,-65
653068375113976017,-77
653068375121650179,-55
653068375129324341,-48
653068375136998503,-72
653068375144672665,-60
653068375152346827,-33
653068375160020989,-53
653068375167695151,-50
653068375175369313,-19
653068375183043475,-50
653068375190717637,-82
653068375198391799,-55
653068375206065961,-58
653068375213740123,-77
653068375221414285,-62
653068375229088447,-41
653068375236762609,-70
653068375244436771,-82
653068375252110933,104
653068375259785095,503
653068375267459257,794
653068375275133419,472
653068375282807581,-232
653068375290481743,-341
653068375298155905,-4
653068375305830067,-55
653068375313504229,-222
653068375321178391,-116
653068375328852553,-46
653068375336526715,-111
653068375344200877,-116
653068375351875039,-70
653068375359549201,-65
653068375367223363,-70
653068375374897525,-65
653068375382571687,-65
653068375390235852,-55
653068375397910153,-24
653068375405584454,-4
653068375413258755,0
653068375420933056,12
653068375428607357,21
653068375436281658,46
653068375443955959,82
653068375451630260,82
653068375459304561,75
653068375466978862,106
653068375474653163,111
653068375482327464,87
653068375490001765,89
653068375497676066,77
653068375505350367,21
653068375513024668,-36
653068375520698969,-60
653068375528373270,-62
653068375536047571,-87
653068375543721872,-116
653068375551396173,-121
653068375559070474,-108
653068375566744775,-106
653068375574419076,-135
653068375582093377,-147
653068375589767678,-121
653068375597441979,-99
653068375605116280,-92
653068375612790581,-89
653068375620464882,-101
653068375628139183,-106
653068375635813484,-94
653068375643487785,-77
653068375651162086,-72
653068375658836387,-62
653068375666510688,-65
653068375674184989,-87
653068375681859290,-89
653068375689533591,-75
653068375697207892,-92
653068375704882193,-101
653068375712556494,-70
653068375720230795,-50
653068375727905096,-72
653068375735579397,-72
653068375743253698,-43
653068375750927999,-48
653068375758602300,-58
653068375766276601,-29
653068375773950902,-24
653068375781625203,-46
653068375789299504,-46
653068375796973805,-60
653068375804648106,-79
653068375812322407,-36
653068375819996708,0
653068375827671009,-43
653068375835345310,-84
653068375843019611,-43
653068375850693912,174
653068375858368213,588
653068375866042514,840
653068375873716815,455
653068375881391116,-208
653068375889065417,-276
653068375896739718,14
653068375904414019,-24
653068375912088320,-142
653068375919762621,-60
653068375927436922,-31
653068375935111223,-75
653068375942785524,-48
653068375950479955,-43
653068375958153977,-82
653068375965827999,-50
653068375973502021,-12
653068375981176043,-26
653068375988850065,-29
653068375996524087,0
653068376004198109,16
653068376011872131,12
653068376019546153,16
653068376027220175,29
653068376034894197,55
653068376042568219,101
653068376050242241,125
653068376057916263,108
653068376065590285,99
653068376073264307,123
653068376080938329,111
653068376088612351,82
653068376096286373,94
653068376103960395,92
653068376111634417,19
653068376119308439,-55
653068376126982461,-55
653068376134656483,-43
653068376142330505,-62
653068376150004527,-72
653068376157678549,-84
653068376165352571,-108
653068376173026593,-104
653068376180700615,-96
653068376188374637,-94
653068376196048659,-62
653068376203722681,-53
653068376211396703,-89
653068376219070725,-106
653068376226744747,-77
653068376234418769,-53
653068376242092791,-65
653068376249766813,-77
653068376257440835,-65
653068376265114857,-60
653068376272788879,-58
653068376280462901,-50
653068376288136923,-60
653068376295810945,-67
653068376303484967,-70
653068376311158989,-77
653068376318833011,-67
653068376326507033,-50
653068376334181055,-60
653068376341855077,-65
653068376349529099,-53
653068376357203121,-46
653068376364877143,-16
653068376372551165,4
653068376380225187,-33
653068376387899209,-58
653068376395573231,-41
653068376403247253,-50
653068376410921275,-67
653068376418595297,-60
653068376426269319,-46
653068376433943341,-16
653068376441617363,-16
653068376449291385,26
653068376456965407,324
653068376464639429,760
653068376472313451,767
653068376479987473,130
653068376487661495,-341
653068376495335517,-125
653068376503009539,46
653068376510653522,-96
653068376518327962,-89
653068376526002402,-29
653068376533676842,-87
653068376541351282,-82
653068376549025722,-38
653068376556700162,-75
653068376564374602,-92
653068376572049042,-41
653068376579723482,-26
653068376587397922,-43
653068376595072362,-9
653068376602746802,38
653068376610421242,26
653068376618095682,-7
653068376625770122,16
653068376633444562,77
653068376641119002,111
653068376648793442,121
653068376656467882,113
653068376664142322,108
653068376671816762,142
653068376679491202,145
653068376687165642,116
653068376694840082,125
653068376702514522,94
653068376710188962,16
653068376717863402,4
653068376725537842,2
653068376733212282,-50
653068376740886722,-92
653068376748561162,-89
653068376756235602,-72
653068376763910042,-72
653068376771584482,-82
653068376779258922,-77
653068376786933362,-65
653068376794607802,-67
653068376802282242,-89
653068376809956682,-99
653068376817631122,-79
653068376825305562,-58
653068376832980002,-65
653068376840654442,-75
653068376848328882,-72
653068376856003322,-79
653068376863677762,-87
653068376871352202,-67
653068376879026642,-43
653068376886701082,-48
653068376894375522,-62
653068376902049962,-70
653068376909724402,-62
653068376917398842,-48
653068376925073282,-62
653068376932747722,-94
653068376940422162,-72
653068376948096602,-43
653068376955771042,-67
653068376963445482,-79
653068376971119922,-31
653068376978794362,-16
653068376986468802,-50
653068376994143242,-65
653068377001817682,-55
653068377009492122,-65
653068377017166562,-75
653068377024841002,-62
653068377032515442,-50
653068377040189882,-60
653068377047864322,-94
653068377055538762,-12
653068377063213202,329
653068377070897719,736
653068377078572020,721
653068377086246321,99
653068377093920622,-387
653068377101594923,-193
653068377109269224,0
653068377116943525,-125
653068377124617826,-138
653068377132292127,-70
653068377139966428,-101
653068377147640729,-106
653068377155315030,-53
653068377162989331,-58
653068377170663632,-77
653068377178337933,-41
653068377186012234,-29
653068377193686535,-67
653068377201360836,-58
653068377209035137,2
653068377216709438,4
653068377224383739,-21
653068377232058040,12
653068377239732341,62
653068377247406642,75
653068377255080943,48
653068377262755244,48
653068377270429545,94
653068377278103846,121
653068377285778147,101
653068377293452448,79
653068377301126749,67
653068377308801050,36
653068377316475351,4
653068377324149652,-21
653068377331823953,-62
653068377339498254,-79
653068377347172555,-92
653068377354846856,-123
653068377362521157,-104
653068377370195458,-75
653068377377869759,-111
653068377385544060,-133
653068377393218361,-101
653068377400892662,-89
653068377408566963,-96
653068377416241264,-96
653068377423915565,-75
653068377431589866,-65
653068377439264167,-87
653068377446938468,-84
653068377454612769,-60
653068377462287070,-62
653068377469961371,-84
653068377477635672,-75
653068377485309973,-26
653068377492984274,-43
653068377500658575,-111
653068377508332876,-96
653068377516007177,-46
653068377523681478,-67
653068377531355779,-89
653068377539030080,-58
653068377546704381,-53
653068377554378682,-72
653068377562052983,-65
653068377569727284,-41
653068377577401585,-36
653068377585075886,-58
653068377592750187,-65
653068377600424488,-67
653068377608098789,-75
653068377615773090,-50
653068377623447391,-41
653068377631131738,-60
653068377638805900,-55
653068377646480062,-55
653068377654154224,-2
653068377661828386,305
653068377669502548,748
653068377677176710,769
653068377684850872,145
653068377692525034,-370
653068377700199196,-188
653068377707873358,21
653068377715547520,-125
653068377723221682,-159
653068377730895844,-70
653068377738570006,-101
653068377746244168,-128
653068377753918330,-82
653068377761592492,-62
653068377769266654,-77
653068377776940816,-50
653068377784614978,-31
653068377792289140,-58
653068377799963302,-55
653068377807637464,-26
653068377815311626,-12
653068377822985788,14
653068377830659950,38
653068377838334112,41
653068377846008274,58
653068377853682436,82
653068377861356598,106
653068377869030760,140
653068377876704922,138
653068377884379084,116
653068377892053246,104
653068377899727408,92
653068377907401570,92
653068377915075732,60
653068377922749894,-4
653068377930424056,-43
653068377938098218,-67
653068377945772380,-77
653068377953446542,-50
653068377961120704,-46
653068377968794866,-89
653068377976469028,-111
653068377984143190,-84
653068377991817352,-65
653068377999491514,-67
653068378007165676,-62
653068378014839838,-38
6.53068E+17,-19
653068378030188162,-43
653068378037862324,-70
653068378045536486,-41
653068378053210648,-36
653068378060884810,-55
653068378068558972,-46
653068378076233134,-38
653068378083907296,-48
653068378091581458,-46
653068378099255620,-46
653068378106929782,-55
653068378114603944,-58
653068378122278106,-48
653068378129952268,-36
653068378137626430,-53
653068378145300592,-75
653068378152974754,-67
653068378160648916,-65
653068378168323078,-79
653068378175997240,-62
653068378183671402,-29
653068378191345579,-19
653068378199019741,-7
653068378206693903,-16
653068378214368065,-67
653068378222042227,-70
653068378229716389,-53
653068378237390551,-67
653068378245064713,-65
653068378252738875,-43
653068378260413037,-50
653068378268087199,-50
653068378275761361,125
653068378283435523,510
653068378291109685,789
653068378298783847,498
653068378306458009,-164
653068378314132171,-324
653068378321806333,-31
653068378329480495,-41
653068378337154657,-174
653068378344828819,-84
653068378352502981,-50
653068378360177143,-111
653068378367851305,-67
653068378375525467,-31
653068378383199629,-67
653068378390873791,-60
653068378398547953,-26
653068378406222115,-33
653068378413896277,-36
653068378421570439,-19
653068378429244601,-4
653068378436918763,16
653068378444592925,38
653068378452267087,50
653068378459941249,50
653068378467615411,67
653068378475289573,96
653068378482963735,111
653068378490637897,111
653068378498312059,121
653068378505986221,142
653068378513660383,123
653068378521334545,94
653068378529008707,79
653068378536682869,36
653068378544357031,-19
653068378552031193,-48
653068378559705355,-75
653068378567379517,-96
653068378575053679,-87
653068378582727841,-89
653068378590402003,-96
653068378598076165,-53
653068378605750327,-36
653068378613424489,-87
653068378621098651,-99
653068378628772813,-72
653068378636446975,-75
653068378644121137,-70
653068378651795299,-62
653068378659469461,-50
653068378667143623,-29
653068378674817785,-43
653068378682491947,-65
653068378690166109,-50
653068378697840271,-62
653068378705514433,-72
653068378713188595,-48
653068378720862757,-53
653068378728536919,-70
653068378736211081,-58
653068378743885243,-58
653068378751549408,-72
653068378759223709,-65
653068378766898010,-65
653068378774572311,-84
653068378782246612,-77
653068378789920913,-53
653068378797595214,-38
653068378805269515,-21
653068378812943816,-21
653068378820618117,-67
653068378828292418,-89
653068378835966719,-60
653068378843641020,-50
653068378851315321,-50
653068378858989622,-43
653068378866663923,-50
653068378874338224,-53
653068378882012525,-12
653068378889686826,176
653068378897361127,554
653068378905035428,808
653068378912709729,423
653068378920384030,-261
653068378928058331,-297
653068378935732632,19
653068378943406933,-36
653068378951081234,-154
653068378958755535,-77
653068378966429836,-46
653068378974104137,-72
653068378981778438,-55
653068378989452739,-43
653068378997127040,-43
653068379004801341,-33
653068379012475642,-21
653068379020149943,-19
653068379027824244,-29
653068379035498545,-16
653068379043172846,2
653068379050847147,7
653068379058521448,29
653068379066195749,65
653068379073870050,67
653068379081544351,75
653068379089218652,116
653068379096892953,116
653068379104567254,106
653068379112241555,130
653068379119915856,138
653068379127590157,123
653068379135264458,92
653068379142938759,55
653068379150613060,46
653068379158287361,12
653068379165961662,-38
653068379173635963,-36
653068379181310264,-38
653068379188984565,-70
653068379196658866,-70
653068379204333167,-70
653068379212007468,-75
653068379219681769,-53
653068379227356070,-36
653068379235030371,-48
653068379242704672,-55
653068379250378973,-53
653068379258053274,-55
653068379265727575,-43
653068379273401876,-41
653068379281076177,-55
653068379288750478,-43
653068379296424779,-31
653068379304099080,-48
653068379311793511,-41
653068379319467533,-19
653068379327141555,-46
653068379334815577,-67
653068379342489599,-33
653068379350163621,-14
653068379357837643,-36
653068379365511665,-48
653068379373185687,-38
653068379380859709,-46
653068379388533731,-67
653068379396207753,-53
653068379403881775,-16
653068379411555797,-21
653068379419229819,-26
653068379426903841,2
653068379434577863,4
653068379442251885,-26
653068379449925907,-38
653068379457599929,-21
653068379465273951,-19
653068379472947973,-36
653068379480621995,-41
653068379488296017,-43
653068379495970039,-58
653068379503644061,-53
653068379511318083,12
653068379518992105,188
653068379526666127,549
653068379534340149,820
653068379542014171,440
653068379549688193,-256
653068379557362215,-309
653068379565036237,4
653068379572710259,-36
653068379580384281,-145
653068379588058303,-65
653068379595732325,-46
653068379603406347,-92
653068379611080369,-77
653068379618754391,-38
653068379626428413,-38
653068379634102435,-60
653068379641776457,-21
653068379649450479,-4
653068379657124501,-43
653068379664798523,-26
653068379672472545,7
653068379680146567,16
653068379687820589,21
653068379695494611,7
653068379703168633,48
653068379710842655,130
653068379718516677,123
653068379726190699,92
653068379733864721,123
653068379741538743,138
653068379749212765,99
653068379756886787,55
653068379764560809,55
653068379772234831,77
653068379779908853,38
653068379787582875,-24
653068379795256897,-55
653068379802930919,-75
653068379810604941,-89
653068379818278963,-106
653068379825952985,-128
653068379833627007,-104
653068379841301029,-82
653068379848975051,-113
653068379856649073,-118
653068379864323095,-87
653068379871967078,-99
653068379879641518,-118
653068379887315958,-89
653068379894990398,-60
653068379902664838,-79
653068379910339278,-99
653068379918013718,-108
653068379925688158,-104
653068379933362598,-55
653068379941037038,-53
653068379948711478,-113
653068379956385918,-101
653068379964060358,-55
653068379971734798,-87
653068379979409238,-101
653068379987083678,-50
653068379994758118,-53
653068380002432558,-113
653068380010106998,-104
653068380017781438,-48
653068380025455878,-50
653068380033130318,-82
653068380040804758,-82
653068380048479198,-43
653068380056153638,-26
653068380063828078,-70
653068380071502518,-94
653068380079176958,-77
653068380086851398,-79
653068380094525838,-55
653068380102200278,-33
653068380109874718,-50
653068380117549158,-70
653068380125223598,-16
653068380132898038,239
653068380140572478,639
653068380148246918,743
653068380155921358,210
653068380163595798,-334
653068380171270238,-196
653068380178944678,21
653068380186619118,-113
653068380194293558,-145
653068380201967998,-24
653068380209642438,-29
653068380217316878,-99
653068380224991318,-94
653068380232665758,-46
653068380240340198,-21
653068380248014638,-16
653068380255689078,-26
653068380263363518,-46
653068380271037958,-41
653068380278712398,-26
653068380286386838,-4
653068380294061278,24
653068380301735718,41
653068380309410158,16
653068380317084598,12
653068380324759038,75
653068380332433478,113
653068380340107918,104
653068380347782358,108
653068380355456798,116
653068380363131238,104
653068380370805678,89
653068380378480118,72
653068380386154558,36
653068380393828998,0
653068380401503438,-38
653068380409177878,-89
653068380416852318,-87
653068380424526758,-67
653068380432211275,-106
653068380439885576,-138
653068380447559877,-94
653068380455234178,-70
653068380462908479,-121
653068380470582780,-145
653068380478257081,-104
653068380485931382,-75
653068380493605683,-101
653068380501279984,-121
653068380508954285,-84
653068380516628586,-58
653068380524302887,-65
653068380531977188,-75
653068380539651489,-94
653068380547325790,-101
653068380555000091,-70
653068380562674392,-43
653068380570348693,-53
653068380578022994,-58
653068380585697295,-46
653068380593371596,-60
653068380601045897,-84
653068380608720198,-75
653068380616394499,-48
653068380624068800,-41
653068380631743101,-43
653068380639417402,-31
653068380647091703,-21
653068380654766004,-24
653068380662440305,-31
653068380670114606,-46
653068380677788907,-60
653068380685463208,-50
653068380693137509,-12
653068380700811810,2
653068380708486111,-38
653068380716160412,-7
653068380723834713,292
653068380731509014,736
653068380739183315,808
653068380746857616,210
653068380754531917,-358
653068380762206218,-210
653068380769880519,19
653068380777554820,-116
653068380785229121,-157
653068380792903422,-65
653068380800577723,-82
653068380808252024,-106
653068380815926325,-58
653068380823600626,-36
653068380831274927,-62
653068380838949228,-62
653068380846623529,-33
653068380854297830,-14
653068380861972131,-12
653068380869646432,-21
653068380877320733,0
653068380884995034,19
653068380892669335,0
653068380900343636,9
653068380908017937,60
653068380915692238,87
653068380923366539,92
653068380931040840,89
653068380938715141,87
653068380946389442,104
653068380954063743,104
653068380961738044,77
653068380969412345,58
653068380977086646,26
653068380984760947,-14
653068380992445294,-31
653068381000119456,-60
653068381007793618,-87
653068381015467780,-77
653068381023141942,-65
653068381030816104,-87
653068381038490266,-108
653068381046164428,-92
653068381053838590,-67
653068381061512752,-94
653068381069186914,-108
653068381076861076,-72
653068381084535238,-77
653068381092209400,-94
653068381099883562,-82
653068381107557724,-84
653068381115231886,-62
653068381122906048,-29
653068381130580210,-55
653068381138254372,-72
653068381145928534,-60
653068381153602696,-60
653068381161276858,-58
653068381168951020,-62
653068381176625182,-67
653068381184299344,-41
653068381191973506,-19
653068381199647668,-43
653068381207321830,-53
653068381214995992,-19
653068381222670154,-33
653068381230344316,-60
653068381238018478,-21
653068381245692640,-4
653068381253366802,-24
653068381261040964,-19
653068381268715126,-24
653068381276389288,-46
653068381284063450,-41
653068381291737612,-36
653068381299411774,-36
653068381307085936,-19
653068381314760098,-14
653068381322434260,-38
653068381330108422,-14
653068381337782584,198
653068381345456746,617
653068381353130908,830
653068381360805070,353
653068381368479232,-280
653068381376153394,-242
653068381383827556,26
653068381391501718,-62
653068381399175880,-135
653068381406850042,-41
653068381414524204,-26
653068381422198366,-72
653068381429872528,-50
653068381437546690,-36
653068381445220852,-50
653068381452895014,-21
653068381460569176,0
653068381468243338,-16
653068381475917500,-7
653068381483591662,12
653068381491265824,0
653068381498939986,12
653068381506614148,58
653068381514288310,65
653068381521962472,70
653068381529636634,96
653068381537310796,104
653068381544984958,121
653068381552659135,138
653068381560333297,125
653068381568007459,123
653068381575681621,138
653068381583355783,106
653068381591029945,43
653068381598704107,31
653068381606378269,50
653068381614052431,4
653068381621726593,-62
653068381629400755,-55
653068381637074917,-50
653068381644749079,-82
653068381652423241,-72
653068381660097403,-48
653068381667771565,-43
653068381675445727,-26
653068381683119889,-29
653068381690794051,-53
653068381698468213,-48
653068381706142375,-14
653068381713816537,-7
653068381721490699,-46
653068381729164861,-53
653068381736839023,-2
653068381744513185,12
653068381752187347,-26
653068381759861509,-50
653068381767535671,-41
653068381775209833,-43
653068381782883995,-53
653068381790558157,-31
653068381798232319,-19
653068381805906481,-41
653068381813580643,-26
653068381821254805,9
653068381828928967,-2
653068381836603129,-26
653068381844277291,-26
653068381851951453,-24
653068381859625615,12
653068381867299777,70
653068381874973939,46
653068381882648101,-21
653068381890322263,-19
653068381897996425,24
653068381905670587,24
653068381913344749,2
653068381921018911,24
653068381928693073,46
653068381936367235,12
653068381944041397,16
653068381951715559,232
653068381959389721,622
653068381967063883,849
653068381974738045,486
653068381982412207,-167
653068381990086369,-230
653068381997760531,79
653068382005434693,24
653068382013108855,-99
653068382020783017,-2
653068382028457179,29
653068382036131341,-26
653068382043805503,-12
653068382051479665,33
653068382059153827,33
653068382066827989,4
653068382074502151,4
653068382082176313,38
653068382089850475,55
653068382097524637,36
653068382105198799,21
653068382112862964,58
653068382120537265,116
653068382128211566,118
653068382135885867,92
653068382143560168,118
653068382151234469,174
653068382158908770,176
653068382166583071,147
653068382174257372,130
653068382181931673,138
653068382189605974,164
653068382197280275,135
653068382204954576,75
653068382212628877,75
653068382220303178,67
653068382227977479,7
653068382235651780,-31
653068382243326081,-33
653068382251000382,-62
653068382258674683,-111
653068382266348984,-96
653068382274023285,-48
653068382281697586,-67
653068382289371887,-101
653068382297046188,-82
653068382304720489,-70
653068382312394790,-84
653068382320069091,-82
653068382327743392,-77
653068382335417693,-82
653068382343091994,-82
653068382350766295,-89
653068382358440596,-111
653068382366114897,-96
653068382373789198,-43
653068382381463499,-50
653068382389137800,-84
653068382396812101,-60
653068382404486402,-50
653068382412160703,-89
653068382419835004,-94
653068382427509305,-72
653068382435183606,-65
653068382442857907,-72
653068382450532208,-77
653068382458206509,-62
653068382465880810,-48
653068382473555111,-48
653068382481229412,-48
653068382488903713,-43
653068382496578014,-65
653068382504252315,-92
653068382511926616,-82
653068382519600917,-62
653068382527275218,-43
653068382534949519,-41
653068382542623820,-67
653068382550298121,-96
653068382557972422,-79
653068382565646723,116
653068382573321024,508
653068382580995325,765
653068382588669626,445
653068382596343927,-210
653068382604018228,-363
653068382611692529,-70
653068382619366830,-24
653068382627041131,-147
653068382634715432,-121
653068382642389733,-67
653068382650064034,-84
653068382657738335,-79
653068382665412636,-53
653068382673107067,-70
653068382680781089,-77
653068382688455111,-29
653068382696129133,-33
653068382703803155,-82
653068382711477177,-55
653068382719151199,-4
653068382726825221,-21
653068382734499243,-21
653068382742173265,24
653068382749847287,24
653068382757521309,12
653068382765195331,72
653068382772869353,113
653068382780543375,79
653068382788217397,48
653068382795891419,55
653068382803565441,72
653068382811239463,77
653068382818913485,65
653068382826587507,14
653068382834261529,-53
653068382841935551,-75
653068382849609573,-75
653068382857283595,-84
653068382864957617,-101
653068382872631639,-104
653068382880305661,-72
653068382887979683,-53
653068382895653705,-75
653068382903327727,-87
653068382911001749,-72
653068382918675771,-65
653068382926349793,-62
653068382934023815,-62
653068382941697837,-87
653068382949371859,-87
653068382957045881,-55
653068382964719903,-53
653068382972393925,-62
653068382980067947,-53
653068382987741969,-55
653068382995415991,-75
653068383003090013,-84
653068383010764035,-87
653068383018438057,-84
653068383026112079,-67
653068383033786101,-62
653068383041460123,-62
653068383049134145,-62
653068383056808167,-75
653068383064482189,-65
653068383072156211,-53
653068383079830233,-67
653068383087504255,-75
653068383095178277,-67
653068383102852299,-82
653068383110526321,-92
653068383118200343,-50
653068383125874365,-31
653068383133548387,-77
653068383141222409,-70
653068383148896431,142
653068383156570453,537
653068383164244475,774
653068383171918497,406
653068383179592519,-256
653068383187266541,-319
653068383194940563,-2
653068383202614585,-43
653068383210288607,-179
653068383217962629,-106
653068383225636651,-58
653068383233280634,-89
653068383240955074,-84
653068383248629514,-65
653068383256303954,-53
653068383263978394,-24
653068383271652834,-29
653068383279327274,-77
653068383287001714,-84
653068383294676154,-33
653068383302350594,-16
653068383310025034,-14
653068383317699474,29
653068383325373914,46
653068383333048354,26
653068383340722794,48
653068383348397234,82
653068383356071674,84
653068383363746114,89
653068383371420554,99
653068383379094994,89
653068383386769434,62
653068383394443874,55
653068383402118314,46
653068383409792754,9
653068383417467194,-19
653068383425141634,-26
653068383432816074,-48
653068383440490514,-94
653068383448164954,-118
653068383455839394,-84
653068383463513834,-50
653068383471188274,-62
653068383478862714,-77
653068383486537154,-75
653068383494211594,-84
653068383501886034,-70
653068383509560474,-29
653068383517234914,-29
653068383524909354,-41
653068383532583794,-26
653068383540258234,-36
653068383547932674,-75
653068383555607114,-70
653068383563281554,-41
653068383570955994,-36
653068383578630434,-53
653068383586304874,-55
653068383593979314,-43
653068383601653754,-41
653068383609328194,-48
653068383617002634,-58
653068383624677074,-70
653068383632351514,-60
653068383640025954,-50
653068383647700394,-67
653068383655374834,-60
653068383663049274,-19
653068383670723714,0
653068383678398154,-14
653068383686072594,-33
653068383693747034,-26
653068383701421474,-31
653068383709095914,-53
653068383716770354,-31
653068383724444794,-29
653068383732119234,-67
653068383739793674,-50
653068383747468114,-2
653068383755142554,-14
653068383762816994,-33
653068383770491434,101
653068383778165874,460
653068383785840314,796
653068383793514823,585
653068383801189263,-108
653068383808863703,-363
653068383816538143,-55
653068383824212583,14
653068383831887023,-152
653068383839561463,-118
653068383847235903,-26
653068383854910343,-46
653068383862584783,-67
653068383870259223,-50
653068383877933663,-29
653068383885608103,-21
653068383893282543,-53
653068383900956983,-46
653068383908631423,19
653068383916305863,26
653068383923980303,-12
653068383931654743,2
653068383939329183,41
653068383947003623,53
653068383954678063,72
653068383962352503,84
653068383970026943,77
653068383977701383,104
653068383985375823,138
653068383993050263,133
653068384000724703,111
653068384008399143,92
653068384016073583,87
653068384023748023,108
653068384031422463,104
653068384039096903,19
653068384046771343,-46
653068384054445783,-31
653068384062120223,-21
653068384069794663,-55
653068384077469103,-77
653068384085143543,-53
653068384092817983,-48
653068384100492423,-67
653068384108166863,-62
653068384115841303,-43
653068384123515743,-43
653068384131190183,-60
653068384138864623,-72
653068384146539063,-46
653068384154213503,-26
653068384161887943,-55
653068384169562383,-55
653068384177236823,-21
653068384184911263,-21
653068384192585703,-29
653068384200260143,-36
653068384207934583,-50
653068384215609023,-29
653068384223283463,-24
653068384230957903,-53
653068384238632343,-41
653068384246306783,-41
653068384253981223,-65
653068384261655663,-36
653068384269330103,-26
653068384277004543,-48
653068384284678983,-29
653068384292353423,-26
653068384300027863,-38
653068384307702303,7
653068384315376743,19
653068384323051183,-48
653068384330725623,-70
653068384338400063,-16
653068384346074503,2
653068384353779104,-31
653068384361453126,-36
653068384369127148,9
653068384376801170,12
653068384384475192,9
653068384392149214,249
653068384399823236,694
653068384407497258,830
653068384415171280,300
653068384422845302,-280
653068384430519324,-179
653068384438193346,58
653068384445867368,-72
653068384453541390,-125
653068384461215412,-36
653068384468889434,-55
653068384476563456,-70
653068384484237478,-24
653068384491911500,-24
653068384499585522,-41
653068384507259544,-31
653068384514933566,-24
653068384522607588,0
653068384530281610,36
653068384537955632,29
653068384545629654,16
653068384553303676,38
653068384560977698,58
653068384568651720,67
653068384576325742,79
653068384583999764,96
653068384591673786,118
653068384599347808,150
653068384607021830,167
653068384614695852,150
653068384622369874,116
653068384630043896,101
653068384637717918,121
653068384645391940,121
653068384653065962,60
653068384660739984,-7
653068384668414006,-12
653068384676088028,2
653068384683762050,-2
653068384691436072,-29
653068384699110094,-53
653068384706784116,-31
653068384714458138,12
653068384722132160,0
653068384729806182,-38
653068384737480204,-21
653068384745154226,12
653068384752828248,0
653068384760502270,-19
653068384768176292,-12
653068384775850314,21
653068384783524336,43
653068384791198358,16
653068384798872380,-12
653068384806546402,-16
653068384814220424,0
653068384821894446,12
653068384829568468,-4
653068384837242490,-12
653068384844916512,-4
653068384852590534,-2
653068384860264556,16
653068384867938578,29
653068384875612600,12
653068384883286622,16
653068384890960644,24
653068384898634666,9
653068384906308688,21
653068384913952675,48
653068384921627115,24
653068384929301555,0
653068384936975995,38
653068384944650435,79
653068384952324875,67
653068384959999315,38
653068384967673755,26
653068384975348195,14
653068384983022635,0
653068384990697075,26
653068384998371515,67
653068385006045955,55
653068385013720395,16
653068385021394835,33
653068385029069275,208
653068385036743715,578
653068385044418155,854
653068385052092595,549
653068385059767035,-87
653068385067441475,-213
653068385075115915,48
653068385082790355,41
653068385090464795,-72
653068385098139235,-16
653068385105813675,29
653068385113488115,4
653068385121162555,12
653068385128836995,29
653068385136511435,24
653068385144185875,31
653068385151860315,31
653068385159534755,4
653068385167209195,31
653068385174883635,79
653068385182558075,55
653068385190232515,33
653068385197906955,65
653068385205581395,84
653068385213255835,87
653068385220930275,108
653068385228604715,130
653068385236279155,145
653068385243953595,159
653068385251628035,145
653068385259302475,130
653068385266976915,135
653068385274651355,121
653068385282325795,94
653068385290000235,65
653068385297674675,29
653068385305349115,-4
653068385313023555,-41
653068385320697995,-77
653068385328372435,-87
653068385336046875,-62
653068385343721315,-65
653068385351395755,-89
653068385359070195,-94
653068385366744635,-89
653068385374419075,-82
653068385382093515,-82
653068385389767955,-94
653068385397442395,-99
653068385405116835,-82
653068385412791275,-82
653068385420465715,-101
653068385428140155,-96
653068385435814595,-87
653068385443489035,-96
653068385451163475,-89
653068385458837915,-82
653068385466512355,-96
653068385474211916,-121
653068385481886008,-113
653068385489560100,-75
653068385497234192,-72
653068385504908284,-101
653068385512582376,-96
653068385520256468,-79
653068385527930560,-82
653068385535604652,-99
653068385543278744,-113
653068385550952836,-99
653068385558626928,-89
653068385566301020,-89
653068385573975112,-46
653068385581649204,-14
653068385589323296,-50
653068385596997388,-89
653068385604671480,-99
653068385612345572,-94
653068385620019664,-79
653068385627693756,-77
653068385635367848,-89
653068385643041940,-87
653068385650716032,-67
653068385658390124,-24
653068385666064216,171
653068385673738308,568
653068385681412400,767
653068385689086492,300
653068385696760584,-331
653068385704434676,-283
653068385712108768,-12
653068385719782860,-106
653068385727456952,-164
653068385735131044,-62
653068385742805136,-87
653068385750479228,-133
653068385758153320,-72
653068385765827412,-55
653068385773501504,-82
653068385781175596,-38
653068385788849688,-9
653068385796523780,-48
653068385804197872,-67
653068385811871964,-43
653068385819546056,-16
653068385827220148,0
653068385834894240,7
653068385842568332,7
653068385850242424,19
653068385857916516,65
653068385865590608,106
653068385873264700,89
653068385880938792,70
653068385888612884,82
653068385896286976,82
653068385903961068,62
653068385911635160,48
653068385919309252,14
653068385926983344,-24
653068385934657436,-19
653068385942331528,-9
653068385950005620,-65
653068385957679712,-125
653068385965353804,-123
653068385973027896,-106
653068385980701988,-118
653068385988376080,-125
653068385996050172,-96
653068386003724264,-72
653068386011398356,-82
653068386019072448,-96
653068386026746540,-87
653068386034400578,-75
653068386042074949,-67
653068386049749320,-50
653068386057423691,-36
653068386065098062,-50
653068386072772433,-62
653068386080446804,-50
653068386088121175,-46
653068386095795546,-65
653068386103469917,-58
653068386111144288,-36
653068386118818659,-53
653068386126493030,-58
653068386134167401,-43
653068386141841772,-53
653068386149516143,-72
653068386157190514,-65
653068386164864885,-33
653068386172539256,-41
653068386180213627,-62
653068386187887998,-29
653068386195562369,-12
653068386203236740,-48
653068386210911111,-60
653068386218585482,-33
653068386226259853,-24
653068386233934224,-38
653068386241608595,-46
653068386249282966,-41
653068386256957337,-46
653068386264631708,-53
653068386272306079,-2
653068386279980450,210
653068386287654821,588
653068386295329192,798
653068386303003563,392
653068386310677934,-256
653068386318352305,-278
653068386326026676,24
653068386333701047,-41
653068386341375418,-154
653068386349049789,-58
653068386356724160,-29
653068386364398531,-84
653068386372072902,-53
653068386379747273,-21
653068386387421644,-60
653068386395096015,-55
653068386402770386,-21
653068386410444757,-36
653068386418119128,-33
653068386425793499,0
653068386433467870,7
653068386441142241,9
653068386448816612,31
653068386456490983,53
653068386464165354,65
653068386471839725,75
653068386479514096,87
653068386487188467,108
653068386494862838,123
653068386502537209,111
653068386510211580,92
653068386517885951,92
653068386525560322,84
653068386533234693,38
653068386540909064,0
653068386548583435,-12
653068386556257806,-36
653068386563932177,-67
653068386571606548,-87
653068386579280919,-101
653068386586955290,-96
653068386594624712,-75
653068386602299152,-75
653068386609973592,-70
653068386617648032,-50
653068386625322472,-67
653068386632996912,-92
653068386640671352,-70
653068386648345792,-36
653068386656020232,-48
653068386663694672,-60
653068386671369112,-38
653068386679043552,-31
653068386686717992,-38
653068386694392432,-31
653068386702066872,-24
653068386709741312,-26
653068386717415752,-26
653068386725090192,-36
653068386732764632,-53
653068386740439072,-41
653068386748113512,-14
653068386755787952,-21
653068386763462392,-38
653068386771136832,-31
653068386778811272,-24
653068386786485712,-46
653068386794160152,-41
653068386801834592,-19
653068386809509032,-38
653068386817183472,-43
653068386824857912,-14
653068386832532352,-9
653068386840206792,-9
653068386847881232,-26
653068386855555672,-67
653068386863230112,-48
653068386870904552,-14
653068386878578992,-43
653068386886253432,-46
653068386893927872,-16
653068386901602312,-36
653068386909276752,-50
653068386916951192,106
653068386924625632,474
653068386932300072,806
653068386939974512,610
653068386947648952,-58
653068386955323392,-322
653068386962997832,-50
653068386970672272,14
653068386978346712,-121
653068386986021152,-89
653068386993695592,-38
653068387001370032,-60
653068387009044472,-41
653068387016718912,-16
653068387024393352,-31
653068387032067792,-38
653068387039742232,-38
653068387047416672,-21
653068387055091112,19
653068387062765552,21
653068387070439992,-14
653068387078114432,-2
653068387085788872,46
653068387093463312,67
653068387101137752,58
653068387108812192,65
653068387116486632,84
653068387124161072,96
653068387131835512,96
653068387139509952,89
653068387147184392,92
653068387154888993,99
653068387162563015,89
653068387170237037,75
653068387177911059,38
653068387185585081,-16
653068387193259103,-41
653068387200933125,-29
653068387208607147,-33
653068387216281169,-58
653068387223955191,-55
653068387231629213,-38
653068387239303235,-43
653068387246977257,-43
653068387254651279,-9
653068387262325301,4
653068387269999323,-21
653068387277673345,-9
653068387285347367,14
653068387293021389,-4
653068387300695411,7
653068387308369433,41
653068387316043455,19
653068387323717477,-12
653068387331391499,2
653068387339065521,31
653068387346739543,46
653068387354413565,16
653068387362087587,0
653068387369761609,16
653068387377435631,14
653068387385109653,4
653068387392783675,36
653068387400457697,50
653068387408131719,24
653068387415805741,16
653068387423479763,41
653068387431153785,48
653068387438827807,24
653068387446501829,9
653068387454175851,48
653068387461849873,82
653068387469523895,79
653068387477197917,77
653068387484871939,53
653068387492545961,9
653068387500219983,4
653068387507894005,16
653068387515568027,41
653068387523242049,77
653068387530916071,62
653068387538590093,-4
653068387546264115,12
653068387553938137,220
653068387561612159,583
653068387569286181,874
653068387576960203,614
653068387584634225,-92
653068387592308247,-278
653068387599982269,55
653068387607656291,72
653068387615330313,-77
653068387623004335,9
653068387630678357,60
653068387638352379,-36
653068387646026401,-41
653068387653700423,36
653068387661374445,55
653068387669048467,41
653068387676722489,48
653068387684396511,58
653068387692070533,58
653068387699744555,58
653068387707418577,72
653068387715062564,106
653068387722737004,128
653068387730411444,125
653068387738085884,135
653068387745760324,154
653068387753434764,184
653068387761109204,205
653068387768783644,186
653068387776458084,164
653068387784132524,176
653068387791806964,196
653068387799481404,174
653068387807155844,133
653068387814830284,89
653068387822504724,36
653068387830179164,4
653068387837853604,4
653068387845528044,-16
653068387853202484,-41
653068387860876924,-29
653068387868551364,-12
653068387876225804,-31
653068387883900244,-53
653068387891574684,-38
653068387899249124,-29
653068387906923564,-24
653068387914598004,-9
653068387922272444,-12
653068387929946884,-33
653068387937621324,-31
653068387945295764,-12
653068387952970204,-29
653068387960644644,-38
653068387968319084,-14
653068387975993524,-7
653068387983667964,-31
653068387991342404,-48
653068387999016844,-53
653068388006691284,-50
653068388014365724,-53
653068388022040164,-60
653068388029714604,-65
653068388037389044,-70
653068388045063484,-72
653068388052737924,-70
653068388060412364,-67
653068388068086804,-62
653068388075761244,-60
653068388083435684,-65
653068388091110124,-58
653068388098784564,-36
653068388106459004,-9
653068388114133444,-33
653068388121807884,-96
653068388129482324,-108
653068388137156764,-70
653068388144831204,-43
653068388152505644,-55
653068388160180084,-60
653068388167854524,-60
653068388175528964,-87
653068388183203404,-50
653068388190877844,193
653068388198552284,593
653068388206226724,757
653068388213901164,292
653068388221575604,-305
653068388229250044,-256
653068388236924484,9
653068388244598924,-77
653068388252273364,-169
653068388259947804,-89
653068388267622244,-79
653068388275326845,-111
653068388283000867,-82
653068388290674889,-60
653068388298348911,-60
653068388306022933,-38
653068388313696955,-16
653068388321370977,-38
653068388329044999,-77
653068388336719021,-79
653068388344393043,-26
653068388352067065,14
653068388359741087,-4
653068388367415109,-14
653068388375089131,24
653068388382763153,43
653068388390437175,41
653068388398111197,72
653068388405785219,89
653068388413459241,62
653068388421133263,58
653068388428807285,72
653068388436481307,46
653068388444155329,12
653068388451829351,-14
653068388459503373,-55
653068388467177395,-77
653068388474851417,-72
653068388482525439,-87
653068388490199461,-101
653068388497873483,-104
653068388505547505,-113
653068388513221527,-118
653068388520895549,-116
653068388528569571,-84
653068388536243593,-70
653068388543917615,-89
653068388551591637,-87
653068388559265659,-72
653068388566939681,-77
653068388574613703,-55
653068388582287725,-36
653068388589961747,-53
653068388597635769,-60
653068388605309791,-46
653068388612983813,-55
653068388620657835,-72
653068388628331857,-53
653068388636005879,-53
653068388643679901,-79
653068388651353923,-55
653068388659027945,-38
653068388666701967,-70
653068388674375989,-60
653068388682050011,-50
653068388689724033,-87
653068388697398055,-84
653068388705072077,-58
653068388712746099,-38
653068388720420121,-14
653068388728094143,-14
653068388735768165,-60
653068388743442187,-96
653068388751116209,-82
653068388758790231,-46
653068388766464253,-48
653068388774138275,-70
653068388781812297,-43
653068388789486319,-31
653068388797160341,-79
653068388804834363,16
653068388812508385,394
653068388820182407,772
653068388827856429,653
653068388835500416,-4
653068388843174856,-382
653068388850849296,-140
653068388858523736,-4
653068388866198176,-145
653068388873872616,-140
653068388881547056,-70
653068388889221496,-92
653068388896895936,-96
653068388904570376,-72
653068388912244816,-82
653068388919919256,-89
653068388927593696,-75
653068388935268136,-67
653068388942942576,-58
653068388950617016,-36
653068388958291456,-24
653068388965965896,-31
653068388973640336,-16
653068388981314776,12
653068388988989216,9
653068388996663656,21
653068389004338096,55
653068389012012536,55
653068389019686976,65
653068389027361416,94
653068389035035856,48
653068389042710296,9
653068389050384736,46
653068389058059176,38
653068389065733616,-12
653068389073408056,-33
653068389081082496,-60
653068389088756936,-79
653068389096431376,-99
653068389104105816,-138
653068389111780256,-147
653068389119454696,-130
653068389127129136,-130
653068389134803576,-116
653068389142478016,-82
653068389150152456,-70
653068389157826896,-72
653068389165501336,-58
653068389173175776,-36
653068389180850216,-53
653068389188524656,-89
653068389196199096,-62
653068389203873536,-58
653068389211547976,-113
653068389219222416,-46
653068389226896856,21
653068389234571296,-67
653068389242245736,-89
653068389249920176,-31
653068389257594616,-33
653068389265269056,0
653068389272943496,33
653068389280617936,-41
653068389288292376,-113
653068389295966816,-96
653068389303641256,-9
653068389311315696,55
653068389318990136,-9
653068389326664576,-41
653068389334339016,55
653068389342013456,7
653068389349687896,-135
653068389357362336,-99
653068389365036776,-31
653068389372711216,-55
653068389380385656,-7
653068389388060096,41
653068389395764697,-31
653068389403438719,-113
653068389411112741,14
653068389418786763,409
653068389426460785,779
653068389434134807,687
653068389441808829,75
653068389449482851,-314
653068389457156873,-128
653068389464830895,0
653068389472504917,-118
653068389480178939,-145
653068389487852961,-75
653068389495526983,-41
653068389503201005,-46
653068389510875027,-48
653068389518549049,-62
653068389526223071,-65
653068389533897093,-2
653068389541571115,58
653068389549245137,14
653068389556919159,-38
653068389564593181,36
653068389572267203,111
653068389579941225,46
653068389587615247,-29
653068389595289269,70
653068389602963291,196
653068389610637313,150
653068389618311335,84
653068389625985357,138
653068389633659379,159
653068389641333401,67
653068389649007423,60
653068389656681445,174
653068389664355467,138
653068389672029489,2
653068389679703511,-31
653068389687377533,-21
653068389695051555,-24
653068389702725577,-36
653068389710399599,-82
653068389718073621,-101
653068389725747643,-87
653068389733421665,-99
653068389741095687,-82
653068389748769709,-58
653068389756443731,-111
653068389764117753,-104
653068389771791775,-2
653068389779465797,-12
653068389787139819,-87
653068389794813841,-77
653068389802487863,-43
653068389810161885,-50
653068389817835907,-58
653068389825509929,-24
653068389833183951,-9
653068389840857973,-19
653068389848531995,-4
653068389856206017,-24
653068389863880039,-58
653068389871554061,-29
653068389879228083,-19
653068389886902105,-55
653068389894576127,-36
653068389902250149,12
653068389909924171,19
653068389917598193,-50
653068389925272215,-125
653068389932946237,-9
653068389940620259,123
653068389948294281,-2
653068389955938268,-140
653068389963612708,-55
653068389971287148,26
653068389978961588,-12
653068389986636028,-16
653068389994310468,-29
653068390001984908,-58
653068390009659348,62
653068390017333788,99
653068390025008228,60
653068390032682668,358
653068390040357108,782
653068390048031548,811
653068390055705988,244
653068390063380428,-271
653068390071054868,-130
653068390078729308,53
653068390086403748,-7
653068390094078188,-16
653068390101752628,-84
653068390109427068,-113
653068390117101508,7
653068390124775948,55
653068390132450388,-7
653068390140124828,-24
653068390147799268,21
653068390155473708,31
653068390163148148,46
653068390170822588,60
653068390178497028,65
653068390186171468,150
653068390193845908,210
653068390201520348,142
653068390209194788,125
653068390216869228,232
653068390224543668,300
653068390232218108,230
653068390239892548,193
653068390247566988,351
653068390255241428,476
653068390262915868,317
653068390270590308,130
653068390278264748,251
653068390285939188,343
653068390293613628,198
653068390301288068,111
653068390308962508,108
653068390316636948,62
653068390324311388,2
653068390331985828,58
653068390339660268,121
653068390347334708,-21
653068390355009148,-65
653068390362683588,43
653068390370358028,-12
653068390378032468,-77
653068390385706908,-31
653068390393381348,-21
653068390401055788,-19
653068390408730228,60
653068390416404668,72
653068390424079108,-75
653068390431753548,-92
653068390439427988,19
653068390447102428,-65
653068390454776868,-138
653068390462451308,-135
653068390470125748,-140
653068390477800188,-50
653068390485474628,-150
653068390493149068,-220
653068390500823508,-38
653068390508497948,-14
653068390516182461,-79
653068390523856762,-29
653068390531531063,7
653068390539205364,2
653068390546879665,2
653068390554553966,14
653068390562228267,101
653068390569902568,123
653068390577576869,14
653068390585251170,48
653068390592925471,157
653068390600599772,135
653068390608274073,101
653068390615948374,142
653068390623622675,154
653068390631296976,104
653068390638971277,191
653068390646645578,542
653068390654319879,961
653068390661994180,978
653068390669668481,365
653068390677342782,-176
653068390685017083,-70
653068390692691384,108
653068390700365685,72
653068390708039986,72
653068390715714287,9
653068390723388588,-48
653068390731062889,72
653068390738737190,99
653068390746411491,-38
653068390754085792,-14
653068390761760093,104
653068390769434394,46
653068390777108695,-79
653068390784782996,-36
653068390792457297,46
653068390800131598,-24
653068390807805899,-67
653068390815480200,2
653068390823154501,9
653068390830828802,-21
653068390838503103,19
653068390846177404,7
653068390853851705,-53
653068390861526006,-46
653068390869200307,-48
653068390876874608,-87
653068390884548909,-101
653068390892223210,-108
653068390899897511,-118
653068390907571812,-186
653068390915246113,-290
653068390922920414,-302
653068390930594715,-290
653068390938269016,-343
653068390945943317,-329
653068390953617618,-271
653068390961291919,-283
653068390968966220,-331
653068390976640521,-365
653068390984314822,-324
653068390991989123,-263
653068390999663424,-297
653068391007337725,-317
653068391015012026,-292
653068391022686327,-273
653068391030360628,-234
653068391038034929,-220
653068391045709230,-227
653068391053383531,-191
653068391061057832,-116
653068391068732133,-101
653068391076416480,-171
653068391084090642,-184
653068391091764804,-167
653068391099438966,-220
653068391107113128,-186
653068391114787290,-94
653068391122461452,-142
653068391130135614,-191
653068391137809776,-130
653068391145483938,-116
653068391153158100,-128
653068391160832262,-108
653068391168506424,-145
653068391176180586,-171
653068391183854748,-50
653068391191528910,33
653068391199203072,-58
653068391206877234,-96
653068391214551396,-24
653068391222225558,4
653068391229899720,-29
653068391237573882,43
653068391245248044,360
653068391252922206,755
653068391260596368,714
653068391268270530,82
653068391275944692,-302
653068391283618854,-77
653068391291293016,36
653068391298967178,-106
653068391306641340,-96
653068391314315502,-29
653068391321989664,-70
653068391329663826,-48
653068391337337988,38
653068391345012150,-24
653068391352686312,-133
653068391360360474,-72
653068391368034636,14
653068391375708798,0
653068391383382960,21
653068391391057122,7
653068391398731284,-36
653068391406405446,94
653068391414079608,157
653068391421753770,41
653068391429427932,77
653068391437102094,171
653068391444776256,128
653068391452450418,87
653068391460124580,84
653068391467798742,159
653068391475472904,237
653068391483147066,111
653068391490821228,-16
653068391498495390,24
653068391506169552,79
653068391513843714,31
653068391521517876,-53
653068391529192038,-4
653068391536866200,48
653068391544540362,-75
653068391552214524,-176
653068391559888686,-118
653068391567562848,-19
653068391575237010,19
653068391582911172,-72
653068391590585334,-118
653068391598259496,2
653068391605933658,-2
653068391613607820,-75
653068391621281982,12
653068391628956144,2
653068391636610305,-70
653068391644284745,58
653068391651959185,65
653068391659633625,-96
653068391667308065,7
653068391674982505,152
653068391682656945,67
653068391690331385,-7
653068391698005825,29
653068391705680265,79
653068391713354705,101
653068391721029145,130
653068391728703585,133
653068391736378025,113
653068391744052465,150
653068391751726905,130
653068391759401345,75
653068391767075785,123
653068391774750225,159
653068391782424665,121
653068391790099105,167
653068391797773545,167
653068391805447985,7
653068391813122425,0
653068391820796865,276
653068391828471305,593
653068391836145745,837
653068391843820185,782
653068391851494625,198
653068391859169065,-249
653068391866843505,-4
653068391874517945,152
653068391882192385,-79
653068391889866825,-92
653068391897541265,38
653068391905215705,0
653068391912890145,-118
653068391920564585,-152
653068391928239025,-7
653068391935913465,60
653068391943587905,-138
653068391951262345,-196
653068391958936785,-75
653068391966611225,-147
653068391974285665,-220
653068391981960105,-77
653068391989634545,12
653068391997308985,-79
653068392004983425,-147
653068392012657865,-152
653068392020332305,-33
653068392028006745,154
653068392035681185,77
653068392043355625,-36
653068392051030065,75
653068392058704505,96
653068392066378945,21
653068392074053385,53
653068392081727825,46
653068392089402265,24
653068392097076705,104
653068392104751145,101
653068392112425585,-9
653068392120100025,2
653068392127774465,92
653068392135448905,99
653068392143123345,43
653068392150797785,70
653068392158472225,188
653068392166146665,179
653068392173821105,79
653068392181495545,154
653068392189169985,319
653068392196844490,297
653068392204518930,186
653068392212193370,210
653068392219867810,254
653068392227542250,220
653068392235216690,234
653068392242891130,261
653068392250565570,232
653068392258240010,230
653068392265914450,234
653068392273588890,239
653068392281263330,271
653068392288937770,266
653068392296612210,227
653068392304286650,234
653068392311961090,263
653068392319635530,246
653068392327309970,222
653068392334984410,215
653068392342658850,188
653068392350333290,184
653068392358007730,203
653068392365682170,184
653068392373356610,181
653068392381031050,225
653068392388705490,230
653068392396379930,193
653068392404054370,191
653068392411728810,334
653068392419403250,719
653068392427077690,1152
653068392434752130,1055
653068392442426570,341
653068392450101010,-53
653068392457775450,230
653068392465449890,382
653068392473124330,268
653068392480798770,307
653068392488473210,370
653068392496147650,326
653068392503822090,324
653068392511496530,346
653068392519170970,331
653068392526845410,401
653068392534519850,452
653068392542194290,389
653068392549868730,397
653068392557543170,423
653068392565217610,372
653068392572892050,433
653068392580566490,520
653068392588240930,460
653068392595915370,445
653068392603589810,544
653068392611264250,542
653068392618938690,518
653068392626613130,590
653068392634287570,576
653068392641962010,530
653068392649636450,593
653068392657310890,566
653068392664985330,447
653068392672659770,430
653068392680334210,397
653068392688008650,288
653068392695683090,292
653068392703357530,346
653068392711031970,297
653068392718706410,251
653068392726380850,242
653068392734055290,217
653068392741729730,237
653068392749404170,256
653068392757108771,246
653068392764782793,261
653068392772456815,263
653068392780130837,222
653068392787804859,169
653068392795478881,174
653068392803152903,237
653068392810826925,217
653068392818500947,152
653068392826174969,176
653068392833848991,164
653068392841523013,140
653068392849197035,249
653068392856871057,246
653068392864545079,125
653068392872219101,181
653068392879893123,200
653068392887567145,101
653068392895241167,164
653068392902915189,196
653068392910589211,87
653068392918263233,106
653068392925937255,104
653068392933611277,75
653068392941285299,181
653068392948959321,138
653068392956633343,24
653068392964307365,101
653068392971981387,106
653068392979655409,7
653068392987329431,-29
653068392995003453,-53
653068393002677475,-33
653068393010351497,14
653068393018025519,29
653068393025699541,116
653068393033373563,365
653068393041047585,631
653068393048721607,559
653068393056395629,-36
653068393064069651,-481
653068393071743673,-261
653068393079417695,-46
653068393087091717,-273
653068393094765739,-430
653068393102439761,-268
653068393110113783,-227
653068393117787805,-331
653068393125461827,-266
653068393133135849,-261
653068393140809871,-358
653068393148483893,-239
653068393156157915,-87
653068393163831937,-176
653068393171505959,-292
653068393179179981,-169
653068393186854003,9
653068393194528025,-46
653068393202202047,-181
653068393209876069,-99
653068393217550091,46
653068393225224113,7
653068393232898135,-50
653068393240572157,7
653068393248246179,65
653068393255920201,24
653068393263594223,-12
653068393271268245,33
653068393278942267,16
653068393286616289,-62
653068393294290311,-53
653068393301964333,-65
653068393309638355,-164
653068393317282338,-138
653068393324956778,-53
653068393332631218,-82
653068393340305658,-118
653068393347980098,-55
653068393355654538,14
653068393363328978,-4
653068393371003418,-9
653068393378677858,14
653068393386352298,-26
653068393394026738,-26
653068393401701178,7
653068393409375618,-60
653068393417050058,-77
653068393424724498,-16
653068393432398938,-41
653068393440073378,-79
653068393447747818,-92
653068393455422258,-128
653068393463096698,-77
653068393470771138,-48
653068393478445578,-138
653068393486120018,-87
653068393493794458,-33
653068393501468898,-108
653068393509143338,-92
653068393516817778,-70
653068393524492218,-65
653068393532166658,0
653068393539841098,-21
653068393547515538,-118
653068393555189978,-154
653068393562864418,-104
653068393570538858,-38
653068393578213298,-43
653068393585887738,-94
653068393593562178,-130
653068393601236618,-106
653068393608911058,87
653068393616585498,474
653068393624259938,786
653068393631934378,568
653068393639608818,-94
653068393647283258,-380
653068393654957698,-116
653068393662632138,-41
653068393670306578,-188
653068393677981018,-133
653068393685655458,-58
653068393693329898,-188
653068393701004338,-217
653068393708678778,-79
653068393716353218,-113
653068393724027658,-181
653068393731702098,-94
653068393739376538,-79
653068393747050978,-133
653068393754725418,-108
653068393762399858,-108
653068393770074298,-145
653068393777748738,-116
653068393785423178,-55
653068393793097618,-70
653068393800772058,-106
653068393808446498,-43
653068393816120938,-7
653068393823795378,-58
653068393831469818,-53
653068393839144258,-48
653068393846818698,-84
653068393854493138,-89
653068393862167578,-106
653068393869842018,-135
653068393877516527,-130
653068393885190967,-176
653068393892865407,-244
653068393900539847,-244
653068393908214287,-249
653068393915888727,-230
653068393923563167,-171
653068393931237607,-208
653068393938912047,-256
653068393946586487,-186
653068393954260927,-147
653068393961935367,-213
653068393969609807,-174
653068393977284247,-65
653068393984958687,-113
653068393992633127,-200
653068394000307567,-108
653068394007982007,-9
653068394015656447,-79
653068394023330887,-138
653068394031005327,-104
653068394038679767,-99
653068394046354207,-92
653068394054028647,-82
653068394061703087,-125
653068394069377527,-113
653068394077051967,-79
653068394084726407,-106
653068394092400847,-106
653068394100075287,-72
653068394107749727,-77
653068394115424167,-75
653068394123098607,-38
653068394130773047,-29
653068394138447487,-82
653068394146121927,-118
653068394153796367,-38
653068394161470807,55
653068394169145247,-24
653068394176819687,-121
653068394184494127,106
653068394192168567,532
653068394199843007,772
653068394207517447,556
653068394215191887,-33
653068394222866327,-326
653068394230540767,-121
653068394238215207,0
653068394245889647,-75
653068394253564087,-101
653068394261238527,-116
653068394268912967,-140
653068394276587407,-111
653068394284261847,-92
653068394291936287,-104
653068394299610727,-140
653068394307285167,-193
653068394314959607,-133
653068394322634047,24
653068394330308487,33
653068394337982927,-113
653068394345657367,-154
653068394353331807,-58
653068394361006247,-19
653068394368680687,-50
653068394376355127,-7
653068394384029567,58
653068394391704007,-12
653068394399378447,-31
653068394407052887,77
653068394414727327,14
653068394422401767,-60
653068394430076207,84
653068394437765760,87
653068394445439991,-123
653068394453114222,-174
653068394460788453,-84
653068394468462684,-123
653068394476136915,-205
653068394483811146,-181
653068394491485377,-138
653068394499159608,-193
653068394506833839,-249
653068394514508070,-123
653068394522182301,-41
653068394529856532,-167
653068394537530763,-188
653068394545204994,-111
653068394552879225,-162
653068394560553456,-167
653068394568227687,-77
653068394575901918,-75
653068394583576149,-135
653068394591250380,-135
653068394598924611,-89
653068394606598842,-116
653068394614273073,-157
653068394621947304,-82
653068394629621535,-70
653068394637295766,-135
653068394644969997,-84
653068394652644228,-46
653068394660318459,-48
653068394667992690,-21
653068394675666921,-16
653068394683341152,36
653068394691015383,65
653068394698689614,-4
653068394706363845,7
653068394714038076,55
653068394721712307,38
653068394729386538,60
653068394737060769,60
6.53068E+17,21
653068394752409231,77
653068394760083462,176
653068394767757693,348
653068394775431924,782
653068394783106155,1016
653068394790780386,416
653068394798454617,-237
653068394806128848,-75
653068394813803079,176
653068394821477310,12
653068394829151541,26
653068394836825772,123
653068394844500003,-79
653068394852174234,-111
653068394859848465,87
653068394867522696,87
653068394875196927,-31
653068394882871158,-89
653068394890545389,7
653068394898219620,41
653068394905893851,-116
653068394913568082,-58
653068394921242313,0
653068394928916544,-140
653068394936590775,-77
653068394944265006,-7
653068394951939237,-113
653068394959613468,-75
653068394967287699,46
653068394974961930,-16
653068394982636161,-55
653068394990310392,94
653068394997984684,174
653068395005658915,96
653068395013333146,72
653068395021007377,111
653068395028681608,58
653068395036355839,46
653068395044030070,159
653068395051704301,150
653068395059378532,70
653068395067052763,72
653068395074726994,75
653068395082401225,162
653068395090075456,285
653068395097749687,256
653068395105423918,203
653068395113098149,213
653068395120772380,217
653068395128446611,217
653068395136120842,220
653068395143795073,261
653068395151469304,295
653068395159143535,278
653068395166817766,292
653068395174491997,331
653068395182166228,309
653068395189840459,273
653068395197514690,280
653068395205188921,290
653068395212863152,280
653068395220537383,249
653068395228211614,222
653068395235885845,244
653068395243560076,249
653068395251234307,244
653068395258908538,276
653068395266582769,251
6.53068E+17,188
653068395281931231,186
653068395289605462,215
653068395297279693,198
653068395304953924,176
653068395312628155,193
653068395320302386,198
653068395327976617,154
653068395335650848,111
653068395343325079,217
653068395350999310,595
653068395358673541,1009
653068395366347772,861
653068395374022003,145
653068395381696234,-184
653068395389370465,79
653068395397044696,174
653068395404718927,41
653068395412393158,24
653068395420067389,101
653068395427741620,116
653068395435415851,46
653068395443090082,36
653068395450764313,108
653068395458438544,123
653068395466112775,77
653068395473787006,79
653068395481461237,84
653068395489135468,75
653068395496809699,140
653068395504483930,213
653068395512158161,191
653068395519832392,171
653068395527506623,210
653068395535180854,230
653068395542855085,271
653068395550529316,312
653068395558218660,251
653068395565892682,244
653068395573566704,380
653068395581240726,353
653068395588914748,174
653068395596588770,186
653068395604262792,268
653068395611936814,193
653068395619610836,167
653068395627284858,217
653068395634958880,113
653068395642632902,53
653068395650306924,145
653068395657980946,128
653068395665654968,43
653068395673328990,113
653068395681003012,193
653068395688677034,101
653068395696351056,50
653068395704025078,101
653068395711699100,67
653068395719373122,4
653068395727047144,-26
653068395734721166,-29
653068395742395188,-14
653068395750069210,-46
653068395757743232,-79
653068395765417254,-38
653068395773091276,-41
653068395780765298,-142
653068395788439320,-169
653068395796113342,-116
653068395803787364,-154
653068395811461386,-200
653068395819135408,-222
653068395826809430,-290
653068395834483452,-230
653068395842157474,-133
653068395849831496,-263
653068395857505518,-307
653068395865179540,-186
653068395872853562,-203
653068395880527584,-273
653068395888201606,-285
653068395895875628,-254
653068395903549650,-256
653068395911223672,-292
653068395918897694,-225
653068395926571716,-242
653068395934245738,-370
653068395941919760,-261
653068395949593782,19
653068395957267804,319
653068395964941826,566
653068395972615848,215
653068395980289870,-484
653068395987963892,-469
653068395995637914,-123
653068396003311936,-317
653068396010985958,-508
653068396018659980,-285
653068396026334002,-234
653068396034008024,-384
653068396041682046,-319
653068396049356068,-271
653068396057030090,-380
653068396064704112,-312
653068396072378134,-196
653068396080052156,-290
653068396087726178,-317
653068396095400200,-198
653068396103074222,-222
653068396110748244,-259
653068396118392231,-171
653068396126066671,-147
653068396133741111,-145
653068396141415551,-108
653068396149089991,-108
653068396156764431,-84
653068396164438871,14
653068396172113311,53
653068396179787751,-33
653068396187462191,-41
653068396195136631,9
653068396202811071,-58
653068396210485511,-62
653068396218159951,-4
653068396225834391,-87
653068396233508831,-133
653068396241183271,-62
653068396248857711,-62
653068396256532151,-133
653068396264206591,-176
653068396271881031,-123
653068396279555471,-79
653068396287229911,-116
653068396294904351,-111
653068396302578791,-29
653068396310253231,-12
653068396317927671,-104
653068396325602111,-111
653068396333276551,-4
653068396340950991,-38
653068396348625431,-133
653068396356299871,-36
653068396363974311,38
653068396371648751,-33
653068396379323191,-79
653068396386997631,-92
653068396394672071,-101
653068396402346511,-138
653068396410020951,-116
653068396417695391,-65
653068396425369831,-135
653068396433044271,-188
653068396440718711,-174
653068396448393151,-121
653068396456067591,-118
653068396463742031,-246
653068396471416471,-237
653068396479090911,-70
653068396486765351,-67
653068396494439791,-225
653068396502114231,-237
653068396509788671,16
653068396517463111,392
653068396525137551,697
653068396532811991,522
653068396540486431,-200
653068396548160871,-554
653068396555835311,-222
653068396563509751,-62
653068396571184191,-210
653068396578858631,-210
653068396586533071,-171
653068396594207511,-210
653068396601881951,-157
653068396609556391,-75
653068396617230831,-111
653068396624905271,-167
653068396632579711,-140
653068396640254151,-140
653068396647928591,-184
653068396655603031,-89
653068396663277471,2
653068396670951911,-145
653068396678656512,-220
653068396686330534,-55
653068396694004556,-29
653068396701678578,-128
653068396709352600,-53
653068396717026622,24
653068396724700644,-67
653068396732374666,-92
653068396740048688,-19
653068396747722710,-24
653068396755396732,-38
653068396763070754,-70
653068396770744776,-188
653068396778418798,-200
653068396786092820,-104
653068396793766842,-128
653068396801440864,-200
653068396809114886,-169
653068396816788908,-138
653068396824462930,-152
653068396832136952,-159
653068396839810974,-130
653068396847484996,-79
653068396855159018,-99
653068396862833040,-104
653068396870507062,-19
653068396878181084,-31
653068396885855106,-142
653068396893529128,-147
653068396901203150,-48
653068396908877172,-16
653068396916551194,-82
653068396924225216,-99
653068396931899238,-87
653068396939573260,-94
653068396947247282,-43
653068396954921304,-33
653068396962595326,-113
653068396970269348,-108
653068396977943370,-48
653068396985617392,-65
653068396993291414,-111
653068397000965436,-48
653068397008639458,38
653068397016313480,-53
653068397023987502,-113
653068397031661524,14
653068397039335546,48
653068397047009568,-41
653068397054683590,-43
653068397062357612,-7
653068397070031634,53
653068397077705656,278
653068397085379678,675
653068397093053700,883
653068397100727722,360
653068397108401744,-283
653068397116075766,-123
653068397123749788,147
653068397131423810,-46
653068397139097832,-125
653068397146771854,-2
653068397154445876,2
653068397162119898,-36
653068397169793920,-24
653068397177467942,0
653068397185141964,-7
653068397192815986,2
653068397200490008,50
653068397208164030,9
653068397215838052,-62
653068397223512074,-7
653068397231186096,75
653068397238830083,48
653068397246504523,-7
653068397254178963,4
653068397261853403,16
653068397269527843,16
653068397277202283,62
653068397284876723,92
653068397292551163,65
653068397300225603,67
653068397307900043,75
653068397315574483,16
653068397323248923,-29
653068397330923363,-2
653068397338597803,-14
653068397346272243,-87
653068397353946683,-82
653068397361621123,-33
653068397369295563,-43
653068397376970003,-77
653068397384644443,-92
653068397392318883,-92
653068397399993323,-96
653068397407667763,-101
653068397415342203,-84
653068397423016643,-36
653068397430691083,-38
653068397438365523,-99
653068397446039963,-94
653068397453714403,-38
653068397461388843,-41
653068397469063283,-75
653068397476737723,-84
653068397484412163,-92
653068397492086603,-67
653068397499761043,-46
653068397507435483,-75
653068397515109923,-70
653068397522784363,-24
653068397530458803,-41
653068397538133243,-67
653068397545807683,-43
653068397553482123,-33
653068397561156563,-24
653068397568831003,-29
653068397576505443,-65
653068397584179883,-70
653068397591854323,-60
653068397599528763,-58
653068397607203203,-29
653068397614877643,-7
653068397622552083,-38
653068397630226523,2
653068397637900963,239
653068397645575403,598
653068397653249843,733
653068397660924283,263
653068397668598723,-290
653068397676273163,-157
653068397683947603,84
653068397691622043,-84
653068397699296483,-125
653068397706970923,29
653068397714645363,7
653068397722319803,-65
653068397729994243,-24
653068397737668683,-9
653068397745343123,-46
653068397753017563,-14
653068397760692003,36
653068397768366443,9
653068397776040883,2
653068397783715323,48
653068397791389763,46
653068397799064268,41
653068397806738708,70
653068397814413148,67
653068397822087588,84
653068397829762028,142
653068397837436468,145
653068397845110908,128
653068397852785348,123
653068397860459788,89
653068397868134228,70
653068397875808668,75
653068397883483108,55
653068397891157548,19
653068397898831988,-7
653068397906506428,-29
653068397914180868,-58
653068397921855308,-70
653068397929529748,-67
653068397937204188,-87
653068397944878628,-118
653068397952553068,-118
653068397960227508,-116
653068397967901948,-152
653068397975576388,-167
653068397983250828,-150
653068397990925268,-159
653068397998599708,-174
653068398006274148,-147
653068398013948588,-111
653068398021623028,-106
653068398029297468,-121
653068398036971908,-111
653068398044646348,-75
653068398052320788,-43
653068398059995228,-26
653068398067669668,-24
653068398075344108,-9
653068398083018548,36
653068398090692988,82
653068398098367428,99
653068398106041868,125
653068398113716308,162
653068398121390748,179
653068398129065188,186
653068398136739628,227
653068398144414068,297
653068398152088508,341
653068398159762948,382
653068398167437388,447
653068398175111828,481
653068398182786268,496
653068398190460708,653
653068398198135148,1079
653068398205809588,1518
653068398213484028,1380
653068398221158468,702
653068398228832908,433
653068398236507348,743
653068398244181788,842
653068398251856228,731
653068398259530668,808
653068398267205108,888
653068398274879548,832
653068398282553988,796
653068398290228428,784
653068398297902868,745
653068398305577308,704
653068398313251748,658
653068398320926188,627
653068398328600628,600
653068398336275068,549
653068398343949508,522
653068398351623948,518
653068398359298453,486
653068398366972893,472
653068398374647333,489
653068398382321773,455
653068398389996213,416
653068398397670653,460
653068398405345093,503
653068398413019533,464
653068398420693973,435
653068398428368413,428
653068398436042853,368
653068398443717293,288
653068398451391733,232
653068398459066173,174
653068398466740613,191
653068398474415053,225
653068398482089493,92
653068398489763933,0
653068398497438373,106
653068398505112813,159
653068398512787253,99
653068398520461693,55
653068398528136133,-24
653068398535810573,-84
653068398543485013,-48
653068398551159453,-77
653068398558833893,-150
653068398566508333,-96
653068398574182773,-96
653068398581857213,-263
653068398589531653,-314
653068398597206093,-230
653068398604880533,-268
653068398612554973,-389
653068398620229413,-399
653068398627903853,-348
653068398635578293,-355
653068398643252733,-372
653068398650927173,-370
653068398658601613,-358
653068398666276053,-331
653068398673950493,-341
653068398681624933,-365
653068398689299373,-380
653068398696973813,-389
653068398704648253,-336
653068398712322693,-276
653068398719997133,-300
653068398727671573,-358
653068398735346013,-370
653068398743020453,-234
653068398750694893,106
653068398758369333,496
653068398766043773,426
653068398773718213,-263
653068398781392653,-629
653068398789067093,-302
653068398796741533,-191
653068398804415973,-375
653068398812090413,-309
653068398819764853,-193
653068398827439293,-249
653068398835113733,-283
653068398842788173,-227
653068398850462613,-208
653068398858137053,-217
653068398865811493,-167
653068398873485933,-138
653068398881160373,-169
653068398888834813,-162
653068398896509253,-142
653068398904183693,-152
653068398911858133,-147
653068398919562734,-113
653068398927236756,-89
653068398934910778,-75
653068398942584800,-21
653068398950258822,7
653068398957932844,-43
653068398965606866,-94
653068398973280888,-101
653068398980954910,-89
653068398988628932,-92
653068398996302954,-121
653068399003976976,-150
653068399011650998,-164
653068399019325020,-186
653068399026999042,-222
653068399034673064,-208
653068399042347086,-169
653068399050021108,-242
653068399057695130,-297
653068399065369152,-217
653068399073043174,-179
653068399080717196,-237
653068399088391218,-237
653068399096065240,-179
653068399103739262,-176
653068399111413284,-215
653068399119087306,-220
653068399126761328,-213
653068399134435350,-220
653068399142109372,-227
653068399149783394,-227
653068399157457416,-222
653068399165131438,-222
653068399172805460,-208
653068399180479482,-174
653068399188153504,-157
653068399195827526,-159
653068399203501548,-193
653068399211175570,-234
653068399218849592,-208
653068399226523614,-128
653068399234197636,-77
653068399241871658,-72
653068399249545680,-101
653068399257219702,-121
653068399264893724,-128
653068399272567746,-157
653068399280241768,-60
653068399287915790,295
653068399295589812,644
653068399303263834,472
653068399310937856,-169
653068399318611878,-445
653068399326285900,-179
653068399333959922,-101
653068399341633944,-242
653068399349307966,-198
653068399356981988,-130
653068399364656010,-198
653068399372330032,-220
653068399380004054,-157
653068399387678076,-154
653068399395352098,-191
653068399403026120,-157
653068399410700142,-130
653068399418374164,-157
653068399426048186,-123
653068399433722208,-60
653068399441396230,-77
653068399449070252,-72
653068399456744274,-12
653068399464418296,-16
653068399472092318,-29
653068399479736305,0
653068399487410745,9
653068399495085185,21
653068399502759625,38
653068399510434065,14
653068399518108505,-2
653068399525782945,0
653068399533457385,-29
653068399541131825,-79
653068399548806265,-101
653068399556480705,-101
653068399564155145,-113
653068399571829585,-133
653068399579504025,-140
653068399587178465,-121
653068399594852905,-104
653068399602527345,-101
653068399610201785,-94
653068399617876225,-79
653068399625550665,-43
653068399633225105,-12
653068399640899545,-12
653068399648573985,-16
653068399656248425,-2
653068399663922865,14
653068399671597305,29
653068399679271745,43
653068399686946185,48
653068399694620625,50
653068399702295065,55
653068399709969505,53
653068399717643945,62
653068399725318385,92
653068399732992825,106
653068399740667265,113
653068399748341705,125
653068399756016145,125
653068399763690585,123
653068399771365025,147
653068399779039465,181
653068399786713905,186
653068399794388345,154
653068399802062785,128
653068399809737225,152
653068399817411665,353
653068399825086105,760
653068399832760545,963
653068399840434985,484
653068399848109425,-186
653068399855783865,-179
653068399863458305,79
653068399871132745,-26
653068399878807185,-113
653068399886481625,-19
653068399894156065,-26
653068399901830505,-89
653068399909504945,-75
653068399917179385,-65
653068399924853825,-77
653068399932528265,-43
653068399940202705,-19
653068399947877145,-48
653068399955551585,-53
653068399963226025,-14
653068399970900465,14
653068399978574905,21
653068399986249345,19
653068399993923785,19
653068400001598225,48
653068400009272665,60
653068400016947105,36
653068400024621545,67
653068400032295985,142
653068400039970490,135
653068400047644930,29
653068400055319370,-24
653068400062993810,29
653068400070668250,58
653068400078342690,-4
653068400086017130,-70
653068400093691570,-99
653068400101366010,-108
653068400109040450,-96
653068400116714890,-113
653068400124389330,-130
653068400132063770,-99
653068400139738210,-89
653068400147412650,-125
653068400155087090,-157
653068400162761530,-142
653068400170435970,-99
653068400178110410,-79
653068400185784850,-101
653068400193459290,-145
653068400201133730,-152
653068400208808170,-147
653068400216482610,-174
653068400224157050,-184
653068400231831490,-162
653068400239505930,-176
653068400247180370,-208
653068400254854810,-169
653068400262529250,-113
653068400270203690,-133
653068400277878130,-159
653068400285552570,-159
653068400293227010,-167
653068400300901450,-162
653068400308575890,-154
653068400316250330,-116
653068400323924770,-58
653068400331599210,-99
653068400339273650,-164
653068400346948090,-16
653068400354622530,387
653068400362296970,723
653068400369971410,518
653068400377645850,-89
653068400385320290,-307
653068400392994730,-82
653068400400669170,-33
653068400408343610,-92
653068400416018050,-2
653068400423692490,4
653068400431366930,-77
653068400439041370,-48
653068400446715810,19
653068400454390250,9
653068400462064690,0
653068400469739130,31
653068400477413570,33
653068400485088010,26
653068400492762450,53
653068400500436890,92
653068400508111330,92
653068400515785770,70
653068400523460210,101
653068400531134650,181
653068400538809090,200
653068400546483530,169
653068400554157970,167
653068400561832410,184
653068400569506850,188
653068400577181290,162
653068400584855730,128
653068400592530170,125
653068400600204675,130
653068400607879115,53
653068400615553555,-33
653068400623227995,12
653068400630902435,48
653068400638576875,14
653068400646251315,43
653068400653925755,60
653068400661600195,4
653068400669274635,16
653068400676949075,87
653068400684623515,75
653068400692297955,65
653068400699972395,118
653068400707646835,106
653068400715321275,72
653068400722995715,116
653068400730670155,123
653068400738344595,79
653068400746019035,87
653068400753693475,116
653068400761367915,94
653068400769042355,62
653068400776716795,67
653068400784391235,92
653068400792065675,125
653068400799740115,133
653068400807414555,101
653068400815088995,72
653068400822763435,79
653068400830437875,94
653068400838112315,53
653068400845786755,0
653068400853461195,19
653068400861135635,29
653068400868810075,-58
653068400876484515,-94
653068400884158955,193
653068400891833395,699
653068400899507835,820
653068400907182275,244
653068400914856715,-305
653068400922531155,-184
653068400930205595,16
653068400937880035,-133
653068400945554475,-184
653068400953228915,-41
653068400960903355,-26
653068400968577795,-108
653068400976252235,-72
653068400983926675,9
653068400991601115,-14
653068400999275555,-75
653068401006949995,-70
653068401014624435,-26
653068401022298875,4
653068401029973315,26
653068401037647755,31
653068401045322195,29
653068401052996635,50
653068401060671075,82
653068401068345515,87
653068401076019955,84
653068401083694395,94
653068401091368835,108
653068401099043275,121
653068401106717715,121
653068401114392155,121
653068401122066595,130
653068401129741035,128
653068401137415475,113
653068401145089915,111
653068401152764355,123
653068401160453908,133
653068401168128139,150
653068401175802370,169
653068401183476601,181
653068401191150832,184
653068401198825063,205
653068401206499294,237
653068401214173525,244
653068401221847756,227
653068401229521987,239
653068401237196218,261
653068401244870449,249
653068401252544680,234
653068401260218911,242
653068401267893142,249
653068401275567373,251
653068401283241604,271
653068401290915835,288
653068401298590066,273
653068401306264297,268
653068401313938528,312
653068401321612759,326
653068401329286990,288
653068401336961221,285
653068401344635452,324
653068401352309683,326
653068401359983914,326
653068401367658145,348
653068401375332376,326
653068401383006607,290
653068401390680838,297
653068401398355069,297
653068401406029300,273
653068401413703531,256
653068401421377762,249
653068401429051993,205
653068401436726224,196
653068401444400455,433
653068401452074686,876
653068401459748917,1055
653068401467423148,549
653068401475097379,-121
653068401482771610,-123
653068401490445841,135
653068401498120072,50
653068401505794303,-53
653068401513468534,-48
653068401521142765,-128
653068401528816996,-135
653068401536491227,-29
653068401544165458,-60
653068401551839689,-169
653068401559513920,-162
653068401567188151,-128
653068401574862382,-138
653068401582536613,-145
653068401590210844,-171
653068401597885075,-167
653068401605559306,-116
653068401613233537,-157
653068401620907768,-225
653068401628581999,-150
653068401636256230,-77
653068401643930461,-121
653068401651604692,-130
653068401659278923,-50
653068401666953154,-36
653068401674627385,-128
653068401682301616,-210
653068401689975847,-217
653068401697650078,-196
653068401705324309,-205
653068401712998540,-227
653068401720642736,-251
653068401728317385,-285
653068401735992034,-259
653068401743666683,-210
653068401751341332,-213
653068401759015981,-237
653068401766690630,-266
653068401774365279,-239
653068401782039928,-138
653068401789714577,-125
653068401797389226,-203
653068401805063875,-169
653068401812738524,-138
653068401820413173,-205
653068401828087822,-208
653068401835762471,-159
653068401843437120,-188
653068401851111769,-198
653068401858786418,-111
653068401866461067,-113
653068401874135716,-220
653068401881810365,-220
653068401889485014,-162
653068401897159663,-169
653068401904834312,-171
653068401912508961,-159
653068401920183610,-176
653068401927858259,-169
653068401935532908,-118
653068401943207557,-106
653068401950882206,-171
653068401958556855,-147
653068401966231504,159
653068401973906153,583
653068401981580802,593
653068401989255451,29
653068401996930100,-387
653068402004604749,-208
653068402012279398,-60
653068402019954047,-171
653068402027628696,-142
653068402035303345,-60
653068402042977994,-94
653068402050652643,-106
653068402058327292,-58
653068402066001941,-12
653068402073676590,9
653068402081351239,-24
653068402089025888,-72
653068402096700537,-55
653068402104375186,-9
653068402112049835,9
653068402119724484,12
653068402127399133,21
653068402135073782,21
653068402142748431,41
653068402150423080,111
653068402158097729,133
653068402165772378,75
653068402173447027,38
653068402181121676,53
653068402188796325,82
653068402196470974,106
653068402204145623,79
653068402211820272,24
653068402219494921,-4
653068402227169570,-29
653068402234844219,-48
653068402242518868,-50
653068402250193517,-50
653068402257868166,-62
653068402265542815,-58
653068402273217464,-41
653068402280937326,-62
653068402288611348,-87
653068402296285370,-60
653068402303959392,-36
653068402311633414,-60
653068402319307436,-65
653068402326981458,-43
653068402334655480,-55
653068402342329502,-77
653068402350003524,-87
653068402357677546,-89
653068402365351568,-79
653068402373025590,-75
653068402380699612,-108
653068402388373634,-142
653068402396047656,-104
653068402403721678,-43
653068402411395700,-55
653068402419069722,-94
653068402426743744,-99
653068402434417766,-94
653068402442091788,-99
653068402449765810,-111
653068402457439832,-125
653068402465113854,-106
653068402472787876,-89
653068402480461898,-145
653068402488135920,-89
653068402495809942,300
653068402503483964,723
653068402511157986,566
653068402518832008,-99
653068402526506030,-372
653068402534180052,-118
653068402541854074,-70
653068402549528096,-171
653068402557202118,-75
653068402564876140,-55
653068402572550162,-135
653068402580224184,-72
653068402587898206,-16
653068402595572228,-70
653068402603246250,-79
653068402610920272,-36
653068402618594294,-24
653068402626268316,-41
653068402633942338,-31
653068402641616360,2
653068402649290382,16
653068402656964404,19
653068402664638426,29
653068402672312448,43
653068402679986470,53
653068402687660492,58
653068402695334514,72
653068402703008536,94
653068402710682558,84
653068402718356580,70
653068402726030602,77
653068402733704624,60
653068402741378646,-2
653068402749052668,-36
653068402756726690,-29
653068402764400712,-38
653068402772074734,-67
653068402779748756,-62
653068402787422778,-36
653068402795096800,-24
653068402802770822,-14
653068402810444844,-4
653068402818118866,4
653068402825792888,2
653068402833466910,-4
653068402841110897,9
653068402848785337,36
653068402856459777,26
653068402864134217,-12
653068402871808657,-19
653068402879483097,2
653068402887157537,9
653068402894831977,-2
653068402902506417,-12
653068402910180857,-2
653068402917855297,21
653068402925529737,43
653068402933204177,70
653068402940878617,108
653068402948553057,150
653068402956227497,140
653068402963901937,96
653068402971576377,123
653068402979250817,191
653068402986925257,188
653068402994599697,171
653068403002274137,188
653068403009948577,225
653068403017623017,414
653068403025297457,842
653068403032971897,1091
653068403040646337,585
653068403048320777,-140
653068403055995217,-121
653068403063669657,154
653068403071344097,14
653068403079018537,-104
653068403086692977,2
653068403094367417,46
653068403102041857,19
653068403109716297,19
653068403117390737,-7
653068403125065177,-50
653068403132739617,-65
653068403140414057,-77
653068403148088497,-111
653068403155762937,-130
653068403163437377,-121
653068403171111817,-82
653068403178786257,-29
653068403186460697,-19
653068403194135137,-24
653068403201809577,-24
653068403209484017,-33
653068403217158457,-12
653068403224832897,24
653068403232507337,36
653068403240181777,12
653068403247856217,-2
653068403255530657,24
653068403263205097,31
653068403270879537,-19
653068403278553977,-89
653068403286228417,-87
653068403293902857,-14
653068403301577297,-65
653068403309251737,-188
653068403316926177,-154
653068403324600617,-70
653068403332275057,-94
653068403339949497,-101
653068403347623937,-38
653068403355298377,-38
653068403362972817,-70
653068403370647257,-43
653068403378321697,-24
653068403385996137,-31
653068403393670577,7
653068403401345082,26
653068403409019522,-36
653068403416693962,-67
653068403424368402,-33
653068403432042842,-29
653068403439717282,-29
653068403447391722,0
653068403455066162,-4
653068403462740602,4
653068403470415042,67
653068403478089482,84
653068403485763922,50
653068403493438362,58
653068403501112802,60
653068403508787242,29
653068403516461682,33
653068403524136122,48
653068403531810562,19
653068403539485002,31
653068403547159442,261
653068403554833882,716
653068403562508322,975
653068403570182762,561
653068403577857202,-108
653068403585531642,-164
653068403593206082,108
653068403600880522,67
653068403608554962,-16
653068403616229402,24
653068403623903842,-2
653068403631578282,-12
653068403639252722,31
653068403646927162,21
653068403654601602,-4
653068403662276042,7
653068403669950482,19
653068403677624922,2
653068403685299362,-9
653068403692973802,24
653068403700648242,67
