timestamp,ecg
653330117547995998,14752
653330117555670787,14652
653330117563345576,14587
653330117571020365,14531
653330117578695154,14441
653330117586369943,14378
653330117594044732,14329
653330117601719521,14266
653330117609394310,14201
653330117617069099,14111
653330117624743888,13999
653330117632418677,13909
653330117640093466,13839
653330117647768255,13761
653330117655443044,13681
653330117663117833,13613
653330117670792622,13542
653330117678467411,13423
653330117686142200,13285
653330117693816989,13195
653330117701491778,13256
653330117709166567,13506
653330117716841356,13737
653330117724516145,13540
653330117732190934,12874
653330117739865723,12447
653330117747540512,12546
653330117755215301,12549
653330117762890090,12318
653330117770564879,12216
653330117778239668,12184
653330117785914457,12058
653330117793589246,11949
653330117801264035,11878
653330117808938824,11784
653330117816613613,11686
653330117824288402,11606
653330117831963191,11507
653330117839637980,11405
653330117847312769,11312
653330117854987558,11208
653330117862662347,11111
653330117870337136,11040
653330117878011925,10967
653330117885686714,10870
653330117893361503,10768
653330117901036292,10669
653330117908711081,10581
653330117916385870,10506
653330117924060659,10418
653330117931735448,10338
653330117939410237,10275
653330117947085026,10202
653330117954759815,10117
653330117962434604,10035
653330117970109393,9954
653330117977784182,9869
653330117985458971,9758
653330117993133760,9631
653330118000808549,9505
653330118008483338,9357
653330118016158127,9196
653330118023832916,9060
653330118031507705,8934
653330118039182494,8810
653330118046857283,8730
653330118054532072,8650
653330118062206861,8528
653330118069881650,8431
653330118077556439,8361
653330118085231228,8271
653330118092906017,8186
653330118100580806,8113
653330118108240566,8028
653330118115915564,7945
653330118123590562,7875
653330118131265560,7795
653330118138940558,7705
653330118146615556,7632
653330118154290554,7571
653330118161965552,7494
653330118169640550,7396
653330118177315548,7311
653330118184990546,7248
653330118192665544,7188
653330118200340542,7105
653330118208015540,7005
653330118215690538,6925
653330118223365536,6862
653330118231040534,6792
653330118238715532,6716
653330118246390530,6651
653330118254065528,6573
653330118261740526,6485
653330118269415524,6415
653330118277090522,6347
653330118284765520,6274
653330118292440518,6211
653330118300115516,6153
653330118307790514,6080
653330118315465512,6002
653330118323140510,5939
653330118330815508,5881
653330118338490506,5817
653330118346165504,5752
653330118353840502,5684
653330118361515500,5621
653330118369190498,5562
653330118376865496,5502
653330118384540494,5441
653330118392215492,5387
653330118399890490,5329
653330118407565488,5264
653330118415240486,5203
653330118422915484,5145
653330118430590482,5081
653330118438265480,5028
653330118445940478,4972
653330118453615476,4911
653330118461290474,4858
653330118468965472,4804
653330118476640470,4751
653330118484315468,4702
653330118491990466,4649
653330118499665464,4588
653330118507340462,4530
653330118515015460,4481
653330118522690458,4428
653330118530365456,4379
653330118538040454,4336
653330118545715452,4282
653330118553390450,4229
653330118561065448,4183
653330118568740446,4124
653330118576415444,4078
653330118584090442,4047
653330118591765440,3998
653330118599440438,3954
653330118607115436,3915
653330118614790434,3859
653330118622465432,3799
653330118630140430,3753
653330118637815428,3714
653330118645490426,3672
653330118653165424,3631
653330118660840422,3592
653330118668525523,3558
653330118676200381,3510
653330118683875239,3437
653330118691550097,3444
653330118699224955,3687
653330118706899813,4044
653330118714574671,4105
653330118722249529,3595
653330118729924387,3029
653330118737599245,3038
653330118745274103,3204
653330118752948961,3080
653330118760623819,2975
653330118768298677,3002
653330118775973535,2968
653330118783648393,2905
653330118791323251,2885
653330118798998109,2859
653330118806672967,2817
653330118814347825,2798
653330118822022683,2781
653330118829697541,2749
653330118837372399,2715
653330118845047257,2696
653330118852722115,2681
653330118860396973,2655
653330118868071831,2625
653330118875746689,2608
653330118883421547,2584
653330118891096405,2557
653330118898771263,2545
653330118906446121,2540
653330118914120979,2531
653330118921795837,2526
653330118929470695,2521
653330118937145553,2514
653330118944820411,2509
653330118952495269,2502
653330118960170127,2485
653330118967844985,2463
653330118975519843,2434
653330118983194701,2392
653330118990869559,2327
653330118998544417,2242
653330119006219275,2164
653330119013894133,2093
653330119021568991,2035
653330119029243849,1987
653330119036918707,1945
653330119044593565,1911
653330119052268423,1887
653330119059943281,1865
653330119067618139,1838
653330119075292997,1814
653330119082967855,1797
653330119090642713,1785
653330119098317571,1775
653330119105992429,1758
653330119113667287,1736
653330119121342145,1724
653330119129017003,1715
653330119136691861,1693
653330119144366719,1671
653330119152041577,1664
653330119159716435,1656
653330119167391293,1639
653330119175066151,1622
653330119182741009,1603
653330119190415867,1581
653330119198090725,1561
653330119205765583,1554
653330119213440441,1540
653330119221115299,1520
653330119228815282,1503
653330119236489792,1489
653330119244164302,1469
653330119251838812,1450
653330119259513322,1440
653330119267187832,1425
653330119274862342,1404
653330119282536852,1384
653330119290211362,1370
653330119297885872,1362
653330119305560382,1348
653330119313234892,1326
653330119320909402,1311
653330119328583912,1302
653330119336258422,1289
653330119343932932,1280
653330119351607442,1270
653330119359281952,1255
653330119366956462,1241
653330119374630972,1234
653330119382305482,1219
653330119389979992,1202
653330119397654502,1197
653330119405329012,1195
653330119413003522,1178
653330119420678032,1156
653330119428352542,1149
653330119436027052,1144
653330119443701562,1136
653330119451376072,1124
653330119459050582,1107
653330119466725092,1093
653330119474399602,1085
653330119482074112,1078
653330119489748622,1059
653330119497423132,1044
653330119505097642,1042
653330119512772152,1034
653330119520446662,1020
653330119528121172,1008
653330119535795682,1000
653330119543470192,993
653330119551144702,991
653330119558819212,983
653330119566493722,966
653330119574168232,959
653330119581842742,959
653330119589517252,932
653330119597191762,903
653330119604866272,901
653330119612540782,898
653330119620215292,886
653330119627889802,879
653330119635564312,872
653330119643238822,852
653330119650913332,830
653330119658587842,806
653330119666262352,879
653330119673936862,1175
653330119681611372,1542
653330119689285882,1549
653330119696960392,1017
653330119704634902,568
653330119712309412,675
653330119719983922,823
653330119727658432,711
653330119735332942,670
653330119743007452,721
653330119750681962,702
653330119758356472,685
653330119766030982,711
653330119773705492,704
653330119781380002,680
653330119789034462,689
653330119796709251,702
653330119804384040,699
653330119812058829,697
653330119819733618,694
653330119827408407,694
653330119835083196,697
653330119842757985,689
653330119850432774,680
653330119858107563,689
653330119865782352,709
653330119873457141,719
653330119881131930,721
653330119888806719,738
653330119896481508,762
653330119904156297,782
653330119911831086,789
653330119919505875,799
653330119927180664,808
653330119934855453,813
653330119942530242,818
653330119950205031,818
653330119957879820,791
653330119965554609,740
653330119973229398,685
653330119980904187,624
653330119988578976,563
653330119996253765,517
653330120003928554,490
653330120011603343,473
653330120019278132,459
653330120026952921,454
653330120034627710,459
653330120042302499,459
653330120049977288,444
653330120057652077,439
653330120065326866,446
653330120073001655,442
653330120080676444,434
653330120088351233,442
653330120096026022,446
653330120103700811,446
653330120111375600,446
653330120119050389,446
653330120126725178,442
653330120134399967,439
653330120142074756,449
653330120149749545,456
653330120157424334,449
653330120165099123,444
653330120172773912,446
653330120180448701,439
653330120188123490,427
653330120195798279,422
653330120203473068,425
653330120211147857,425
653330120218822646,420
653330120226497435,420
653330120234172224,417
653330120241847013,410
653330120249521802,408
653330120257196591,408
653330120264871380,405
653330120272546169,403
653330120280220958,400
653330120287895747,400
653330120295570536,400
653330120303245325,395
653330120310920114,398
653330120318594903,405
653330120326269692,395
653330120333944481,374
653330120341619270,374
653330120349289038,391
653330120356963897,388
653330120364638756,378
653330120372313615,381
653330120379988474,381
653330120387663333,376
653330120395338192,371
653330120403013051,364
653330120410687910,357
653330120418362769,357
653330120426037628,357
653330120433712487,357
653330120441387346,352
653330120449062205,349
653330120456737064,357
653330120464411923,359
653330120472086782,347
653330120479761641,344
653330120487436500,352
653330120495111359,354
653330120502786218,352
653330120510461077,337
653330120518135936,315
653330120525810795,313
653330120533485654,325
653330120541160513,325
653330120548835372,323
653330120556510231,327
653330120564185090,327
653330120571859949,298
653330120579534808,269
653330120587209667,393
653330120594884526,745
653330120602559385,1071
653330120610234244,942
653330120617909103,366
653330120625583962,46
653330120633258821,235
653330120640933680,340
653330120648608539,228
653330120656283398,225
653330120663958257,281
653330120671633116,257
653330120679307975,240
653330120686982834,264
653330120694657693,274
653330120702332552,269
653330120710007411,274
653330120717682270,276
653330120725357129,279
653330120733031988,286
653330120740706847,296
653330120748381706,306
653330120756056565,308
653330120763731424,306
653330120771406283,318
653330120779081142,335
653330120786756001,349
653330120794430860,359
653330120802105719,369
653330120809780578,393
653330120817455437,422
653330120825130296,442
653330120832805155,454
653330120840480014,466
653330120848154873,480
653330120855829732,502
653330120863504591,512
653330120871179450,500
653330120878854309,471
653330120886529168,422
653330120894204027,366
653330120901878886,306
653330120909533729,255
653330120917208866,225
653330120924884003,194
653330120932559140,167
653330120940234277,167
653330120947909414,179
653330120955584551,174
653330120963259688,167
653330120970934825,167
653330120978609962,174
653330120986285099,182
653330120993960236,184
653330121001635373,182
653330121009310510,187
653330121016985647,194
653330121024660784,201
653330121032335921,204
653330121040011058,206
653330121047686195,211
653330121055361332,216
653330121063036469,211
653330121070711606,206
653330121078386743,208
653330121086061880,208
653330121093737017,208
653330121101412154,211
653330121109087291,211
653330121116762428,208
653330121124437565,208
653330121132112702,213
653330121139787839,216
653330121147462976,213
653330121155138113,208
653330121162813250,208
653330121170488387,208
653330121178163524,208
653330121185838661,211
653330121193513798,211
653330121201188935,206
653330121208864072,206
653330121216539209,208
653330121224214346,213
653330121231889483,216
653330121239564620,216
653330121247239757,218
653330121254914894,218
653330121262590031,211
653330121270265168,211
653330121277940305,216
653330121285615442,211
653330121293290579,211
653330121300965716,221
653330121308640853,228
653330121316315990,221
653330121323991127,204
653330121331666264,206
653330121339341401,213
653330121347016538,213
653330121354691675,213
653330121362366812,228
653330121370041949,245
653330121377717086,242
653330121385392223,228
653330121393067360,223
653330121400742497,221
653330121408417634,211
653330121416092771,216
653330121423767908,221
653330121431443045,218
653330121439118182,213
653330121446793319,201
653330121454468456,194
653330121462143593,191
653330121469828784,179
653330121477503782,264
653330121485178780,580
653330121492853778,957
653330121500528776,942
653330121508203774,381
653330121515878772,-51
653330121523553770,89
653330121531228768,240
653330121538903766,136
653330121546578764,109
653330121554253762,157
653330121561928760,133
653330121569603758,131
653330121577278756,165
653330121584953754,140
653330121592628752,109
653330121600303750,136
653330121607978748,155
653330121615653746,140
653330121623328744,140
653330121631003742,165
653330121638678740,179
653330121646353738,189
653330121654028736,206
653330121661703734,218
653330121669378732,223
653330121677053730,235
653330121684728728,250
653330121692403726,240
653330121700078724,233
653330121707753722,264
653330121715428720,306
653330121723103718,342
653330121730778716,383
653330121738453714,403
653330121746128712,383
653330121753803710,361
653330121761478708,357
653330121769153706,344
653330121776828704,310
653330121784503702,276
653330121792178700,238
653330121799853698,170
653330121807528696,99
653330121815203694,75
653330121822878692,87
653330121830553690,89
653330121838228688,82
653330121845903686,87
653330121853578684,97
653330121861253682,106
653330121868928680,114
653330121876603678,126
653330121884278676,136
653330121891953674,123
653330121899628672,114
653330121907303670,121
653330121914978668,104
653330121922653666,97
653330121930328664,131
653330121938003662,150
653330121945678660,148
653330121953353658,162
653330121961028656,187
653330121968703654,157
653330121976378652,121
653330121984053650,138
653330121991728648,133
653330121999403646,123
653330122007078644,150
653330122014753642,160
653330122022428640,157
653330122030113741,174
653330122037788599,177
653330122045463457,157
653330122053138315,148
653330122060813173,153
653330122068488031,160
653330122076162889,167
653330122083837747,170
653330122091512605,167
653330122099187463,140
653330122106862321,111
653330122114537179,131
653330122122212037,150
653330122129886895,133
653330122137561753,133
653330122145236611,157
653330122152911469,162
653330122160586327,143
653330122168261185,145
653330122175936043,170
653330122183610901,157
653330122191285759,126
653330122198960617,128
653330122206635475,155
653330122214310333,155
653330122221985191,143
653330122229660049,145
653330122237334907,153
653330122245009765,165
653330122252684623,191
653330122260359481,196
653330122268034339,174
653330122275709197,165
653330122283384055,160
653330122291058913,143
653330122298733771,153
653330122306408629,162
653330122314083487,150
653330122321758345,150
653330122329433203,179
653330122337108061,206
653330122344782919,153
653330122352457777,94
653330122360132635,233
653330122367807493,570
653330122375482351,891
653330122383157209,847
653330122390832067,313
653330122398506925,-60
653330122406181783,92
653330122413856641,204
653330122421531499,99
653330122429206357,106
653330122436881215,155
653330122444556073,133
653330122452230931,121
653330122459905789,131
653330122467580647,138
653330122475255505,145
653330122482930363,140
653330122490605221,140
653330122498280079,160
653330122505954937,165
653330122513629795,148
653330122521304653,153
653330122528979511,167
653330122536654369,174
653330122544329227,182
653330122552004085,191
653330122559678943,196
653330122567353801,191
653330122575028659,191
653330122582703517,221
653330122590378444,252
653330122598053302,274
653330122605728160,308
653330122613403018,330
653330122621077876,318
653330122628752734,306
653330122636427592,313
653330122644102450,320
653330122651777308,296
653330122659452166,245
653330122667127024,191
653330122674801882,145
653330122682476740,92
653330122690151598,53
653330122697826456,38
653330122705501314,38
653330122713176172,31
653330122720851030,21
653330122728525888,19
653330122736200746,21
653330122743875604,31
653330122751550462,53
653330122759225320,53
653330122766900178,41
653330122774575036,63
653330122782249894,87
653330122789924752,75
653330122797599610,63
653330122805274468,82
653330122812949326,94
653330122820624184,87
653330122828299042,87
653330122835973900,106
653330122843648758,114
653330122851323616,102
653330122858998474,104
653330122866673332,121
653330122874348190,116
653330122882023048,102
653330122889697906,106
653330122897372764,104
653330122905047622,94
653330122912722480,106
653330122920397338,121
653330122928072196,119
653330122935747054,109
653330122943421912,106
653330122951096770,116
653330122958771628,119
653330122966446486,106
653330122974121344,109
653330122981796202,116
653330122989471060,119
653330122997145918,126
653330123004820776,131
653330123012495634,128
653330123020170492,128
653330123027845350,123
653330123035520208,116
653330123043195066,121
653330123050869924,128
653330123058544782,133
653330123066219640,138
653330123073894498,136
653330123081569356,128
653330123089244214,119
653330123096919072,116
653330123104593930,126
653330123112268788,143
653330123119943646,140
653330123127618504,128
653330123135293362,133
653330123142968220,140
653330123150643147,121
653330123158318005,111
653330123165992863,121
653330123173667721,123
653330123181342579,114
653330123189017437,121
653330123196692295,143
653330123204367153,126
653330123212042011,85
653330123219716869,160
653330123227391727,439
653330123235066585,794
653330123242741443,850
653330123250416301,386
653330123258091159,-80
653330123265766017,-9
653330123273440875,165
653330123281115733,89
653330123288790591,51
653330123296465449,104
653330123304140307,97
653330123311815165,80
653330123319490023,97
653330123327164881,102
653330123334839739,104
653330123342514597,116
653330123350189455,133
653330123357864313,138
653330123365539171,123
653330123373214029,126
653330123380888887,153
653330123388563745,160
653330123396238603,145
653330123403913461,165
653330123411588319,206
653330123419263177,199
653330123426938035,182
653330123434612893,211
653330123442287751,240
653330123449962609,245
653330123457637467,272
653330123465312325,306
653330123472987183,327
653330123480662041,335
653330123488336899,340
653330123496011757,337
653330123503686615,332
653330123511361473,320
653330123519036331,262
653330123526711189,182
653330123534386047,133
653330123542060905,97
653330123549735763,55
653330123557410621,26
653330123565085479,17
653330123572760337,14
653330123580435195,4
653330123588110053,0
653330123595784911,2
653330123603459769,9
653330123611134627,14
653330123618809485,19
653330123626484343,26
653330123634159201,24
653330123641834059,38
653330123649508917,51
653330123657183775,41
653330123664858633,43
653330123672533491,55
653330123680208349,63
653330123687883207,60
653330123695558065,53
653330123703232923,65
653330123710937946,85
653330123718612386,70
653330123726286826,55
653330123733961266,80
653330123741635706,85
653330123749310146,63
653330123756984586,70
653330123764659026,92
653330123772333466,77
653330123780007906,53
653330123787682346,65
653330123795356786,92
653330123803031226,94
653330123810705666,77
653330123818380106,70
653330123826054546,80
653330123833728986,87
653330123841403426,89
653330123849077866,89
653330123856752306,99
653330123864426746,111
653330123872101186,94
653330123879775626,77
653330123887450066,104
653330123895124506,123
653330123902798946,102
653330123910473386,92
653330123918147826,114
653330123925822266,131
653330123933496706,128
653330123941171146,111
653330123948845586,99
653330123956520026,109
653330123964194466,106
653330123971868906,92
653330123979543346,99
653330123987217786,116
653330123994892226,111
653330124002566666,114
653330124010241106,116
653330124017915546,89
653330124025589986,126
653330124033264426,374
653330124040938866,760
653330124048613306,920
653330124056287746,531
653330124063962186,-34
653330124071636626,-82
653330124079311066,148
653330124086985506,121
653330124094659946,36
653330124102334386,82
653330124110008826,92
653330124117683266,68
653330124125357706,87
653330124133032146,106
653330124140706586,99
653330124148381026,87
653330124156055466,99
653330124163729906,119
653330124171404346,109
653330124179078786,111
653330124186753226,138
653330124194427666,136
653330124202102106,138
653330124209776546,165
653330124217450986,167
653330124225125426,162
653330124232799866,199
653330124240474306,238
653330124248148746,228
653330124255823186,225
653330124263497626,276
653330124271142035,310
653330124278816893,315
653330124286491751,340
653330124294166609,349
653330124301841467,347
653330124309516325,347
653330124317191183,320
653330124324866041,262
653330124332540899,208
653330124340215757,157
653330124347890615,102
653330124355565473,63
653330124363240331,36
653330124370915189,21
653330124378590047,14
653330124386264905,9
653330124393939763,12
653330124401614621,9
653330124409289479,12
653330124416964337,21
653330124424639195,7
653330124432314053,0
653330124439988911,26
653330124447663769,36
653330124455338627,31
653330124463013485,41
653330124470688343,46
653330124478363201,38
653330124486038059,51
653330124493712917,65
653330124501387775,65
653330124509062633,68
653330124516737491,75
653330124524412349,68
653330124532087207,63
653330124539762065,75
653330124547436923,77
653330124555111781,68
653330124562786639,80
653330124570461497,89
653330124578136355,80
653330124585811213,72
653330124593486071,75
653330124601160929,80
653330124608835787,77
653330124616510645,68
653330124624185503,68
653330124631860361,85
653330124639535219,89
653330124647210077,77
653330124654884935,65
653330124662559793,65
653330124670234651,80
653330124677909509,89
653330124685584367,92
653330124693259225,99
653330124700934083,94
653330124708608941,82
653330124716283799,94
653330124723958657,92
653330124731633515,92
653330124739308373,116
653330124746983231,128
653330124754658089,121
653330124762332947,128
653330124770007805,123
653330124777682663,99
653330124785357521,97
653330124793032379,102
653330124800707237,104
653330124808382095,116
653330124816056953,119
653330124823731811,121
653330124831406738,116
653330124839081596,80
653330124846756454,150
653330124854431312,468
653330124862106170,864
653330124869781028,896
653330124877455886,381
653330124885130744,-97
653330124892805602,-19
653330124900480460,160
653330124908155318,70
653330124915830176,26
653330124923505034,94
653330124931179892,85
653330124938854750,46
653330124946529608,70
653330124954204466,99
653330124961879324,94
653330124969554182,97
653330124977229040,106
653330124984903898,109
653330124992578756,116
653330125000253614,136
653330125007928472,143
653330125015603330,131
653330125023278188,136
653330125030953046,165
653330125038627904,170
653330125046302762,165
653330125053977620,189
653330125061652478,221
653330125069327336,238
653330125077002194,259
653330125084677052,281
653330125092351910,289
653330125100026768,306
653330125107701626,330
653330125115376484,337
653330125123051342,327
653330125130726200,320
653330125138401058,296
653330125146075916,240
653330125153750774,172
653330125161425632,109
653330125169100490,68
653330125176775348,43
653330125184450206,29
653330125192125064,21
653330125199799922,24
653330125207474780,24
653330125215149638,21
653330125222824496,26
653330125230499354,26
653330125238174212,26
653330125245849070,46
653330125253523928,58
653330125261198786,48
653330125268873644,41
653330125276548502,53
653330125284223360,65
653330125291898218,70
653330125299573076,65
653330125307247934,68
653330125314922792,75
653330125322597650,68
653330125330272508,55
653330125337947366,51
653330125345622224,60
653330125353297082,72
653330125360971940,82
653330125368646798,72
653330125376321656,65
653330125383996514,80
653330125391671441,75
653330125399346299,48
653330125407021157,53
653330125414696015,70
653330125422370873,63
653330125430045731,63
653330125437720589,82
653330125445395447,75
653330125453070305,55
653330125460745163,58
653330125468420021,72
653330125476094879,75
653330125483769737,82
653330125491444595,87
653330125499119453,75
653330125506794311,68
653330125514469169,80
653330125522144027,94
653330125529818885,94
653330125537493743,85
653330125545168601,99
653330125552843459,121
653330125560518317,116
653330125568193175,123
653330125575868033,119
653330125583542891,85
653330125591217749,80
653330125598892607,104
653330125606567465,106
653330125614242323,85
653330125621917181,80
653330125629592039,97
653330125637266897,97
653330125644941755,63
653330125652616613,70
653330125660291471,267
653330125667966329,643
653330125675641187,906
653330125683316045,636
653330125690990903,26
653330125698665761,-136
653330125706340619,111
653330125714015477,119
653330125721690335,0
653330125729365193,55
653330125737040051,102
653330125744714909,60
653330125752389767,60
653330125760064625,87
653330125767739483,77
653330125775414341,80
653330125783089199,106
653330125790764057,114
653330125798438915,111
653330125806113773,111
653330125813788631,111
653330125821463489,131
653330125829138347,148
653330125836813205,148
653330125844488063,150
653330125852162921,167
653330125859837779,187
653330125867512637,208
653330125875187495,228
653330125882862353,233
653330125890537211,240
653330125898212069,264
653330125905886927,298
653330125913561785,310
653330125921236643,301
653330125928911501,313
653330125936586359,337
653330125944261217,310
653330125951936144,252
653330125959611002,206
653330125967285860,155
653330125974960718,104
653330125982635576,72
653330125990310434,31
653330125997985292,2
653330126005660150,0
653330126013335008,2
653330126021009866,7
653330126028684724,19
653330126036359582,21
653330126044034440,17
653330126051709298,34
653330126059384156,55
653330126067059014,46
653330126074733872,24
653330126082408730,31
653330126090083588,58
653330126097758446,70
653330126105433304,63
653330126113108162,55
653330126120783020,65
653330126128457878,68
653330126136132736,36
653330126143807594,29
653330126151482452,58
653330126159157310,65
653330126166832168,63
653330126174507026,65
653330126182181884,46
653330126189856742,36
653330126197531600,51
653330126205206458,43
653330126212881316,31
653330126220556174,38
653330126228231032,51
653330126235905890,63
653330126243580748,55
653330126251255606,43
653330126258930464,48
653330126266605322,53
653330126274280180,60
653330126281955038,60
653330126289629896,51
653330126297304754,60
653330126304979612,75
653330126312654470,77
653330126320329328,72
653330126328004186,63
653330126335679044,63
653330126343353902,75
653330126351028760,80
653330126358703618,87
653330126366378476,97
653330126374053334,97
653330126381728192,99
653330126389403050,92
653330126397077908,65
653330126404752766,55
653330126412427624,68
653330126420102482,70
653330126427777340,70
653330126435452198,80
653330126443127056,87
653330126450801914,82
653330126458476772,68
653330126466151630,157
653330126473826488,454
653330126481501346,811
653330126489176204,828
653330126496851062,306
653330126504525920,-145
653330126512200847,-17
653330126519875705,165
653330126527550563,58
653330126535225421,12
653330126542900279,80
653330126550575137,75
653330126558249995,48
653330126565924853,60
653330126573599711,63
653330126581274569,70
653330126588949427,92
653330126596624285,94
653330126604299143,89
653330126611974001,102
653330126619648859,104
653330126627323717,104
653330126634998575,116
653330126642673433,109
653330126650348291,111
653330126658023149,145
653330126665698007,165
653330126673372865,162
653330126681047723,177
653330126688722581,206
653330126696397439,230
653330126704072297,257
653330126711747155,286
653330126719422013,296
653330126727096871,310
653330126734771729,340
653330126742446587,340
653330126750121445,306
653330126757796303,274
653330126765471161,225
653330126773146019,155
653330126780820877,99
653330126788495735,70
653330126796170593,38
653330126803845451,4
653330126811520309,-4
653330126819195167,2
653330126826870025,4
653330126834544883,9
653330126842219741,14
653330126849894599,19
653330126857569457,29
653330126865244315,46
653330126872919173,38
653330126880594031,17
653330126888268889,26
653330126895943747,48
653330126903618605,48
653330126911293463,48
653330126918968321,63
653330126926643179,77
653330126934318037,75
653330126941992895,65
653330126949667753,77
653330126957342611,80
653330126965017469,60
653330126972692327,70
653330126980367185,87
653330126988042043,72
653330126995716901,70
653330127003391759,89
653330127011066617,87
653330127018741475,72
653330127026416333,68
653330127034091191,68
653330127041766049,72
653330127049440907,68
653330127057115765,60
653330127064790623,65
653330127072465550,75
653330127080140408,75
653330127087815266,75
653330127095490124,72
653330127103164982,60
653330127110839840,60
653330127118514698,60
653330127126189556,46
653330127133864414,43
653330127141539272,48
653330127149214130,43
653330127156888988,38
653330127164563846,41
653330127172238704,68
653330127179913562,87
653330127187588420,75
653330127195263278,65
653330127202938136,58
653330127210612994,53
653330127218287852,55
653330127225962710,63
653330127233637568,68
653330127241312426,72
653330127248987284,85
653330127256662142,85
6.5333E+17,46
653330127272011858,58
653330127279686716,272
653330127287361574,651
653330127295036432,906
653330127302711290,643
653330127310386148,36
653330127318061006,-136
653330127325735864,106
653330127333410722,119
653330127341085580,2
653330127348760438,46
653330127356435296,75
653330127364110154,36
653330127371785012,60
653330127379459870,94
653330127387134728,68
653330127394809586,63
653330127402484444,89
653330127410159302,97
653330127417834160,99
653330127425509018,102
653330127433183876,109
653330127440858734,123
653330127448533592,138
653330127456208450,145
653330127463883308,148
653330127471558166,155
653330127479233024,172
653330127486907882,201
653330127494582740,228
653330127502257598,242
653330127509932456,255
653330127517607314,274
653330127525282172,296
653330127532957030,315
653330127540631888,325
653330127548306746,335
653330127555981604,335
653330127563656462,313
653330127571331320,267
653330127579006178,201
653330127586681036,140
653330127594355894,89
653330127602030752,48
653330127609705610,19
653330127617380468,14
653330127625055326,21
653330127632730253,12
653330127640405111,2
653330127648079969,9
653330127655754827,17
653330127663429685,4
653330127671104543,2
653330127678779401,24
653330127686454259,36
653330127694129117,26
653330127701803975,24
653330127709478833,38
653330127717153691,48
653330127724828549,53
653330127732503407,63
653330127740178265,58
653330127747853123,51
653330127755527981,70
653330127763202839,85
653330127770877697,72
653330127778552555,68
653330127786227413,75
653330127793902271,77
653330127801577129,75
653330127809251987,72
653330127816926845,65
653330127824601703,68
653330127832276561,72
653330127839951419,68
653330127847626277,65
653330127855301135,65
653330127862975993,60
653330127870650851,60
653330127878325709,53
653330127886000567,48
653330127893675425,63
653330127901350283,75
653330127909025141,70
653330127916699999,63
653330127924374857,68
653330127932049715,68
653330127939724573,65
653330127947399431,77
653330127955074289,85
653330127962749147,75
653330127970424005,63
653330127978098863,65
653330127985773721,82
653330127993448579,92
653330128001123437,85
653330128008798295,77
653330128016473153,85
653330128024148011,99
653330128031822869,104
653330128039497727,102
653330128047172585,104
653330128054847443,104
653330128062522301,87
653330128070197159,77
653330128077872017,85
653330128085546875,97
653330128093221733,97
653330128100896591,87
653330128108571449,87
653330128116246307,80
653330128123921165,63
653330128131596023,162
653330128139270881,476
653330128146945739,842
653330128154620597,838
653330128162295455,291
653330128169970313,-138
653330128177645171,0
653330128185320029,138
653330128192994956,31
653330128200669814,19
653330128208344672,72
653330128216019530,51
653330128223694388,53
653330128231369246,77
653330128239044104,70
653330128246718962,65
653330128254393820,82
653330128262068678,97
653330128269743536,97
653330128277418394,89
653330128285093252,97
653330128292768110,109
653330128300442968,109
653330128308117826,111
653330128315792684,136
653330128323467542,157
653330128331142400,153
653330128338817258,160
653330128346492116,191
653330128354166974,208
653330128361841832,221
653330128369516690,259
653330128377191548,291
653330128384866406,291
653330128392541264,301
653330128400216122,323
653330128407890980,318
653330128415565838,301
653330128423240696,284
653330128430915554,233
653330128438590412,153
653330128446265270,102
653330128453940128,72
653330128461614986,34
653330128469289844,17
653330128476964702,26
653330128484639560,19
653330128492314418,-2
653330128499989276,12
653330128507664134,41
653330128515338992,31
653330128523013850,17
653330128530688708,41
653330128538363566,63
653330128546038424,51
653330128553713282,43
653330128561388140,46
653330128569062998,48
653330128576737856,58
653330128584412714,75
653330128592087572,80
653330128599762430,72
653330128607437288,63
653330128615112146,55
653330128622787004,58
653330128630461862,68
653330128638136720,75
653330128645811578,63
653330128653486436,41
653330128661161294,43
653330128668836152,53
653330128676511010,51
653330128684185868,53
653330128691860726,63
653330128699535584,60
653330128707210442,38
653330128714885300,24
653330128722560158,38
653330128730235016,51
653330128737909874,55
653330128745584732,65
653330128753259659,60
653330128760934517,48
653330128768609375,60
653330128776284233,80
653330128783959091,70
653330128791633949,48
653330128799308807,51
653330128806983665,68
653330128814658523,72
653330128822333381,65
653330128830008239,68
653330128837683097,82
653330128845357955,77
653330128853032813,60
653330128860707671,75
653330128868382529,75
653330128876057387,55
653330128883732245,65
653330128891407103,82
653330128899081961,80
653330128906756819,82
653330128914431677,82
653330128922106535,89
653330128929781393,97
653330128937456251,82
653330128945131109,70
653330128952805967,82
653330128960480825,92
653330128968155683,77
653330128975830541,65
653330128983505399,82
653330128991180257,102
653330128998855115,77
653330129006529973,53
653330129014204831,211
653330129021879689,578
653330129029554547,891
653330129037229405,731
653330129044904263,136
653330129052579121,-143
653330129060253979,70
653330129067928837,140
653330129075603695,21
653330129083278553,29
653330129090953411,63
653330129098628269,51
653330129106303127,68
653330129113977985,75
653330129121652843,63
653330129129327701,70
653330129137002559,80
653330129144677417,82
653330129152352275,92
653330129160027133,94
653330129167701991,92
653330129175376849,99
653330129183051707,111
653330129190726565,121
653330129198401423,131
653330129206076281,138
653330129213751139,145
653330129221425997,162
653330129229100855,194
653330129236775713,218
653330129244450571,228
653330129252125429,252
653330129259800287,286
653330129267475145,298
653330129275150003,306
653330129282824861,318
653330129290499719,315
653330129298174577,301
653330129305849435,272
653330129313524362,211
653330129321199220,148
653330129328874078,89
653330129336548936,41
653330129344223794,21
653330129351898652,19
653330129359573510,0
653330129367248368,-19
653330129374923226,-14
653330129382598084,2
653330129390272942,17
653330129397947800,14
653330129405622658,7
653330129413297516,14
653330129420972374,29
653330129428647232,38
653330129436322090,29
653330129443996948,17
653330129451671806,31
653330129459346664,51
653330129467021522,36
653330129474696380,21
653330129482371238,43
653330129490046096,60
653330129497720954,43
653330129505395812,31
653330129513070670,38
653330129520745528,43
653330129528420386,34
653330129536095244,29
653330129543770102,41
653330129551444960,53
653330129559119818,58
653330129566794676,46
653330129574469534,36
653330129582144392,41
653330129589819250,53
653330129597494108,51
653330129605168966,36
653330129612843824,46
653330129620518682,63
653330129628193540,55
653330129635868398,51
653330129643543256,55
653330129651218114,51
653330129658892972,43
653330129666567830,46
653330129674242688,46
653330129681917546,51
653330129689592404,63
653330129697267262,72
653330129704942120,68
653330129712616978,55
653330129720291836,53
653330129727966694,63
653330129735641552,72
653330129743316410,70
653330129750991268,70
653330129758666126,82
653330129766340984,82
653330129774015842,72
653330129781690700,77
653330129789365558,72
653330129797040416,68
653330129804715274,89
653330129812390132,109
653330129820064990,114
653330129827739848,111
653330129835414706,87
653330129843089564,68
653330129850764422,77
653330129858439280,80
653330129866114138,75
653330129873789065,87
653330129881463923,94
653330129889138781,92
653330129896813639,99
653330129904488497,70
653330129912163355,75
653330129919838213,318
653330129927513071,726
653330129935187929,889
653330129942862787,490
653330129950537645,-53
653330129958212503,-80
653330129965887361,119
653330129973562219,65
653330129981237077,0
653330129988911935,60
653330129996586793,60
653330130004261651,34
653330130011936509,70
653330130019611367,85
653330130027286225,70
653330130034961083,80
653330130042635941,87
653330130050310799,70
653330130057985657,80
653330130065660515,109
653330130073335373,116
653330130081010231,116
653330130088685089,128
653330130096359947,145
653330130104034805,145
653330130111709663,131
653330130119384521,140
653330130127059379,179
653330130134734237,201
653330130142409095,216
653330130150083953,245
653330130157758811,264
653330130165433669,274
653330130173108527,291
653330130180783385,291
653330130188458243,291
653330130196133101,298
653330130203807959,286
653330130211482817,247
653330130219157675,179
653330130226832533,106
653330130234507391,72
653330130242182249,53
653330130249857107,19
653330130257531965,-7
653330130265206823,-12
653330130272881681,-7
653330130280556539,-4
653330130288231397,-7
653330130295906255,-7
653330130303581113,-4
653330130311255971,-7
653330130318930829,-7
653330130326605687,2
653330130334280545,4
653330130341955403,2
653330130349630261,4
653330130357305119,17
653330130364979977,26
653330130372654835,24
653330130380329693,17
653330130388004551,19
653330130395679409,29
653330130403354267,46
653330130411029125,48
653330130418703983,36
653330130426378841,31
653330130434053768,43
653330130441728626,55
653330130449403484,46
653330130457078342,36
653330130464753200,41
653330130472428058,51
653330130480102916,46
653330130487777774,36
653330130495452632,48
653330130503127490,58
653330130510802348,51
653330130518477206,46
653330130526152064,46
653330130533826922,51
653330130541501780,58
653330130549176638,63
653330130556851496,58
653330130564526354,48
653330130572201212,58
653330130579876070,72
653330130587550928,68
653330130595225786,65
653330130602900644,70
653330130610575502,65
653330130618250360,55
653330130625925218,60
653330130633600076,72
653330130641274934,80
653330130648949792,82
653330130656624650,77
653330130664299508,70
653330130671974366,63
653330130679649224,58
653330130687324082,58
653330130694998940,72
653330130702673798,87
653330130710348656,87
653330130718023514,89
653330130725698372,97
653330130733373230,94
653330130741048088,87
653330130748722946,80
653330130756397804,75
653330130764072662,77
653330130771747520,87
653330130779422378,85
653330130787097236,87
653330130794772094,89
653330130802446952,80
653330130810121810,53
653330130817796668,48
653330130825471526,208
653330130833146384,573
653330130840821242,879
653330130848496100,716
653330130856170958,121
653330130863845816,-162
653330130871520674,48
653330130879195532,126
653330130886870390,12
653330130894545248,21
653330130902220106,70
653330130909894964,60
653330130917569822,60
653330130925244680,72
653330130932919538,75
653330130940594396,85
653330130948269254,97
653330130955944112,92
653330130963618970,82
653330130971293828,97
653330130978968686,119
653330130986643544,109
653330130994318471,102
653330131001993329,136
653330131009668187,155
653330131017343045,140
653330131025017903,148
653330131032692761,189
653330131040367619,208
653330131048042477,199
653330131055717335,204
653330131063392193,233
653330131071067051,262
653330131078741909,281
653330131086416767,296
653330131094091625,301
653330131101766483,291
653330131109441341,267
653330131117116199,230
653330131124791057,179
653330131132465915,131
653330131140140773,80
653330131147815631,24
653330131155490489,-9
653330131163165347,-21
653330131170840205,-41
653330131178515063,-58
653330131186189921,-46
653330131193864779,-34
653330131201539637,-41
653330131209214495,-38
653330131216889353,-14
653330131224564211,0
653330131232239069,-9
653330131239913927,-24
653330131247588785,-14
653330131255263643,14
653330131262938501,17
653330131270613359,12
653330131278288217,31
653330131285963075,36
653330131293637933,19
653330131301312791,24
653330131308987649,31
653330131316662507,34
653330131324337365,36
653330131332012223,36
653330131339687081,46
653330131347361939,46
653330131355036797,43
653330131362711655,48
653330131370386513,36
653330131378061371,38
653330131385736229,58
653330131393411087,53
653330131401085945,51
653330131408760803,63
653330131416435661,63
653330131424110519,63
653330131431785377,63
653330131439460235,60
653330131447135093,65
653330131454809951,72
653330131462484809,72
653330131470159667,75
653330131477834525,75
653330131485509383,68
653330131493184241,77
653330131500859099,80
653330131508533957,72
653330131516208815,87
653330131523883673,99
653330131531558531,82
653330131539233389,80
653330131546908247,80
653330131554553006,72
653330131562228283,85
653330131569903560,111
653330131577578837,109
653330131585254114,99
653330131592929391,104
653330131600604668,89
653330131608279945,63
653330131615955222,65
653330131623630499,85
653330131631305776,87
653330131638981053,82
653330131646656330,87
653330131654331607,97
653330131662006884,80
653330131669682161,60
653330131677357438,189
653330131685032715,546
653330131692707992,881
653330131700383269,726
653330131708058546,109
653330131715733823,-174
653330131723409100,48
653330131731084377,128
653330131738759654,4
653330131746434931,12
653330131754110208,68
653330131761785485,55
653330131769460762,48
653330131777136039,63
653330131784811316,65
653330131792486593,68
653330131800161870,80
653330131807837147,87
653330131815512424,85
653330131823187701,89
653330131830862978,106
653330131838538255,116
653330131846213532,109
653330131853888809,106
653330131861564086,131
653330131869239363,153
653330131876914640,177
653330131884589917,196
653330131892265194,179
653330131899940471,177
653330131907615748,228
653330131915291025,264
653330131922966302,262
653330131930641579,279
653330131938316856,310
653330131945992133,310
653330131953667410,303
653330131961342687,296
653330131969017964,252
653330131976693241,179
653330131984368518,123
653330131992043795,87
653330131999719072,53
653330132007394349,7
653330132015069626,-34
653330132022744903,-29
653330132030420180,-12
653330132038095457,-19
653330132045770734,-26
653330132053446011,-26
653330132061121288,-19
653330132068796565,-4
653330132076471842,7
653330132084147119,-4
653330132091822396,-12
653330132099497673,9
653330132107172950,31
653330132114878395,29
653330132122553253,19
653330132130228111,21
653330132137902969,34
653330132145577827,51
653330132153252685,60
653330132160927543,43
653330132168602401,29
653330132176277259,46
653330132183952117,58
653330132191626975,41
653330132199301833,26
653330132206976691,34
653330132214651549,41
653330132222326407,36
653330132230001265,31
653330132237676123,34
653330132245350981,46
653330132253025839,51
653330132260700697,43
653330132268375555,51
653330132276050413,60
653330132283725271,41
653330132291400129,29
653330132299074987,53
653330132306749845,68
653330132314424703,60
653330132322099561,60
653330132329774419,60
653330132337449277,68
653330132345124135,75
653330132352798993,63
653330132360473851,55
653330132368148709,65
653330132375823567,82
653330132383498425,85
653330132391173283,75
653330132398848141,77
653330132406522999,85
653330132414197857,77
653330132421872715,80
653330132429547573,92
653330132437222431,89
653330132444897289,85
653330132452572147,89
653330132460247005,104
653330132467921863,119
653330132475596721,114
653330132483271579,87
653330132490946437,77
653330132498621295,92
653330132506296153,97
653330132513971011,87
653330132521645869,85
653330132529320727,94
653330132536995585,99
653330132544670443,70
653330132552345301,55
653330132560020159,167
653330132567695017,466
653330132575369875,818
653330132583044733,821
653330132590719591,284
653330132598394449,-145
653330132606069307,-2
653330132613744165,150
653330132621419023,29
653330132629093881,12
653330132636768739,89
653330132644443597,65
653330132652118455,41
653330132659793313,70
653330132667468171,77
653330132675143098,70
653330132682817956,80
653330132690492814,87
653330132698167672,89
653330132705842530,97
653330132713517388,97
653330132721192246,92
653330132728867104,94
653330132736541962,106
653330132744216820,121
653330132751891678,128
653330132759566536,138
653330132767241394,155
653330132774916252,174
653330132782591110,189
653330132790265968,196
653330132797940826,216
653330132805615684,252
653330132813290542,262
653330132820965400,267
653330132828640258,289
653330132836315116,291
653330132843989974,276
653330132851664832,247
653330132859339690,187
653330132867014548,133
653330132874689406,94
653330132882364264,43
653330132890039122,4
653330132897713980,-14
653330132905388838,-29
653330132913063696,-24
653330132920738554,-21
653330132928413412,-26
653330132936088270,-12
653330132943763128,4
653330132951437986,-14
653330132959112844,-26
653330132966787702,0
653330132974462560,21
653330132982137418,26
653330132989812276,26
653330132997487134,12
653330133005161992,19
653330133012836850,53
653330133020511708,51
653330133028186566,17
653330133035861424,21
653330133043536282,46
653330133051211140,55
653330133058885998,41
653330133066560856,29
653330133074235714,41
653330133081910572,60
653330133089585430,55
653330133097260288,46
653330133104935146,34
653330133112610004,41
653330133120284862,60
653330133127959720,72
653330133135634578,63
653330133143309436,46
653330133150984294,43
653330133158659152,58
653330133166334010,77
653330133174008868,77
653330133181683726,55
653330133189358584,51
653330133197033442,63
653330133204708300,68
653330133212383158,60
653330133220058016,53
653330133227732874,48
653330133235407801,58
653330133243082659,75
653330133250757517,75
653330133258432375,63
653330133266107233,65
653330133273782091,72
653330133281456949,60
653330133289131807,51
653330133296806665,58
653330133304481523,60
653330133312156381,63
653330133319831239,70
653330133327506097,68
653330133335180955,65
653330133342855813,82
653330133350530671,94
653330133358205529,89
653330133365880387,87
653330133373555245,82
653330133381230103,77
653330133388904961,72
653330133396579819,70
653330133404254677,85
653330133411929535,89
653330133419604393,82
653330133427279251,82
653330133434954109,77
653330133442628967,55
653330133450303825,68
653330133457978683,238
653330133465653541,600
653330133473328399,896
653330133481003257,694
653330133488678115,94
653330133496352973,-138
653330133504027831,80
653330133511702689,119
653330133519377547,-9
653330133527052405,17
653330133534727263,70
653330133542402121,43
653330133550076979,43
653330133557751837,58
653330133565426695,58
653330133573101553,70
653330133580776411,80
653330133588451269,75
653330133596126127,85
653330133603800985,92
653330133611475843,89
653330133619150701,102
653330133626825559,123
653330133634500417,133
653330133642175275,136
653330133649850133,145
653330133657524991,153
653330133665199849,165
653330133672874707,189
653330133680549565,208
653330133688224423,216
653330133695899281,235
653330133703574139,267
653330133711248997,276
653330133718923855,284
653330133726598713,301
653330133734273571,293
653330133741948429,262
653330133749623287,230
653330133757298145,189
653330133764973003,121
653330133772647861,48
653330133780322719,4
653330133787997577,-2
653330133795672504,-14
653330133803347362,-41
653330133811022220,-53
653330133818697078,-43
653330133826371936,-31
653330133834046794,-24
653330133841721652,-21
653330133849396510,-26
653330133857071368,-24
653330133864746226,-4
653330133872421084,-4
653330133880095942,-14
653330133887770800,-4
653330133895445658,17
653330133903120516,21
653330133910795374,17
653330133918470232,14
653330133926145090,26
653330133933819948,41
653330133941494806,41
653330133949169664,31
653330133956844522,31
653330133964519380,43
653330133972194238,46
653330133979869096,38
653330133987543954,41
653330133995218812,48
653330134002893670,53
653330134010568528,46
653330134018243386,41
653330134025918244,41
653330134033593102,48
653330134041267960,51
653330134048942818,48
653330134056617676,48
653330134064292534,60
653330134071967392,70
653330134079642250,65
653330134087317108,55
653330134094991966,51
653330134102666824,51
653330134110341682,60
653330134118016540,68
653330134125691398,68
653330134133366256,75
653330134141041114,85
653330134148715972,80
653330134156390830,70
653330134164065688,77
653330134171740546,85
653330134179415404,82
653330134187090262,65
653330134194765120,58
653330134202439978,75
653330134210114836,92
653330134217789694,72
653330134225464552,53
653330134233139410,75
653330134240814268,97
653330134248489126,87
653330134256163984,77
653330134263838842,80
653330134271513700,72
653330134279188558,63
653330134286863416,70
653330134294538274,77
653330134302213132,77
653330134309887990,70
653330134317562848,68
653330134325237706,72
653330134332912564,65
653330134340587422,63
653330134348262280,187
653330134355917119,512
653330134363592256,852
653330134371267393,757
653330134378942530,179
653330134386617667,-157
653330134394292804,29
653330134401967941,126
653330134409643078,9
653330134417318215,14
653330134424993352,53
653330134432668489,24
653330134440343626,34
653330134448018763,65
653330134455693900,60
653330134463369037,55
653330134471044174,70
653330134478719311,82
653330134486394448,89
653330134494069585,82
653330134501744722,80
653330134509419859,99
653330134517094996,111
653330134524770133,109
653330134532445270,121
653330134540120407,138
653330134547795544,148
653330134555470681,167
653330134563145818,189
653330134570820955,211
653330134578496092,223
653330134586171229,228
653330134593846366,252
653330134601521503,274
653330134609196640,281
653330134616871777,291
653330134624546914,301
653330134632222051,293
653330134639897188,262
653330134647572325,206
653330134655247462,131
653330134662922599,72
653330134670597736,41
653330134678272873,14
653330134685948010,-17
653330134693623147,-41
653330134701298284,-41
653330134708973421,-26
653330134716648558,-29
653330134724323695,-36
653330134731998832,-29
653330134739673969,-19
653330134747349106,-24
653330134755024243,-26
653330134762699380,-14
653330134770374517,4
653330134778049654,12
653330134785724791,0
653330134793399928,-4
653330134801075065,12
653330134808750202,26
653330134816425339,24
653330134824100476,26
653330134831775613,34
653330134839450750,29
653330134847125887,26
653330134854801024,41
653330134862476161,46
653330134870151298,31
653330134877826435,31
653330134885501572,46
653330134893176709,46
653330134900851846,41
653330134908526983,51
653330134916227222,48
653330134923902011,46
653330134931576800,58
653330134939251589,48
653330134946926378,48
653330134954601167,65
653330134962275956,58
653330134969950745,46
653330134977625534,58
653330134985300323,65
653330134992975112,60
653330135000649901,65
653330135008324690,58
653330135015999479,43
653330135023674268,58
653330135031349057,77
653330135039023846,65
653330135046698635,51
653330135054373424,63
653330135062048213,75
653330135069723002,70
653330135077397791,58
653330135085072580,58
653330135092747369,70
653330135100422158,72
653330135108096947,63
653330135115771736,63
653330135123446525,72
653330135131121314,80
653330135138796103,87
653330135146470892,94
653330135154145681,106
653330135161820470,102
653330135169495259,72
653330135177170048,55
653330135184844837,70
653330135192519626,75
653330135200194415,70
653330135207869204,72
653330135215543993,80
653330135223218782,80
653330135230893571,48
653330135238568360,58
653330135246243149,284
653330135253917938,668
653330135261592727,850
653330135269267516,497
653330135276942305,-53
653330135284617094,-109
653330135292291883,104
653330135299966672,58
653330135307641461,-14
653330135315316250,46
653330135322991039,38
653330135330665828,7
653330135338340617,48
653330135346015406,72
653330135353690195,51
653330135361364984,41
653330135369039773,60
653330135376714562,85
653330135384389351,87
653330135392064140,82
653330135399738929,94
653330135407413718,109
653330135415088507,111
653330135422763296,116
653330135430438085,126
653330135438112874,133
653330135445787663,138
653330135453462452,153
653330135461137241,177
653330135468812030,204
653330135476466750,223
653330135484141818,235
653330135491816886,255
653330135499491954,264
653330135507167022,274
653330135514842090,293
653330135522517158,276
653330135530192226,238
653330135537867294,208
653330135545542362,160
653330135553217430,106
653330135560892498,55
653330135568567566,-7
653330135576242634,-41
653330135583917702,-41
653330135591592770,-53
653330135599267838,-60
653330135606942906,-36
653330135614617974,-24
653330135622293042,-29
653330135629968110,-31
653330135637643178,-31
653330135645318246,-17
653330135652993314,-2
653330135660668382,-12
653330135668343450,-14
653330135676018518,9
653330135683693586,21
653330135691368654,21
653330135699043722,24
653330135706718790,21
653330135714393858,31
653330135722068926,34
653330135729743994,12
653330135737419062,2
653330135745094130,14
653330135752769198,14
653330135760444266,14
653330135768119334,24
653330135775794402,31
653330135783469470,29
653330135791144538,24
653330135798819606,17
653330135806494674,29
653330135814169742,41
653330135821844810,34
653330135829519878,34
653330135837194946,48
653330135844870014,53
653330135852545082,46
653330135860220150,38
653330135867895218,41
653330135875570286,51
653330135883245354,48
653330135890920422,55
653330135898595490,65
653330135906270558,65
653330135913945626,58
653330135921620694,68
653330135929295762,80
653330135936970830,55
653330135944645898,41
653330135952320966,68
653330135959996034,77
653330135967671102,65
653330135975346170,72
653330135983021238,87
653330135990696306,99
653330135998371374,104
653330136006046442,82
653330136013721510,55
653330136021396578,53
653330136029071646,53
653330136036761834,55
653330136044436692,68
653330136052111550,70
653330136059786408,82
653330136067461266,87
653330136075136124,53
653330136082810982,51
653330136090485840,216
653330136098160698,578
653330136105835556,864
653330136113510414,643
653330136121185272,36
653330136128860130,-182
653330136136534988,53
653330136144209846,119
653330136151884704,-4
653330136159559562,0
653330136167234420,51
653330136174909278,34
653330136182584136,34
653330136190258994,65
653330136197933852,68
653330136205608710,58
653330136213283568,53
653330136220958426,63
653330136228633284,85
653330136236308142,82
6.5333E+17,70
653330136251657858,82
653330136259332716,97
653330136267007574,92
653330136274682432,92
653330136282357290,116
653330136290032148,140
653330136297707006,157
653330136305381864,174
653330136313056722,206
653330136320731580,233
653330136328406438,238
653330136336081296,252
653330136343756154,276
653330136351431012,293
653330136359105870,301
653330136366780728,293
653330136374455586,279
653330136382130444,242
653330136389805302,170
653330136397480160,94
653330136405155018,43
653330136412829876,0
653330136420504734,-38
653330136428179592,-38
653330136435854450,-34
653330136443529308,-43
653330136451204166,-53
653330136458879024,-41
653330136466553882,-29
653330136474228740,-34
653330136481903598,-38
653330136489578456,-26
653330136497253314,-14
653330136504928172,-14
653330136512603030,-12
653330136520277888,2
653330136527952746,7
653330136535627604,0
653330136543302462,14
653330136550977320,34
653330136558652178,21
653330136566327036,17
653330136574001894,26
653330136581676752,24
653330136589351610,31
653330136597026537,46
653330136604701395,41
653330136612376253,29
653330136620051111,34
653330136627725969,41
653330136635400827,41
653330136643075685,38
653330136650750543,38
653330136658425401,41
653330136666100259,38
653330136673775117,43
653330136681449975,43
653330136689124833,38
653330136696799691,46
653330136704474549,53
653330136712149407,48
653330136719824265,51
653330136727499123,51
653330136735173981,36
653330136742848839,26
653330136750523697,34
653330136758198555,48
653330136765873413,51
653330136773548271,41
653330136781223129,46
653330136788897987,55
653330136796572845,60
653330136804247703,68
653330136811922561,77
653330136819597419,85
653330136827272277,77
653330136834947135,58
653330136842621993,58
653330136850296851,75
653330136857971709,60
653330136865646567,41
653330136873321425,60
653330136880996283,87
653330136888671141,75
653330136896345999,38
653330136904020857,48
653330136911695715,225
653330136919370573,580
653330136927045431,867
653330136934720289,675
653330136942395147,80
653330136950070005,-157
653330136957744863,60
653330136965419721,97
653330136973094579,-19
653330136980769437,19
653330136988444295,68
653330136996119153,34
653330137003794011,24
653330137011468869,48
653330137019143727,60
653330137026818585,60
653330137034493443,65
653330137042168301,68
653330137049843159,70
653330137057518017,87
653330137065192875,104
653330137072867733,102
653330137080542591,104
653330137088217449,128
653330137095892307,136
653330137103567165,121
653330137111242023,131
653330137118916881,165
653330137126591739,191
653330137134266597,208
653330137141941455,228
653330137149616313,245
653330137157286200,272
653330137164961128,296
653330137172636056,296
653330137180310984,296
653330137187985912,301
653330137195660840,286
653330137203335768,238
653330137211010696,172
653330137218685624,114
653330137226360552,58
653330137234035480,2
653330137241710408,-31
653330137249385336,-38
653330137257060264,-43
653330137264735192,-41
653330137272410120,-36
653330137280085048,-36
653330137287759976,-46
653330137295434904,-43
653330137303109832,-31
653330137310784760,-31
653330137318459688,-34
653330137326134616,-31
653330137333809544,-19
653330137341484472,2
653330137349159400,12
653330137356834328,2
653330137364509256,0
653330137372184184,9
653330137379859112,12
653330137387534040,12
653330137395208968,26
653330137402883896,34
653330137410558824,29
653330137418233752,24
653330137425908680,26
653330137433583608,31
653330137441258536,31
653330137448933464,31
653330137456608392,36
653330137464283320,34
653330137471958248,26
653330137479633176,26
653330137487308104,36
653330137494983032,43
653330137502657960,43
653330137510332888,36
653330137518007816,29
653330137525682744,34
653330137533357672,51
653330137541032600,55
653330137548707528,51
653330137556382456,53
653330137564057384,60
653330137571732312,63
653330137579407240,55
653330137587082168,53
653330137594757096,55
653330137602432024,53
653330137610106952,63
653330137617781880,75
653330137625456808,70
653330137633131736,68
653330137640806664,75
653330137648481592,87
653330137656156520,104
653330137663831448,102
653330137671506376,72
653330137679181304,72
653330137686856232,82
653330137694531160,65
653330137702206088,58
653330137709881016,65
653330137717535901,77
653330137725211108,92
653330137732886315,85
653330137740561522,46
653330137748236729,14
653330137755911936,82
653330137763587143,361
653330137771262350,748
653330137778937557,847
653330137786612764,378
653330137794287971,-126
653330137801963178,-60
653330137809638385,123
653330137817313592,14
653330137824988799,-46
653330137832664006,38
653330137840339213,48
653330137848014420,17
653330137855689627,36
653330137863364834,68
653330137871040041,70
653330137878715248,63
653330137886390455,55
653330137894065662,60
653330137901740869,75
653330137909416076,85
653330137917091283,92
653330137924766490,106
653330137932441697,119
653330137940116904,119
653330137947792111,123
653330137955467318,138
653330137963142525,145
653330137970817732,150
653330137978492939,177
653330137986168146,213
653330137993843353,235
653330138001518560,255
653330138009193767,276
653330138016868974,286
653330138024544181,298
653330138032219388,313
653330138039894595,296
653330138047569802,259
653330138055245009,216
653330138062920216,157
653330138070595423,99
653330138078270630,58
653330138085945837,31
653330138093621044,12
653330138101296251,-4
653330138108971458,-14
653330138116646665,-12
653330138124321872,-12
653330138131997079,-9
653330138139672286,0
653330138147347493,2
653330138155022700,-2
653330138162697907,4
653330138170373114,17
653330138178048321,19
653330138185723528,14
653330138193398735,7
653330138201073942,2
653330138208749149,12
653330138216424356,21
653330138224099563,21
653330138231774770,19
653330138239449977,17
653330138247125184,9
653330138254800391,14
653330138262475598,24
653330138270150805,19
653330138277851164,21
653330138285526022,19
653330138293200880,17
653330138300875738,31
653330138308550596,36
653330138316225454,26
653330138323900312,29
653330138331575170,34
653330138339250028,36
653330138346924886,43
653330138354599744,38
653330138362274602,26
653330138369949460,31
653330138377624318,41
653330138385299176,41
653330138392974034,43
653330138400648892,46
653330138408323750,46
653330138415998608,51
653330138423673466,58
653330138431348324,55
653330138439023182,51
653330138446698040,53
653330138454372898,60
653330138462047756,60
653330138469722614,53
653330138477397472,51
653330138485072330,58
653330138492747188,60
653330138500422046,63
653330138508096904,70
653330138515771762,80
653330138523446620,87
653330138531121478,87
653330138538796336,94
653330138546471194,97
653330138554146052,80
653330138561820910,58
653330138569495768,60
653330138577170626,80
653330138584845484,85
653330138592520342,70
653330138600195200,77
653330138607870058,87
653330138615544916,68
653330138623219774,60
653330138630894632,194
653330138638569490,539
653330138646244348,884
653330138653919206,753
653330138661594064,140
653330138669268922,-165
653330138676943780,58
653330138684618638,133
653330138692293496,-7
653330138699968354,9
653330138707643212,72
653330138715318070,41
653330138722992928,36
653330138730667786,72
653330138738342644,70
653330138746017502,58
653330138753692360,60
653330138761367218,60
653330138769042076,63
653330138776716934,77
653330138784391792,85
653330138792066650,92
653330138799741508,104
653330138807416366,121
653330138815091224,133
653330138822766082,126
653330138830440940,133
653330138838115867,160
653330138845790725,182
653330138853465583,191
653330138861140441,216
653330138868815299,252
653330138876490157,279
653330138884165015,281
653330138891839873,286
653330138899514731,301
653330138907189589,308
653330138914864447,293
653330138922539305,247
653330138930214163,177
653330138937889021,119
653330138945563879,77
653330138953238737,31
653330138960913595,-2
653330138968588453,-14
653330138976263311,-14
653330138983938169,-19
653330138991613027,-17
653330138999287885,-9
653330139006962743,-7
653330139014637601,-4
653330139022312459,0
653330139029987317,0
653330139037662175,0
653330139045337033,14
653330139053011891,29
653330139060686749,19
653330139068361607,2
653330139076036465,9
653330139083711323,31
653330139091386181,26
653330139099061039,9
653330139106735897,21
653330139114410755,38
653330139122085613,24
653330139129760471,17
653330139137435329,29
653330139145110187,29
653330139152785045,36
653330139160459903,43
653330139168134761,34
653330139175809619,24
653330139183484477,31
653330139191159335,36
653330139198834193,34
653330139206509051,26
653330139214183909,31
653330139221858767,46
653330139229533625,48
653330139237208483,29
653330139244883341,26
653330139252558199,55
653330139260233057,43
653330139267907915,12
653330139275582773,31
653330139283257631,53
653330139290932489,48
653330139298607347,48
653330139306282205,53
653330139313957063,51
653330139321631921,46
653330139329306779,53
653330139336981637,63
653330139344656495,53
653330139352331353,53
653330139360006211,72
653330139367681069,72
653330139375355927,60
653330139383030785,53
653330139390705643,55
653330139398380570,70
653330139406055428,82
653330139413730286,87
653330139421405144,89
653330139429080002,92
653330139436754860,75
653330139444429718,53
653330139452104576,43
653330139459779434,46
653330139467454292,60
653330139475129150,63
653330139482804008,51
653330139490478866,58
653330139498153724,77
653330139505828582,65
653330139513503440,29
653330139521178298,111
653330139528853156,417
653330139536528014,782
653330139544202872,816
653330139551877730,320
653330139559552588,-136
653330139567227446,-38
653330139574902304,126
653330139582577162,29
653330139590252020,-4
653330139597926878,63
653330139605601736,43
653330139613276594,14
653330139620951452,48
653330139628626310,63
653330139636301168,53
653330139643976026,65
653330139651650884,75
653330139659325742,77
653330139667000600,97
653330139674675458,94
653330139682350316,75
653330139690025174,82
653330139697700032,104
653330139705374890,119
653330139713049748,123
653330139720724606,131
653330139728399464,148
653330139736074322,177
653330139743749180,204
653330139751424038,216
653330139759098896,218
653330139766773754,235
653330139774448612,269
653330139782123470,289
653330139789798328,289
653330139797473186,298
653330139805148044,301
653330139812822902,262
653330139820497760,208
653330139828172618,160
653330139835847476,102
653330139843522334,43
653330139851197192,4
653330139858872050,-14
653330139866546908,-26
653330139874221766,-29
653330139881896624,-26
653330139889571482,-19
653330139897246340,-12
653330139904921198,-17
653330139912596056,-19
653330139920270914,-26
653330139927945772,-29
653330139935620630,-19
653330139943295488,-9
653330139950970346,-9
653330139958645273,-9
653330139966320131,9
653330139973994989,24
653330139981669847,2
653330139989344705,-9
653330139997019563,4
653330140004694421,9
653330140012369279,7
653330140020044137,21
653330140027718995,31
653330140035393853,12
653330140043068711,7
653330140050743569,21
653330140058418427,17
653330140066093285,19
653330140073768143,34
653330140081443001,34
653330140089117859,26
653330140096792717,21
653330140104467575,21
653330140112142433,31
653330140119817291,43
653330140127492149,41
653330140135167007,26
653330140142841865,38
653330140150516723,60
653330140158191581,53
653330140165866439,29
653330140173541297,31
653330140181216155,48
653330140188891013,43
653330140196565871,46
653330140204240729,63
653330140211915587,58
653330140219590445,41
653330140227265303,48
653330140234940161,60
653330140242615019,55
653330140250289877,53
653330140257964735,63
653330140265639593,72
653330140273314451,55
653330140280989309,34
653330140288664167,48
653330140296339025,77
653330140304013883,80
653330140311688741,70
653330140319363599,82
653330140327038457,89
653330140334713315,70
653330140342388173,55
653330140350063031,58
653330140357737889,53
653330140365412747,55
653330140373087605,75
653330140380762463,82
653330140388437321,65
653330140396112179,53
653330140403787037,75
653330140411461895,238
653330140419136753,600
653330140426811611,884
653330140434486469,636
653330140442161327,24
653330140449836185,-162
653330140457511043,68
653330140465185901,92
653330140472860759,-4
653330140480535617,38
653330140488210475,55
653330140495885333,17
653330140503560191,41
653330140511235049,72
653330140518879804,60
653330140526555081,51
653330140534230358,65
653330140541905635,85
653330140549580912,89
653330140557256189,82
653330140564931466,82
653330140572606743,102
653330140580282020,114
653330140587957297,104
653330140595632574,102
653330140603307851,133
653330140610983128,162
653330140618658405,177
653330140626333682,182
653330140634008959,184
653330140641684236,213
653330140649359513,259
653330140657034790,274
653330140664710067,274
653330140672385344,289
653330140680060621,301
653330140687735898,291
653330140695411175,269
653330140703086452,235
653330140710761729,167
653330140718437006,104
653330140726112283,75
653330140733787560,29
653330140741462837,-24
653330140749138114,-43
653330140756813391,-41
653330140764488668,-43
653330140772163945,-43
653330140779839222,-43
653330140787514499,-48
653330140795189776,-46
653330140802865053,-34
653330140810540330,-34
653330140818215607,-36
653330140825890884,-19
653330140833566161,4
653330140841241438,9
653330140848916715,-12
653330140856591992,-7
653330140864267269,14
653330140871942546,21
653330140879617823,21
653330140887293100,29
653330140894968377,38
653330140902643654,29
653330140910318931,21
653330140917994208,24
653330140925669485,19
653330140933344762,19
653330140941020039,34
653330140948695316,36
653330140956370593,34
653330140964045870,36
653330140971721147,34
653330140979396424,36
653330140987071701,58
653330140994746978,55
653330141002422255,34
653330141010097532,36
653330141017772809,55
653330141025448086,63
653330141033123363,51
653330141040798640,43
653330141048473917,58
653330141056149194,70
653330141063824471,60
653330141071499748,51
653330141079205197,63
653330141086880055,80
653330141094554913,72
653330141102229771,55
653330141109904629,63
653330141117579487,77
653330141125254345,70
653330141132929203,51
653330141140604061,48
653330141148278919,63
653330141155953777,63
653330141163628635,51
653330141171303493,55
653330141178978351,63
653330141186653209,63
653330141194328067,65
653330141202002925,75
653330141209677783,77
653330141217352641,85
653330141225027499,99
653330141232702357,97
653330141240377215,72
653330141248052073,55
653330141255726931,70
653330141263401789,82
653330141271076647,60
653330141278751505,46
653330141286426363,65
653330141294101221,75
653330141301776079,43
653330141309450937,31
653330141317125795,174
653330141324800653,519
653330141332475511,859
653330141340150369,765
653330141347825227,177
653330141355500085,-170
653330141363174943,24
653330141370849801,126
653330141378524659,4
653330141386199517,14
653330141393874375,77
653330141401549233,46
653330141409224091,24
653330141416898949,46
653330141424573807,43
653330141432248665,38
653330141439923523,63
653330141447598381,77
653330141455273239,82
653330141462948097,97
653330141470622955,99
653330141478297813,89
653330141485972671,97
653330141493647529,116
653330141501322387,126
653330141508997245,131
653330141516672103,138
653330141524346961,155
653330141532021819,177
653330141539696677,199
653330141547371535,213
653330141555046393,225
653330141562721251,250
653330141570396109,274
653330141578070967,289
653330141585745825,286
653330141593420683,289
653330141601095541,284
653330141608770399,242
653330141616445257,184
653330141624120115,138
653330141631794973,77
653330141639469900,17
653330141647144758,-14
653330141654819616,-31
653330141662494474,-36
653330141670169332,-29
653330141677844190,-36
653330141685519048,-43
653330141693193906,-29
653330141700868764,-14
653330141708543622,-12
653330141716218480,-7
653330141723893338,-12
653330141731568196,-31
653330141739243054,-24
653330141746917912,4
653330141754592770,19
653330141762267628,29
653330141769942486,38
653330141777617344,4
653330141785292202,-29
653330141792967060,2
653330141800641918,34
653330141808316776,17
653330141815991634,14
653330141823666492,34
653330141831341350,41
653330141839016208,46
653330141846691066,48
653330141854365924,31
653330141862040782,21
653330141869715640,31
653330141877390498,43
653330141885065356,51
653330141892740214,53
653330141900415072,43
653330141908089930,38
653330141915764788,51
653330141923439646,58
653330141931114504,58
653330141938789362,48
653330141946464220,36
653330141954139078,53
653330141961813936,72
653330141969488794,72
653330141977163652,63
653330141984838510,68
653330141992513368,72
653330142000188226,68
653330142007863084,63
653330142015537942,63
653330142023212800,68
653330142030887658,72
653330142038562516,77
653330142046237374,85
653330142053912232,87
653330142061587090,80
653330142069261948,72
653330142076936806,80
653330142084611664,89
653330142092286522,80
653330142099961380,77
653330142107636238,80
653330142115311096,82
653330142122985954,89
653330142130660812,104
653330142138335670,102
653330142146010528,89
653330142153685386,97
653330142161360244,102
653330142169035102,80
653330142176709960,65
653330142184384818,75
653330142192059676,82
653330142199734603,87
653330142207409461,92
653330142215084319,85
653330142222759177,72
653330142230434035,55
653330142238108893,143
653330142245783751,463
653330142253458609,842
653330142261133467,830
653330142268808325,279
653330142276483183,-145
653330142284158041,-14
653330142291832899,131
653330142299507757,29
653330142307182615,-7
653330142314857473,36
653330142322532331,29
653330142330207189,26
653330142337882047,46
653330142345556905,48
653330142353231763,55
653330142360906621,70
653330142368581479,65
653330142376256337,58
653330142383931195,70
653330142391606053,85
653330142399280911,92
653330142406955769,89
653330142414630627,97
653330142422305485,116
653330142429980343,133
653330142437655201,131
653330142445330059,126
653330142453004917,140
653330142460679775,170
653330142468354633,196
653330142476029491,221
653330142483704349,242
653330142491379207,242
653330142499054065,245
653330142506728923,276
653330142514403781,286
653330142522078639,264
653330142529753497,238
653330142537428355,201
653330142545103213,148
653330142552778071,80
653330142560452929,19
653330142568127787,-9
653330142575802645,-12
653330142583477503,-19
653330142591152361,-34
653330142598827219,-31
653330142606502077,-12
653330142614176935,-12
653330142621851793,-26
653330142629526651,-21
653330142637201509,-17
653330142644876367,-14
653330142652551225,4
653330142660226083,14
653330142667900941,7
653330142675575799,17
653330142683250657,34
653330142690925515,24
653330142698600373,9
653330142706275231,19
653330142713950089,36
653330142721624947,46
653330142729299805,46
653330142736974663,43
653330142744649521,53
653330142752324379,63
653330142759999306,48
653330142767674164,31
653330142775349022,38
653330142783023880,48
653330142790698738,38
653330142798373596,24
653330142806048454,24
653330142813723312,41
653330142821398170,51
653330142829073028,41
653330142836747886,24
653330142844422744,34
653330142852097602,58
653330142859772460,60
653330142867447318,46
653330142875122176,38
653330142882797034,43
653330142890471892,65
653330142898146750,72
653330142905821608,43
653330142913496466,29
653330142921171324,55
653330142928846182,77
653330142936521040,65
653330142944195898,51
653330142951870756,63
653330142959545614,77
653330142967220472,75
653330142974895330,72
653330142982570188,65
653330142990245046,55
653330142997919904,60
653330143005594762,80
653330143013269620,80
653330143020944478,72
653330143028619336,77
653330143036294194,89
653330143043969052,85
653330143051643910,75
653330143059318768,85
653330143066993626,87
653330143074668484,89
653330143082343342,104
653330143090018200,102
653330143097693058,87
653330143105367916,77
653330143113042774,68
653330143120717632,68
653330143128392490,77
653330143136067348,75
653330143143742206,72
653330143151417064,75
653330143159091922,53
653330143166766780,55
653330143174441638,223
653330143182116496,587
653330143189791354,884
653330143197466212,689
653330143205141070,87
653330143212815928,-150
653330143220490786,77
653330143228165644,116
653330143235840502,-19
653330143243515360,17
653330143251190218,75
653330143258865076,41
653330143266539934,31
653330143274214792,53
653330143281889650,53
653330143289564508,48
653330143297239366,55
653330143304914224,55
653330143312589082,60
653330143320264009,68
653330143327938867,68
653330143335613725,77
653330143343288583,92
653330143350963441,94
653330143358638299,94
653330143366313157,99
653330143373988015,104
653330143381662873,121
653330143389337731,140
653330143397012589,153
653330143404687447,162
653330143412362305,191
653330143420037163,228
653330143427712021,233
653330143435386879,245
653330143443061737,274
653330143450736595,279
653330143458411453,255
653330143466086311,223
653330143473761169,172
653330143481436027,116
653330143489110885,65
653330143496785743,19
653330143504460601,-14
653330143512135459,-36
653330143519810317,-38
653330143527485175,-36
653330143535160033,-51
653330143542834891,-43
653330143550509749,-21
653330143558184607,-21
653330143565859465,-29
653330143573534323,-17
653330143581209181,-7
653330143588884039,-9
653330143596558897,2
653330143604233755,14
653330143611908613,9
653330143619583471,9
653330143627258329,29
653330143634933187,34
653330143642608045,17
653330143650282903,19
653330143657957761,34
653330143665632619,41
653330143673307477,46
653330143680982335,38
653330143688657193,29
653330143696332051,38
653330143704006909,46
653330143711681767,43
653330143719356625,36
653330143727031483,41
653330143734706341,58
653330143742381199,60
653330143750056057,43
653330143757730915,43
653330143765405773,58
653330143773080631,60
653330143780755489,48
653330143788430347,46
653330143796105205,46
653330143803780063,46
653330143811454921,53
653330143819129779,58
653330143826804637,48
653330143834479495,46
653330143842154353,60
653330143849829211,65
653330143857504069,48
653330143865178927,43
653330143872853785,53
653330143880528712,63
653330143888203570,65
653330143895878428,63
653330143903553286,58
653330143911228144,55
653330143918903002,58
653330143926577860,55
653330143934252718,65
653330143941927576,82
653330143949602434,92
653330143957277292,82
653330143964952150,68
653330143972627008,68
653330143980301866,70
653330143987976724,51
653330143995651582,51
653330144003326440,70
653330144011001298,72
653330144018676156,72
653330144026351014,72
653330144034025872,48
653330144041700730,92
653330144049375588,342
653330144057050446,719
653330144064725304,867
653330144072400162,480
653330144080075020,-65
653330144087749878,-104
653330144095424736,104
653330144103099594,63
653330144110774452,-12
653330144118449310,38
653330144126124168,51
653330144133799026,21
653330144141473884,38
653330144149148742,60
653330144156823600,53
653330144164498458,55
653330144172173316,75
653330144179848174,85
653330144187523032,80
653330144195197890,82
653330144202872748,80
653330144210547606,85
653330144218222464,106
653330144225897322,114
653330144233572180,109
653330144241247038,121
653330144248921896,140
653330144256596754,150
653330144264271612,165
653330144271946470,189
653330144279621328,216
653330144287296186,240
653330144294971044,250
653330144302645902,257
653330144310320760,281
653330144317995618,289
653330144325670476,257
653330144333345334,228
653330144341020192,208
653330144348695050,162
653330144356369908,87
653330144364044766,26
653330144371719624,-4
653330144379394482,-26
653330144387069340,-38
653330144394744198,-46
653330144402419056,-51
653330144410093914,-41
653330144417768772,-34
653330144425443630,-36
653330144433118488,-24
653330144440793415,-4
653330144448468273,-4
653330144456143131,-14
653330144463817989,-4
653330144471492847,7
653330144479167705,4
653330144486842563,0
653330144494517421,9
653330144502192279,14
653330144509867137,4
653330144517541995,9
653330144525216853,24
653330144532891711,29
653330144540566569,17
653330144548241427,17
653330144555916285,34
653330144563591143,53
653330144571266001,51
653330144578940859,46
653330144586615717,53
653330144594290575,48
653330144601965433,31
653330144609640291,9
653330144617315149,29
653330144624990007,70
653330144632664865,43
653330144640339723,14
653330144648014581,55
653330144655689439,63
653330144663364297,38
653330144671039155,58
653330144678714013,58
653330144686388871,34
653330144694063729,65
653330144701738587,99
653330144709413445,80
653330144717088303,46
653330144724763161,31
653330144732438019,48
653330144740112877,85
653330144747787735,104
653330144755462593,77
653330144763137451,63
653330144770812309,109
653330144778487167,114
653330144786162025,82
653330144793836883,89
653330144801511741,82
653330144809186599,53
653330144816861457,68
653330144824536315,104
653330144832211173,85
653330144839886031,38
653330144847560889,36
653330144855235747,55
653330144862910605,55
653330144870585463,51
653330144878260321,43
653330144885935179,41
653330144893610037,82
653330144901284895,77
653330144908959753,41
653330144916634611,228
653330144924309469,629
653330144931984327,869
653330144939659185,583
653330144947334043,-2
653330144955008901,-162
653330144962683759,63
653330144970358617,77
653330144978033475,0
653330144985708333,55
653330144993383191,65
653330145001058118,24
653330145008732976,34
653330145016407834,26
653330145024082692,31
653330145031757550,87
653330145039432408,89
653330145047107266,55
653330145054782124,77
653330145062456982,102
653330145070131840,82
653330145077806698,72
653330145085481556,104
653330145093156414,123
653330145100831272,106
653330145108506130,104
653330145116180988,133
653330145123855846,170
653330145131530704,165
653330145139205562,165
653330145146880420,228
653330145154555278,252
653330145162230136,216
653330145169904994,247
653330145177579852,303
653330145185254710,276
653330145192929568,245
653330145200604426,272
653330145208279284,242
653330145215954142,172
6.5333E+17,123
653330145231303858,72
653330145238978716,34
653330145246653574,2
653330145254328432,-36
653330145262003290,-26
653330145269678148,0
653330145277353006,-14
653330145285027864,-24
653330145292702722,-24
653330145300377580,-24
653330145308052438,-7
653330145315727296,-2
653330145323402154,2
653330145331077012,19
653330145338751870,-2
653330145346426728,-9
653330145354101586,17
653330145361776444,12
653330145369451302,17
653330145377126160,51
653330145384801018,51
653330145392475876,46
653330145400150734,53
653330145407825592,38
653330145415500450,34
653330145423175308,53
653330145430850166,55
653330145438525024,43
653330145446199882,48
653330145453874740,58
653330145461549598,68
653330145469224456,70
653330145476899314,63
653330145484574172,68
653330145492249030,68
653330145499923888,55
653330145507598746,65
653330145515273604,72
653330145522948462,63
653330145530623320,58
653330145538298178,80
653330145545973036,102
653330145553647894,77
653330145561322821,60
653330145568997679,68
653330145576672537,65
653330145584347395,82
653330145592022253,94
653330145599697111,58
653330145607371969,43
653330145615046827,75
653330145622721685,85
653330145630396543,60
653330145638071401,55
653330145645746259,89
653330145653421117,121
653330145661095975,102
653330145668770833,55
653330145676445691,51
653330145684120549,63
653330145691795407,70
653330145699470265,77
653330145707145123,82
653330145714819981,80
653330145722494839,77
653330145730169697,70
653330145737844555,53
653330145745519413,89
653330145753194271,298
653330145760869129,651
653330145768543987,835
653330145776218845,502
653330145783893703,-38
653330145791568561,-114
653330145799243419,97
653330145806918277,82
653330145814593135,9
653330145822267993,58
653330145829942851,70
653330145837617709,17
653330145845292567,17
653330145852967425,36
653330145860642283,38
653330145868317141,72
653330145875991999,85
653330145883666857,53
653330145891341715,55
653330145899016573,80
653330145906691431,87
653330145914366289,109
653330145922041147,121
653330145929716005,97
653330145937390863,104
653330145945065721,143
653330145952740579,133
653330145960415437,143
653330145968090295,194
653330145975765153,208
653330145983440011,211
653330145991114869,242
653330145998789727,274
653330146006464585,281
653330146014139443,279
653330146021814301,281
653330146029489159,284
653330146037164017,267
653330146044838875,225
653330146052513733,182
653330146060188591,111
653330146067863449,26
653330146075538307,-9
653330146083213165,-9
653330146090888023,-43
653330146098562881,-75
653330146106237739,-58
653330146113912597,-46
653330146121587524,-63
653330146129262382,-58
653330146136937240,-26
653330146144612098,-19
653330146152286956,-29
653330146159961814,-24
653330146167636672,-21
653330146175311530,-24
653330146182986388,-9
653330146190661246,2
653330146198336104,-4
653330146206010962,-14
653330146213685820,-12
653330146221360678,-14
653330146229035536,2
653330146236710394,19
653330146244385252,0
653330146252060110,7
653330146259734968,31
653330146267409826,21
653330146275084684,4
653330146282759542,24
653330146290434400,26
653330146298109258,2
653330146305784116,14
653330146313458974,43
653330146321133832,41
653330146328808690,24
653330146336483548,12
653330146344158406,19
653330146351833264,19
653330146359508122,2
653330146367182980,17
653330146374857838,51
653330146382532696,48
653330146390207554,36
653330146397882412,36
653330146405557270,36
653330146413232128,38
653330146420906986,55
653330146428581844,58
653330146436256702,51
653330146443931560,82
653330146451606418,99
653330146459281276,68
653330146466956134,43
653330146474630992,46
653330146482305850,53
653330146489980708,46
653330146497655566,46
653330146505330424,80
653330146513005282,92
653330146520680140,46
653330146528354998,34
653330146536029856,204
653330146543704714,553
653330146551379572,828
653330146559054430,638
653330146566729288,70
653330146574404146,-167
653330146582079004,36
653330146589753862,89
653330146597428720,-9
653330146605103578,19
653330146612778436,60
653330146620453294,36
653330146628128152,26
653330146635803010,43
653330146643477868,53
653330146651152726,58
653330146658827584,68
653330146666502442,58
653330146674177300,63
653330146681882323,97
653330146689556763,99
653330146697231203,87
653330146704905643,111
653330146712580083,131
653330146720254523,114
653330146727928963,109
653330146735603403,131
653330146743277843,157
653330146750952283,177
653330146758626723,194
653330146766301163,218
653330146773975603,245
653330146781650043,267
653330146789324483,289
653330146796998923,289
653330146804673363,298
653330146812347803,308
653330146820022243,274
653330146827696683,216
653330146835371123,155
653330146843045563,99
653330146850720003,55
653330146858394443,14
653330146866068883,-19
653330146873743323,-19
653330146881417763,-24
653330146889092203,-41
653330146896766643,-31
653330146904441083,-17
653330146912115523,-9
653330146919789963,7
653330146927464403,-7
653330146935138843,-29
653330146942813283,-2
653330146950487723,17
653330146958162163,2
653330146965836603,4
653330146973511043,21
653330146981185483,24
653330146988859923,31
653330146996534363,46
653330147004208803,31
653330147011883243,0
653330147019557683,4
653330147027232123,38
653330147034906563,46
653330147042581003,24
653330147050255443,26
653330147057929883,29
653330147065604323,7
653330147073278763,0
653330147080953203,12
653330147088627643,19
653330147096302083,14
653330147103976523,9
653330147111650963,26
653330147119325403,29
653330147126999843,12
653330147134674283,26
653330147142348723,41
653330147150023163,24
653330147157697603,21
653330147165372043,48
653330147173046483,41
653330147180720923,7
653330147188395363,29
653330147196069803,68
653330147203744243,55
653330147211418683,41
653330147219093123,58
653330147226767563,70
653330147234442003,65
653330147242086336,51
653330147249761195,53
653330147257436054,58
653330147265110913,36
653330147272785772,38
653330147280460631,68
653330147288135490,51
653330147295810349,31
653330147303485208,43
653330147311160067,60
653330147318834926,228
653330147326509785,604
653330147334184644,830
653330147341859503,500
653330147349534362,-77
653330147357209221,-165
653330147364884080,82
653330147372558939,60
653330147380233798,-60
653330147387908657,-2
653330147395583516,43
653330147403258375,7
653330147410933234,12
653330147418608093,36
653330147426282952,43
653330147433957811,55
653330147441632670,60
653330147449307529,43
653330147456982388,31
653330147464657247,63
653330147472332106,102
653330147480006965,92
653330147487681824,94
653330147495356683,128
653330147503031542,131
653330147510706401,123
653330147518381260,153
653330147526056119,167
653330147533730978,162
653330147541405837,204
653330147549080696,245
653330147556755555,252
653330147564430414,264
653330147572105273,296
653330147579780132,310
653330147587454991,281
653330147595129850,262
653330147602804709,262
653330147610479568,223
653330147618154427,165
653330147625829286,114
653330147633504145,53
653330147641179004,4
653330147648853863,-9
653330147656528722,-4
653330147664203581,-2
653330147671878440,-4
653330147679553299,-19
653330147687228158,-29
653330147694903017,-7
653330147702577876,9
653330147710252735,-7
653330147717927594,-12
653330147725602453,7
653330147733277312,17
653330147740952171,19
653330147748627030,24
653330147756301889,31
653330147763976748,51
653330147771651607,46
653330147779326466,21
653330147787001325,29
653330147794676184,48
653330147802351115,38
653330147810025973,34
653330147817700831,34
653330147825375689,21
653330147833050547,31
653330147840725405,46
653330147848400263,24
653330147856075121,24
653330147863749979,48
653330147871424837,21
653330147879099695,-19
653330147886774553,-7
653330147894449411,9
653330147902124269,12
653330147909799127,31
653330147917473985,31
653330147925148843,17
653330147932823701,21
653330147940498559,12
653330147948173417,17
653330147955848275,31
653330147963523133,14
653330147971197991,34
653330147978872849,58
653330147986547707,12
653330147994222565,12
653330148001897423,72
653330148009572281,75
653330148017247139,55
653330148024921997,72
653330148032596855,63
653330148040271713,24
653330148047946571,31
653330148055621429,63
653330148063296287,58
653330148070971145,38
653330148078646003,53
653330148086320861,70
653330148093995719,48
653330148101670577,19
653330148109345435,131
653330148117020293,466
653330148124695151,806
653330148132370009,723
653330148140044867,182
653330148147719725,-160
653330148155394583,0
653330148163069441,116
653330148170744299,12
653330148178419157,7
653330148186094015,55
653330148193768873,4
653330148201443731,-7
653330148209118589,58
653330148216793447,70
653330148224468305,46
653330148232143163,51
653330148239818021,82
653330148247492879,82
653330148255167737,43
653330148262842595,51
653330148270517453,106
653330148278192311,111
653330148285867169,97
653330148293542027,121
653330148301216885,121
653330148308891743,102
653330148316566601,138
653330148324241459,187
653330148331916317,191
653330148339591175,194
653330148347266033,204
653330148354940891,230
653330148362615818,259
653330148370290676,269
653330148377965534,279
653330148385640392,291
653330148393315250,279
653330148400990108,211
653330148408664966,136
653330148416339824,116
653330148424014682,89
653330148431689540,21
653330148439364398,-31
653330148447039256,-38
653330148454714114,-24
653330148462388972,-34
653330148470063830,-48
653330148477738688,-53
653330148485413546,-36
653330148493088404,-4
653330148500763262,2
653330148508438120,-7
653330148516112978,-17
653330148523787836,-4
653330148531462694,17
653330148539137552,0
653330148546812410,-9
653330148554487268,34
653330148562162126,51
653330148569836984,26
653330148577511842,19
653330148585186700,38
653330148592861558,46
653330148600536416,41
653330148608211274,46
653330148615886132,48
653330148623560990,55
653330148631235848,65
653330148638910706,43
653330148646585564,36
653330148654260422,60
653330148661935280,53
653330148669610138,24
653330148677284996,46
653330148684959854,72
653330148692634712,51
653330148700309570,34
653330148707984428,53
653330148715659286,63
653330148723334144,48
653330148731009002,41
653330148738683860,38
653330148746358718,43
653330148754033576,60
653330148761708434,51
653330148769383292,26
653330148777058150,36
653330148784733008,58
653330148792407866,46
653330148800082724,29
653330148807757582,48
653330148815432440,70
653330148823107298,60
653330148830782156,53
653330148838457014,53
653330148846131872,38
653330148853806730,29
653330148861481588,14
653330148869156446,19
653330148876831304,41
653330148884506162,36
653330148892181020,31
653330148899855878,53
653330148907530736,48
653330148915205594,75
653330148922910617,303
653330148930585057,680
653330148938259497,813
653330148945933937,386
653330148953608377,-136
653330148961282817,-92
653330148968957257,128
653330148976631697,43
653330148984306137,-31
653330148991980577,38
653330148999655017,43
653330149007329457,9
653330149015003897,29
653330149022678337,48
653330149030352777,29
653330149038027217,29
653330149045701657,58
653330149053376097,82
653330149061050537,72
653330149068724977,48
653330149076399417,51
653330149084073857,92
653330149091748297,119
653330149099422737,114
653330149107097177,109
653330149114771617,123
653330149122446057,143
653330149130120497,170
653330149137794937,182
653330149145469377,182
653330149153143817,208
653330149160818257,242
653330149168492697,250
653330149176167137,272
653330149183841577,301
653330149191516017,303
653330149199190457,279
653330149206864897,242
653330149214539337,204
653330149222213777,157
653330149229888217,89
653330149237562657,12
653330149245237097,-19
653330149252911537,-9
653330149260585977,-12
653330149268260417,-19
653330149275934857,-9
653330149283609297,-7
653330149291283737,-21
653330149298958177,-17
653330149306632617,-12
653330149314307057,-12
653330149321981497,-7
653330149329655937,-2
653330149337330377,14
653330149345004817,26
653330149352679257,17
653330149360353697,12
653330149368028137,0
653330149375702577,0
653330149383377017,34
653330149391051457,48
653330149398725897,26
653330149406400337,24
653330149414074777,26
653330149421749217,26
653330149429423657,41
653330149437098097,29
653330149444772537,24
653330149452446977,48
653330149460121417,36
653330149467795857,9
653330149475470297,34
653330149483114706,65
653330149490789564,41
653330149498464422,2
653330149506139280,36
653330149513814138,85
653330149521488996,60
653330149529163854,17
653330149536838712,34
653330149544513570,53
653330149552188428,29
653330149559863286,7
653330149567538144,34
653330149575213002,58
653330149582887860,38
653330149590562718,34
653330149598237576,51
653330149605912434,43
653330149613587292,34
653330149621262150,38
653330149628937008,55
653330149636611866,60
653330149644286724,43
653330149651961582,29
653330149659636440,29
653330149667311298,29
653330149674986156,31
653330149682661014,41
653330149690335872,48
653330149698010730,48
653330149705685588,36
653330149713360446,26
653330149721035304,170
653330149728710162,522
653330149736385020,818
653330149744059878,648
653330149751734736,80
653330149759409594,-179
653330149767084452,26
653330149774759310,106
653330149782434168,-17
653330149790109026,-14
653330149797783884,46
653330149805458742,19
653330149813133600,0
653330149820808458,31
653330149828483316,46
653330149836158174,46
653330149843833032,63
653330149851507890,58
653330149859182748,36
653330149866857606,43
653330149874532464,58
653330149882207322,68
653330149889882180,99
653330149897557038,114
653330149905231896,97
653330149912906754,102
653330149920581612,128
653330149928256470,150
653330149935931328,170
653330149943606186,191
653330149951281044,216
653330149958955902,228
653330149966630760,247
653330149974305618,286
653330149981980476,306
653330149989655334,310
653330149997330192,315
653330150005005050,286
653330150012679908,242
653330150020354766,174
653330150028029624,89
653330150035704482,55
653330150043379409,51
653330150051054267,-7
653330150058729125,-43
653330150066403983,9
653330150074078841,4
653330150081753699,-72
653330150089428557,-63
653330150097103415,-7
653330150104778273,-9
653330150112453131,-26
653330150120127989,-17
653330150127802847,-9
653330150135477705,-2
653330150143152563,7
653330150150827421,9
653330150158502279,14
653330150166177137,7
653330150173851995,2
653330150181526853,26
653330150189201711,38
653330150196876569,38
653330150204551427,48
653330150212226285,36
653330150219901143,34
653330150227576001,48
653330150235250859,26
653330150242925717,7
653330150250600575,29
653330150258275433,48
653330150265950291,48
653330150273625149,46
653330150281300007,46
653330150288974865,43
653330150296649723,26
653330150304324581,24
653330150311999439,70
653330150319674297,70
653330150327349155,19
653330150335024013,36
653330150342698871,60
653330150350373729,9
653330150358048587,-14
653330150365723445,36
653330150373398303,53
653330150381073161,26
653330150388748019,21
653330150396422877,24
653330150404097735,19
653330150411772593,46
653330150419447451,77
653330150427122309,60
653330150434797167,26
653330150442472025,31
653330150450146883,29
653330150457821741,14
653330150465496599,26
653330150473171457,31
653330150480846315,24
653330150488521173,51
653330150496196031,48
653330150503870889,17
653330150511545747,155
653330150519220605,512
653330150526895463,811
653330150534570321,658
653330150542245179,109
653330150549920037,-160
653330150557594895,29
653330150565269753,97
653330150572944611,-34
653330150580619469,-17
653330150588294327,60
653330150595969185,29
653330150603644112,4
653330150611318970,34
653330150618993828,53
653330150626668686,48
653330150634343544,48
653330150642018402,53
653330150649693260,53
653330150657368118,60
653330150665042976,77
653330150672717834,82
653330150680392692,75
653330150688067550,87
653330150695742408,123
653330150703417266,138
653330150711092124,116
653330150718766982,128
653330150726441840,191
653330150734116698,204
653330150741791556,182
653330150749466414,223
653330150757141272,279
653330150764816130,284
653330150772490988,272
653330150780165846,262
653330150787840704,262
653330150795515562,269
653330150803190420,240
653330150810865278,165
653330150818540136,92
653330150826214994,65
653330150833889852,48
653330150841564710,17
653330150849239568,0
653330150856914426,-4
653330150864589284,-24
653330150872264142,-38
6.5333E+17,-19
653330150887613858,2
653330150895288716,7
653330150902963574,-17
653330150910638432,-43
653330150918313290,-21
653330150925988148,2
653330150933663006,4
653330150941337864,26
653330150949012722,41
653330150956687580,36
653330150964362438,26
653330150972037296,17
653330150979712154,36
653330150987387012,53
653330150995061870,41
653330151002736728,24
653330151010411586,26
653330151018086444,41
653330151025761302,38
653330151033436160,26
653330151041111018,38
653330151048785876,51
653330151056460734,43
653330151064135592,34
653330151071810450,38
653330151079485308,60
653330151087160166,55
653330151094835024,26
653330151102509882,26
653330151110184740,48
653330151117859598,55
653330151125534456,63
653330151133209314,65
653330151140884172,38
653330151148559030,29
653330151156233888,41
653330151163938911,26
653330151171613351,21
653330151179287791,53
653330151186962231,53
653330151194636671,17
653330151202311111,31
653330151209985551,68
653330151217659991,48
653330151225334431,36
653330151233008871,60
653330151240683311,48
653330151248357751,19
653330151256032191,31
653330151263706631,51
653330151271381071,29
653330151279055511,12
653330151286729951,38
653330151294404391,65
653330151302078831,43
653330151309753271,9
653330151317427711,106
653330151325102151,400
653330151332776591,745
653330151340451031,772
653330151348125471,272
653330151355799911,-182
653330151363474351,-60
653330151371148791,116
653330151378823231,2
653330151386497671,-38
653330151394172111,34
653330151401846551,38
653330151409520991,34
653330151417195431,38
653330151424869871,19
653330151432544311,19
653330151440218751,41
653330151447893191,60
653330151455567631,68
653330151463242071,72
653330151470916511,85
653330151478590951,94
653330151486265391,85
653330151493939831,87
653330151501614271,109
653330151509288711,116
653330151516963151,104
653330151524637591,114
653330151532312031,160
653330151539986471,191
653330151547660911,201
653330151555335351,221
653330151563009791,255
653330151570684231,274
653330151578358671,274
653330151586033111,279
653330151593707551,281
653330151601381991,259
653330151609056431,223
653330151616730871,191
653330151624405311,140
653330151632079751,72
653330151639754191,41
653330151647428631,43
653330151655103071,24
653330151662777511,-14
653330151670451951,-24
653330151678126391,-9
653330151685800831,-7
653330151693475271,-19
653330151701149711,-9
653330151708824151,4
653330151716498591,14
6.5333E+17,36
653330151731817858,46
653330151739492716,31
653330151747167574,9
653330151754842432,17
653330151762517290,55
653330151770192148,63
653330151777867006,34
653330151785541864,26
653330151793216722,38
653330151800891580,46
653330151808566438,41
653330151816241296,29
653330151823916154,34
653330151831591012,53
653330151839265870,48
653330151846940728,31
653330151854615586,36
653330151862290444,53
653330151869965302,58
653330151877640160,46
653330151885315018,34
653330151892989876,41
653330151900664734,43
653330151908339592,36
653330151916014450,41
653330151923689308,43
653330151931364166,29
653330151939039024,26
653330151946713882,41
653330151954388740,48
653330151962063598,48
653330151969738456,43
653330151977413314,17
653330151985088172,12
653330151992763030,41
653330152000437888,41
653330152008112746,9
653330152015787604,17
653330152023462462,53
653330152031137320,63
653330152038812178,51
653330152046487036,43
653330152054161894,63
653330152061836752,77
653330152069511610,53
653330152077186468,31
653330152084861326,41
653330152092536184,38
653330152100211042,34
653330152107885900,48
653330152115560758,55
653330152123235616,58
653330152130910474,51
653330152138585332,34
653330152146260190,128
653330152153935048,444
653330152161609906,779
653330152169284764,685
653330152176959622,136
653330152184634480,-174
653330152192309338,17
653330152199984196,121
653330152207659054,-12
653330152215333912,-17
653330152223008770,77
653330152230683628,53
653330152238358486,-7
653330152246033344,21
653330152253708202,75
653330152261383060,48
653330152269057918,12
653330152276732776,48
653330152284407703,85
653330152292082561,72
653330152299757419,75
653330152307432277,80
653330152315107135,70
653330152322781993,94
653330152330456851,128
653330152338131709,123
653330152345806567,126
653330152353481425,153
653330152361156283,155
653330152368831141,167
653330152376505999,208
653330152384180857,208
653330152391855715,208
653330152399530573,250
653330152407205431,262
653330152414880289,262
653330152422555147,286
653330152430230005,276
653330152437904863,216
653330152445579721,157
653330152453254579,109
653330152460929437,55
653330152468604295,26
653330152476279153,14
653330152483954011,-21
653330152491628869,-53
653330152499303727,-38
653330152506978585,-26
653330152514653443,-19
653330152522328301,-7
653330152530003159,-26
653330152537678017,-38
653330152545352875,-4
653330152553027733,12
653330152560702591,0
653330152568377449,9
653330152576052307,12
653330152583727165,7
653330152591402023,24
653330152599076881,43
653330152606751739,48
653330152614426597,36
653330152622101455,21
653330152629776313,21
653330152637451171,31
653330152645126029,51
653330152652800887,60
653330152660475745,41
653330152668150603,29
653330152675825461,29
653330152683500319,31
653330152691175177,41
653330152698850035,48
653330152706524893,38
653330152714199751,31
653330152721874609,38
653330152729549467,48
653330152737224325,43
653330152744899183,29
653330152752574041,29
653330152760248899,41
653330152767923757,43
653330152775598615,26
653330152783273473,7
653330152790948331,26
653330152798623189,43
653330152806298047,29
653330152813972905,34
653330152821647763,43
653330152829322621,41
653330152836997479,43
653330152844667366,58
653330152852342294,70
653330152860017222,51
653330152867692150,46
653330152875367078,58
653330152883042006,17
653330152890716934,-4
653330152898391862,41
653330152906066790,65
653330152913741718,43
653330152921416646,24
653330152929091574,26
653330152936766502,24
653330152944441430,24
653330152952116358,155
653330152959791286,463
653330152967466214,762
653330152975141142,680
653330152982816070,121
653330152990490998,-225
653330152998165926,-17
653330153005840854,106
653330153013515782,-21
653330153021190710,-4
653330153028865638,55
653330153036540566,2
653330153044215494,0
653330153051890422,53
653330153059565350,53
653330153067240278,43
653330153074915206,68
653330153082590134,77
653330153090265062,63
653330153097939990,60
653330153105614918,70
653330153113289846,70
653330153120964774,85
653330153128639702,116
653330153136314630,116
653330153143989558,97
653330153151664486,123
653330153159339414,167
653330153167014342,162
653330153174689270,177
653330153182364198,230
653330153190039126,235
653330153197714054,235
653330153205388982,289
653330153213063910,301
653330153220738838,269
653330153228413766,264
653330153236088694,264
653330153243763622,233
653330153251438550,179
653330153259113478,123
653330153266788406,68
653330153274463334,17
653330153282138262,-17
653330153289813190,-24
653330153297488118,-26
653330153305163046,-34
653330153312837974,-19
653330153320512902,2
653330153328187830,-14
653330153335862758,-51
653330153343537686,-31
653330153351212614,9
653330153358887542,2
653330153366562470,14
653330153374237398,55
653330153381912326,19
653330153389587254,-29
653330153397262182,24
653330153404917064,60
653330153412592271,7
653330153420267478,4
653330153427942685,58
653330153435617892,48
653330153443293099,21
653330153450968306,21
653330153458643513,21
653330153466318720,24
653330153473993927,19
653330153481669134,21
653330153489344341,34
653330153497019548,17
653330153504694755,7
653330153512369962,38
653330153520045169,41
653330153527720376,7
653330153535395583,19
653330153543070790,53
653330153550745997,36
653330153558421204,21
653330153566096411,38
653330153573771618,31
653330153581446825,19
653330153589122032,24
653330153596797239,21
653330153604472446,26
653330153612147653,48
653330153619822860,51
653330153627498067,46
653330153635173274,55
653330153642848481,72
653330153650523688,58
653330153658198895,24
653330153665874102,17
653330153673549309,31
653330153681224516,41
653330153688899723,53
653330153696574930,58
653330153704250137,55
653330153711925344,24
653330153719600551,31
653330153727275758,225
653330153734950965,597
653330153742626172,838
653330153750301379,536
653330153757976586,-51
653330153765651793,-148
6.5333E+17,94
653330153781002207,72
653330153788677414,-29
653330153796352621,29
653330153804027828,53
653330153811703035,14
653330153819378242,29
653330153827053449,55
653330153834728656,48
653330153842403863,53
653330153850079070,70
653330153857754277,65
653330153865429484,65
653330153873104691,94
653330153880779898,104
653330153888455105,82
653330153896130312,82
653330153903805519,109
653330153911480726,119
653330153919155933,111
653330153926831140,138
653330153934506347,177
653330153942181554,187
653330153949856761,199
653330153957531968,228
653330153965232330,230
653330153972907188,238
653330153980582046,279
653330153988256904,291
653330153995931762,276
653330154003606620,276
653330154011281478,259
653330154018956336,204
653330154026631194,119
653330154034306052,53
653330154041980910,36
653330154049655768,17
653330154057330626,-24
653330154065005484,-31
653330154072680342,-17
653330154080355200,-31
653330154088030058,-41
653330154095704916,-31
653330154103379774,-14
653330154111054632,2
653330154118729490,4
653330154126404348,-7
653330154134079206,-14
653330154141754064,-4
653330154149428922,12
653330154157103780,26
653330154164778638,36
653330154172453496,43
653330154180128354,43
653330154187803212,31
653330154195478070,29
653330154203152928,41
653330154210827786,34
653330154218502644,24
653330154226177502,36
653330154233852360,48
653330154241527218,36
653330154249202076,31
653330154256876934,43
653330154264551792,48
653330154272226650,38
653330154279901508,36
653330154287576366,43
653330154295251224,53
653330154302926082,51
653330154310600940,43
653330154318275798,41
653330154325950656,43
653330154333625514,43
653330154341300372,38
653330154348975230,31
653330154356650088,31
653330154364324946,43
653330154371999804,46
653330154379674662,29
653330154387349520,26
653330154395024378,41
653330154402699236,41
653330154410374094,43
653330154418048952,63
653330154425723810,65
653330154433398668,46
653330154441073526,26
653330154448748384,19
653330154456423242,17
653330154464098100,17
653330154471772958,14
653330154479447816,29
653330154487122674,51
653330154494797532,48
653330154502472390,14
653330154510147248,36
653330154517822106,264
653330154525497033,636
653330154533171891,811
653330154540846749,478
653330154548521607,-60
653330154556196465,-136
653330154563871323,89
653330154571546181,63
653330154579221039,-51
653330154586895897,-4
653330154594570755,48
653330154602245613,34
653330154609920471,19
653330154617595329,29
653330154625270187,55
653330154632945045,60
653330154640619903,48
653330154648294761,77
653330154655969619,104
653330154663644477,58
653330154671319335,26
653330154678994193,92
653330154686669051,131
653330154694343909,89
653330154702018767,87
653330154709693625,143
653330154717368483,155
653330154725043341,143
653330154732718199,179
653330154740393057,201
653330154748067915,191
653330154755742773,225
653330154763417631,281
653330154771092489,281
653330154778767347,252
653330154786442205,264
653330154794117063,281
653330154801791921,245
653330154809466779,184
653330154817141637,148
653330154824816495,106
653330154832491353,36
653330154840166211,17
653330154847841069,26
653330154855515927,-26
653330154863190785,-65
653330154870865643,-9
653330154878540501,19
653330154886215359,-9
653330154893890217,-29
653330154901565075,-31
653330154909239933,-21
653330154916914791,-19
653330154924589649,-14
653330154932264507,9
653330154939939365,9
653330154947614223,0
653330154955289081,0
653330154962963939,-7
653330154970638797,43
653330154978313655,65
653330154985988513,-46
653330154993663371,-63
653330155001338229,68
653330155009013087,58
653330155016687945,-17
653330155024362803,34
653330155032037661,48
653330155039712519,-14
653330155047387377,17
653330155055062235,80
653330155062737093,43
653330155070411951,-7
653330155078086809,53
653330155085761736,68
653330155093436594,-9
653330155101111452,68
653330155108786310,138
653330155116461168,7
653330155124136026,-2
653330155131810884,109
653330155139485742,51
653330155147160600,-21
653330155154835458,82
653330155162510316,106
653330155170185174,-19
653330155177860032,-2
653330155185534890,97
653330155193209748,48
653330155200884606,-12
653330155208559464,12
653330155216234322,63
653330155223909180,89
653330155231584038,29
653330155239258896,-53
653330155246933754,12
653330155254608612,68
653330155262283470,0
653330155269958328,55
653330155277633186,92
653330155285308044,-46
653330155292982902,-55
653330155300657760,160
653330155308332618,468
653330155316007476,728
653330155323682334,658
653330155331357192,165
653330155339032050,-187
653330155346706908,-60
653330155354381766,63
653330155362056624,-2
653330155369731482,21
653330155377406340,46
653330155385081198,-41
653330155392756056,-4
653330155400430914,80
653330155408105772,24
653330155415780630,12
653330155423455488,92
653330155431130346,82
653330155438805204,19
653330155446480062,85
653330155454154920,148
653330155461829778,111
653330155469504636,128
653330155477179494,123
653330155484854352,80
653330155492529210,114
653330155500204068,148
653330155507878926,119
653330155515553784,148
653330155523228642,191
653330155530903500,114
653330155538578358,87
653330155546253216,218
653330155553928074,274
653330155561602932,174
653330155569277790,106
653330155576952648,182
653330155584627506,318
653330155592302364,179
653330155599977222,-121
653330155607652080,-65
653330155615326938,92
653330155623001796,-63
653330155630676654,-136
653330155638351512,14
653330155646026439,12
653330155653701297,-148
653330155661376155,-204
653330155669051013,-99
653330155676725871,-70
653330155684400729,-131
653330155692075587,-109
653330155699750445,-65
653330155707425303,-34
653330155715100161,-36
653330155722775019,-121
653330155730449877,-94
653330155738124735,-24
653330155745799593,-97
653330155753474451,-102
653330155761149309,-34
653330155768824167,-51
653330155776499025,-51
653330155784173883,-34
653330155791848741,-2
653330155799523599,24
653330155807198457,-63
653330155814873315,-68
653330155822548173,31
653330155830223031,36
653330155837897889,-24
653330155845572747,-41
653330155853247605,21
653330155860922463,46
653330155868597321,-17
653330155876272179,-41
653330155883947037,-7
653330155891621895,31
653330155899296753,24
653330155906971611,-14
653330155914646469,7
653330155922321327,21
653330155929996185,-38
653330155937671043,-36
653330155945345901,34
653330155953020759,43
653330155960695617,34
653330155968370475,60
653330155976045333,55
653330155983720191,4
653330155991395049,-43
653330155999069907,-51
653330156006744765,-24
653330156014419623,9
653330156022094481,36
653330156029769339,36
653330156037444197,4
653330156045119055,9
653330156052793913,247
653330156060468771,631
653330156068143629,770
653330156075818487,405
653330156083493345,-123
653330156091168203,-148
653330156098843061,97
653330156106517919,21
653330156114192777,-87
653330156121867635,21
653330156129542493,29
653330156137217351,-70
653330156144892209,-46
653330156152567067,4
653330156160241925,-7
653330156167916783,29
653330156175591641,80
653330156183266499,41
653330156190941357,2
653330156198616215,29
653330156206316198,58
653330156213990708,87
653330156221665218,94
653330156229339728,87
653330156237014238,119
653330156244688748,128
653330156252363258,123
653330156260037768,177
653330156267712278,177
653330156275386788,155
653330156283061298,250
653330156290735808,306
653330156298410318,235
653330156306084828,247
653330156313759338,315
653330156321433848,303
653330156329108358,306
653330156336782868,281
653330156344457378,177
653330156352131888,131
653330156359806398,123
653330156367480908,72
653330156375155418,24
653330156382829928,-2
653330156390504438,4
653330156398178948,21
653330156405853458,12
653330156413527968,14
653330156421202478,19
653330156428876988,-2
653330156436551498,-9
653330156444226008,29
653330156451900518,36
653330156459575028,-17
653330156467249538,2
653330156474924048,92
653330156482598558,102
653330156490273068,0
653330156497947578,-70
653330156505622088,24
653330156513296598,116
653330156520971108,36
653330156528645618,34
653330156536320128,138
653330156543994638,58
653330156551669148,-46
653330156559343658,38
653330156567018168,82
653330156574692678,41
653330156582367188,53
653330156590041698,46
653330156597716208,9
653330156605390718,-7
653330156613065228,9
653330156620739738,89
653330156628414248,143
653330156636088758,123
653330156643763268,70
653330156651437778,14
653330156659112288,14
653330156666786798,65
653330156674461308,82
653330156682135818,80
653330156689810328,43
653330156697484838,7
653330156705159348,70
653330156712833858,138
653330156720508368,60
653330156728182878,-21
653330156735857388,48
653330156743531898,121
653330156751206408,82
653330156758880918,9
653330156766505282,38
653330156774180489,148
653330156781855696,48
653330156789530903,-63
653330156797206110,264
653330156804881317,711
653330156812556524,806
653330156820231731,514
653330156827906938,43
653330156835582145,-145
653330156843257352,-2
653330156850932559,60
653330156858607766,70
653330156866282973,80
653330156873958180,4
653330156881633387,0
653330156889308594,68
653330156896983801,38
653330156904659008,31
653330156912334215,109
653330156920009422,53
653330156927684629,17
653330156935359836,119
653330156943035043,65
653330156950710250,-46
653330156958385457,51
653330156966060664,162
653330156973735871,114
653330156981411078,99
653330156989086285,128
653330156996761492,119
653330157004436699,157
653330157012111906,177
653330157019787113,143
653330157027462320,157
653330157035137527,235
653330157042812734,259
653330157050487941,245
653330157058163148,204
653330157065838355,174
653330157073513562,286
653330157081188769,279
653330157088863976,68
653330157096539183,-12
653330157104214390,21
653330157111889597,-7
653330157119564804,-89
653330157127240011,-153
653330157134915218,-126
653330157142590425,-106
653330157150265632,-148
653330157157940839,-87
653330157165616046,-24
653330157173291253,-109
653330157180966460,-131
653330157188641667,-60
653330157196316874,-75
653330157203992081,-102
653330157211667288,-9
653330157219342495,9
653330157227017702,-111
653330157234692909,-111
653330157242368116,-4
653330157250043323,-4
653330157257718530,-12
653330157265393737,17
653330157273068944,-51
653330157280744151,-75
653330157288419358,48
653330157296094565,65
653330157303769772,-58
653330157311444979,-58
653330157319120186,53
653330157326825516,60
653330157334500305,-9
653330157342175094,-26
653330157349849883,19
653330157357524672,26
653330157365199461,-14
653330157372874250,-12
653330157380549039,17
653330157388223828,-2
653330157395898617,4
653330157403573406,36
653330157411248195,34
653330157418922984,14
653330157426597773,-53
653330157434272562,-75
653330157441947351,0
653330157449622140,17
653330157457296929,-17
653330157464971718,-19
653330157472646507,7
653330157480321296,29
653330157487996085,-4
653330157495670874,-58
653330157503345663,109
653330157511020452,573
653330157518695241,862
653330157526370030,502
653330157534044819,-111
653330157541719608,-194
653330157549394397,58
653330157557069186,21
653330157564743975,-75
653330157572418764,4
653330157580093553,12
653330157587768342,-43
653330157595443131,-9
653330157603117920,36
653330157610792709,14
653330157618467498,4
653330157626142287,29
653330157633817076,0
653330157641491865,-4
653330157649166654,70
653330157656841443,77
653330157664516232,60
653330157672191021,85
653330157679865810,68
653330157687540599,94
653330157695215388,143
653330157702890177,104
653330157710564966,128
653330157718239755,228
653330157725914544,242
653330157733589333,228
653330157741264122,245
653330157748938911,240
653330157756613700,264
653330157764288489,323
653330157771963278,301
653330157779638067,252
653330157787312856,262
653330157794987645,233
653330157802662434,143
653330157810337223,68
653330157818012012,24
653330157825686801,55
653330157833361590,55
653330157841036379,-55
653330157848711168,-43
653330157856385957,65
653330157864060746,21
653330157871735535,-65
653330157879410324,-24
653330157887085132,70
653330157894759921,36
653330157902434710,-38
653330157910109499,4
653330157917784288,26
653330157925459077,-17
653330157933133866,0
653330157940808655,63
653330157948483444,7
653330157956158233,-99
653330157963833022,26
653330157971507811,133
653330157979182600,-24
653330157986857389,-106
653330157994532178,7
653330158002206967,111
653330158009881756,51
653330158017556545,-77
653330158025231334,-55
653330158032906123,60
653330158040580912,75
653330158048255701,-9
653330158055930490,-24
653330158063605279,0
653330158071280068,-19
653330158078954857,31
653330158086629646,60
653330158094304435,-38
653330158101979224,-29
653330158109654013,89
653330158117328802,68
653330158125003591,46
653330158132678380,53
653330158140353169,12
653330158148027958,72
653330158155702747,51
653330158163377536,-60
653330158171052325,0
653330158178727114,87
653330158186401903,63
653330158194076692,26
653330158201751481,-12
653330158209426270,58
653330158217101059,412
653330158224775848,757
653330158232450637,721
653330158240125426,310
653330158247800215,-111
653330158255475004,-82
653330158263149793,121
653330158270824582,55
653330158278499371,9
653330158286174160,97
653330158293848949,85
653330158301523738,-7
653330158309198527,-7
653330158316873316,109
653330158324548105,126
653330158332222894,51
653330158339897683,87
653330158347572472,109
653330158355247261,72
653330158362922050,63
653330158370596839,65
653330158378271628,87
653330158385946417,82
653330158393621206,94
653330158401295995,123
653330158408970784,80
653330158416645573,26
653330158424320362,121
653330158431995151,276
653330158439669940,211
653330158447344748,72
653330158455019537,165
653330158462694326,296
653330158470369115,235
653330158478043904,184
653330158485718693,245
653330158493393482,204
653330158501068271,121
653330158508743060,77
653330158516417849,2
653330158524092638,-55
653330158531767427,-77
653330158539442216,-87
653330158547117005,-109
653330158554791794,-128
