timestamp,red,green,ir
63661,153443,36106,185669
63693,153465,36100,185723
63700,153462,36106,185716
63798,153540,36124,185822
63813,153533,36132,185814
63833,153585,36115,185834
63841,153582,36105,185844
63939,153546,36124,185812
63941,153515,36106,185792
63950,153509,36130,185733
63960,153494,36113,185760
63970,153465,36121,185732
63981,153446,36111,185712
64036,153404,36125,185597
64080,153412,36126,185574
64089,153394,36134,185545
64100,153428,36116,185559
64110,153446,36142,185534
64716,153073,36085,184457
65156,153426,36042,184494
65329,153003,36017,184009
65354,152983,36006,183989
65470,153189,35990,184099
65515,153319,35994,184201
65519,153346,35984,184244
65640,153315,36006,184186
65653,153266,36034,184128
65699,153273,36010,184116
66042,153301,35970,184010
66189,153266,35947,183896
66214,153245,35957,183855
66966,153331,35923,183729
67016,153334,35931,183727
67019,153348,35927,183726
67361,153394,35942,183706
67363,153394,35940,183706
67372,153380,35957,183687
67392,153402,35951,183694
67397,153393,35946,183715
68013,153513,35988,183723
68015,153501,35984,183716
68018,153517,35975,183673
68076,153532,35984,183720
68079,153546,36007,183732
68359,153486,36033,183592
68862,153621,36019,183515
69096,153800,36034,183613
69098,153824,36050,183630
69106,153839,36065,183637
69116,153890,36040,183710
69219,154257,36058,184251
69221,154299,36071,184306
69319,154486,36083,184489
69400,154733,36100,184706
69407,154737,36107,184715
69416,154806,36102,184762
69454,154883,36105,184851
69473,154907,36149,184870
69476,154968,36120,184963
69486,155005,36144,184973
69496,155027,36140,184999
69599,155090,36164,185078
69602,155108,36164,185068
69605,155087,36162,185007
69616,155093,36155,185040
69736,155164,36177,185070
69777,155150,36184,185038
69813,155168,36195,185023
69833,155162,36185,184996
69946,155177,36208,184986
69952,155191,36207,184991
69956,155189,36212,184962
69965,155186,36198,185032
70016,155199,36193,184988
70054,155219,36217,185021
70278,155271,36195,184958
70381,155286,36160,184985
70717,154378,36092,184198
70868,154400,36084,184246
71137,154583,36127,184550
71472,154566,36183,184597
72029,154513,36215,184561
72076,154551,36226,184630
72136,154541,36223,184669
72139,154553,36241,184671
72366,154724,36289,184918
72394,154737,36296,184966
72396,154742,36319,184964
72434,154733,36305,184954
72436,154727,36314,184951
72452,154719,36330,184940
72562,154741,36350,184999
72564,154749,36340,185003
72573,154737,36364,184968
72583,154718,36353,184990
72593,154724,36351,184981
72603,154712,36366,184947
72614,154706,36337,184958
72654,154694,36351,184974
72673,154681,36335,184940
72693,154636,36368,184911
72806,154520,36344,184779
72899,154494,36330,184757
72901,154507,36320,184770
72904,154505,36335,184752
72913,154504,36304,184769
72923,154516,36326,184756
72977,154568,36323,184823
72983,154582,36322,184845
73037,154577,36309,184843
73052,154562,36314,184831
73054,154555,36306,184833
73072,154545,36310,184804
73227,154450,36305,184722
73277,154469,36294,184738
73322,154477,36302,184741
73333,154488,36283,184742
73343,154469,36313,184734
73353,154489,36313,184741
73402,154484,36303,184749
73412,154476,36303,184731
73422,154456,36299,184722
73432,154471,36312,184722
73442,154454,36301,184715
73475,154444,36301,184733
73483,154461,36299,184727
73493,154444,36292,184701
73513,154431,36301,184713
73533,154434,36296,184700
73541,154441,36296,184709
73552,154426,36315,184729
73602,154447,36304,184710
73613,154423,36306,184675
73633,154405,36315,184700
73763,154367,36264,184629
73802,154356,36247,184628
73812,154357,36253,184622
73822,154355,36254,184612
73875,154356,36237,184612
73891,154350,36226,184629
73914,154344,36234,184617
73954,154352,36233,184604
73975,154335,36224,184603
74022,154294,36217,184597
74032,154268,36214,184569
74042,154291,36214,184565
74052,154261,36220,184536
74117,154263,36217,184566
74122,154260,36224,184555
74132,154270,36216,184560
74142,154293,36218,184586
74152,154271,36227,184580
74202,154293,36218,184592
74212,154273,36224,184615
74333,154323,36240,184643
74419,154316,36235,184674
74461,154341,36249,184685
74582,154333,36256,184690
74593,154318,36272,184662
74657,154337,36258,184727
74662,154349,36253,184728
74671,154331,36242,184702
74694,154326,36242,184714
74702,154323,36241,184691
74734,154306,36227,184673
74741,154293,36220,184644
74751,154268,36215,184647
74761,154277,36210,184632
74794,154251,36201,184620
74801,154261,36195,184610
74812,154254,36192,184582
74821,154251,36196,184607
74898,154233,36194,184567
75135,154216,36180,184601
75219,154206,36190,184591
75221,154211,36189,184587
75254,154202,36186,184598
75261,154215,36187,184575
75271,154187,36187,184587
75293,154206,36191,184585
75357,154198,36207,184614
75417,154217,36204,184649
75631,154250,36227,184816
75764,154269,36217,184840
75800,154278,36226,184879
75921,154309,36242,184940
76000,154294,36272,184930
76121,154277,36295,184958
76133,154269,36283,184967
76291,154324,36318,185057
76402,154333,36347,185076
76405,154330,36337,185074
76631,154295,36298,185049
76654,154313,36303,185054
76660,154310,36296,185065
76694,154316,36311,185078
76713,154331,36308,185092
76720,154319,36325,185088
76754,154334,36312,185087
76760,154335,36295,185084
76880,154324,36326,185115
76960,154370,36341,185153
77038,154384,36349,185177
77041,154374,36370,185157
77074,154356,36357,185157
77119,154373,36369,185138
77155,154359,36372,185159
77261,154349,36377,185151
77299,154350,36392,185111
77309,154331,36382,185104
77333,154344,36385,185137
77552,154333,36349,185100
77596,154325,36341,185090
77639,154291,36333,185065
77649,154264,36342,185048
77659,154267,36351,185055
77759,154268,36341,185046
77761,154267,36337,185053
77772,154246,36343,185038
77779,154251,36333,185062
77792,154261,36350,185066
77814,154291,36346,185070
77818,154275,36347,185084
77939,154280,36351,185099
77997,154277,36354,185091
78100,154231,36369,185068
78103,154233,36371,185072
78199,154223,36378,185059
78257,154208,36382,185049
78495,154207,36357,185058
78515,154188,36350,185057
78534,154179,36350,185070
78538,154188,36355,185046
78659,154158,36331,185039
78717,154127,36337,185013
78719,154125,36348,185009
78732,154112,36334,185021
78738,154127,36342,185008
78775,154117,36335,185013
78880,154107,36347,185022
78882,154112,36352,185016
78915,154081,36346,185003
78934,154070,36338,184998
78954,154083,36352,184988
79068,154122,36371,185029
79094,154135,36368,185056
79137,154144,36369,185041
79153,154111,36368,185005
79260,154086,36384,185000
79262,154103,36384,185015
79268,154076,36386,185000
79277,154094,36384,185030
79336,154130,36385,185056
79397,154080,36353,184987
79400,154058,36359,184972
79413,154040,36341,184919
79433,154013,36343,184896
79454,153982,36345,184876
79608,153920,36307,184771
79612,153921,36303,184797
79633,153931,36317,184803
79748,153936,36312,184786
79752,153946,36304,184793
79756,153908,36326,184821
79767,153956,36303,184794
79861,153990,36322,184815
79938,153939,36312,184777
79997,153906,36317,184739
80100,154004,36348,184831
80103,154024,36344,184863
80134,154069,36351,184935
80198,154171,36377,185023
80214,154135,36386,184999
80301,154255,36399,185127
80423,154264,36378,185119
80434,154245,36372,185086
80436,154269,36367,185135
80446,154251,36356,185103
80498,154341,36375,185175
80618,154309,36391,185132
80730,154267,36396,185062
80798,154313,36405,185117
80813,154284,36400,185079
80857,154266,36410,185082
80916,154293,36407,185087
80933,154258,36437,185073
80954,154247,36404,185057
80956,154309,36410,185120
80973,154269,36394,185063
80975,154311,36416,185105
80986,154306,36424,185097
80996,154307,36432,185105
81005,154319,36416,185087
81016,154308,36417,185102
81098,154305,36437,185115
81101,154312,36449,185123
81106,154294,36437,185075
81201,154348,36434,185163
81299,154325,36425,185199
81357,154260,36404,185118
81416,154308,36409,185205
81419,154325,36414,185207
81519,154256,36414,185191
81557,154210,36415,185143
81566,154216,36417,185121
81661,154235,36422,185203
81666,154237,36413,185189
81718,154260,36416,185253
81887,154132,36433,185169
81915,154170,36437,185201
81958,154179,36440,185232
81973,154194,36435,185202
81976,154189,36437,185232
82096,154131,36453,185207
82114,154133,36460,185192
82116,154150,36452,185238
82125,154160,36460,185188
82265,154155,36403,185200
82360,154053,36385,185109
82362,154024,36368,185087
82365,154007,36374,185050
83600,152104,36230,182794
84238,153097,36337,184189
84296,153374,36415,184574
84337,153398,36455,184688
84343,153450,36477,184749
84354,153490,36489,184790
84363,153600,36487,184901
84374,153748,36491,185016
84383,153869,36532,185147
84394,153982,36538,185303
84403,154085,36551,185409
84414,154144,36563,185457
84423,154141,36578,185493
84432,154156,36587,185517
84443,154231,36609,185541
84454,154246,36602,185532
84473,154155,36619,185471
84483,154117,36626,185403
84494,154039,36627,185329
84503,153975,36631,185226
84513,153918,36629,185174
84523,153873,36626,185122
84533,153831,36620,185068
84553,153750,36623,184970
84574,153680,36605,184882
84594,153641,36597,184841
84614,153597,36613,184809
84624,153616,36608,184823
84632,153631,36619,184814
84642,153642,36601,184855
84653,153668,36614,184894
84674,153777,36641,185024
84683,153823,36646,185078
84693,153850,36672,185124
84703,153895,36657,185150
84712,153894,36660,185181
84734,153925,36669,185206
84743,153931,36670,185227
84753,153904,36688,185201
84763,153923,36704,185192
84773,153873,36697,185197
84793,153894,36702,185173
84802,153890,36687,185155
84812,153866,36720,185142
84823,153884,36689,185179
84833,153873,36708,185142
84843,153875,36733,185174
84853,153903,36725,185184
84863,153911,36706,185180
84873,153920,36727,185205
84882,153928,36766,185207
84892,153927,36719,185215
84914,153955,36749,185259
84923,153954,36750,185257
84933,153958,36751,185248
84943,153956,36741,185259
84953,153947,36759,185254
84962,153942,36776,185263
84972,153952,36774,185243
84982,153953,36758,185284
84993,153962,36751,185279
85002,153968,36750,185248
85013,153966,36756,185274
85023,153946,36763,185284
85033,153967,36764,185268
85042,153968,36765,185257
85052,153947,36752,185258
85062,153955,36761,185257
85073,153953,36752,185252
85083,153962,36765,185261
85092,153982,36759,185272
85114,153992,36754,185244
85123,153996,36751,185256
85132,153988,36758,185237
85142,153991,36762,185242
85152,153971,36765,185221
85162,153962,36757,185184
85172,153953,36738,185159
85182,153923,36751,185139
85192,153889,36751,185096
85203,153860,36746,185056
85212,153835,36746,185027
85234,153803,36742,184962
85243,153773,36724,184954
85252,153735,36740,184909
85262,153747,36708,184889
85272,153718,36733,184863
85282,153679,36729,184859
85292,153689,36715,184824
85302,153678,36700,184817
85313,153693,36733,184811
85323,153681,36711,184814
85333,153660,36731,184813
85342,153666,36712,184808
85352,153644,36713,184805
85374,153652,36710,184811
85394,153674,36704,184818
85402,153678,36722,184821
85413,153682,36705,184807
85422,153682,36715,184826
85432,153665,36720,184834
85443,153673,36715,184848
85453,153681,36736,184829
85462,153691,36703,184823
85472,153682,36714,184816
85482,153683,36719,184813
85492,153692,36723,184832
85502,153703,36697,184826
85512,153702,36724,184834
85522,153696,36713,184834
85532,153685,36732,184808
85553,153667,36723,184815
85562,153682,36730,184816
85573,153669,36728,184794
85583,153641,36738,184785
85592,153627,36733,184791
85602,153658,36726,184779
85612,153649,36742,184771
85622,153640,36728,184767
85632,153629,36735,184769
85642,153607,36722,184743
85652,153584,36731,184724
85662,153598,36725,184709
85671,153588,36727,184700
85682,153569,36711,184697
85692,153561,36737,184684
85702,153561,36730,184698
85711,153571,36732,184689
85722,153573,36719,184690
85733,153576,36725,184657
85743,153576,36738,184691
85752,153574,36731,184669
85762,153569,36741,184692
85772,153555,36741,184694
85782,153575,36753,184686
85791,153584,36743,184681
85801,153573,36742,184710
85813,153587,36723,184704
85833,153575,36744,184701
85841,153593,36752,184698
85852,153572,36754,184690
85862,153589,36742,184695
85873,153572,36751,184683
85881,153586,36758,184670
85892,153596,36759,184697
85902,153584,36768,184707
85912,153587,36762,184705
85921,153586,36755,184698
85932,153599,36759,184717
85941,153611,36758,184733
85952,153621,36747,184738
85961,153615,36749,184733
85972,153625,36735,184753
85982,153618,36751,184726
85992,153624,36734,184745
86002,153633,36749,184742
86012,153630,36733,184738
86022,153618,36726,184723
86033,153629,36731,184718
86041,153635,36725,184703
86051,153616,36741,184707
86062,153623,36687,184702
86072,153630,36719,184696
86082,153625,36707,184682
86092,153564,36708,184673
86101,153589,36714,184667
86112,153574,36697,184664
86122,153589,36710,184640
86132,153592,36711,184657
86142,153567,36713,184651
86152,153583,36698,184665
86173,153597,36697,184654
86181,153599,36703,184648
86191,153599,36692,184682
86201,153582,36679,184654
86212,153604,36673,184667
86222,153612,36699,184686
86232,153601,36688,184679
86242,153602,36677,184686
86252,153621,36698,184680
86261,153601,36692,184693
86271,153588,36689,184671
86282,153588,36702,184678
86291,153598,36699,184685
86301,153586,36701,184675
86312,153593,36700,184691
86322,153603,36680,184702
86332,153592,36695,184691
86341,153605,36703,184686
86351,153575,36703,184696
86361,153583,36706,184688
86372,153554,36688,184693
86393,153578,36704,184692
86401,153576,36693,184698
86412,153568,36711,184698
86421,153568,36706,184708
86431,153563,36700,184695
86442,153557,36699,184692
86452,153553,36704,184658
86461,153528,36705,184678
86471,153546,36726,184669
86481,153540,36706,184698
86492,153577,36724,184766
86501,153680,36720,184883
86511,153777,36718,184998
86521,153844,36732,185143
86531,153906,36735,185186
86541,153921,36748,185253
86552,153981,36744,185265
86561,153990,36747,185323
86572,153995,36731,185348
86582,154001,36740,185338
86614,153962,36736,185317
86621,153945,36741,185290
86631,153879,36738,185231
86641,153839,36731,185146
86651,153840,36727,185175
86661,153882,36716,185237
86672,153916,36724,185275
86681,153930,36719,185306
86737,153931,36678,185395
86840,153851,36625,185842
86843,153855,36622,186026
86851,153732,36623,186095
86861,153494,36590,186012
86873,153282,36611,185861
86880,153159,36585,185790
86891,153041,36575,185736
86901,152930,36569,185669
86911,152819,36568,185673
86920,152706,36558,185665
86930,152592,36566,185654
86941,152578,36558,185795
86952,152706,36562,186098
86961,152947,36582,186576
86971,153283,36609,187253
86981,153670,36612,187930
86991,154265,36655,188833
87000,155001,36696,189871
87011,155784,36716,190969
87021,156625,36797,192131
87031,157584,36870,193377
87041,158726,36923,194580
87051,159759,36982,195857
87061,160794,37031,197209
87071,161627,37064,198481
87081,162178,37026,199432
87090,162471,36958,199807
87100,162818,36902,200211
87111,163430,36869,201222
87121,163798,36783,202055
87130,163723,36668,202300
87140,163443,36552,202116
87150,162840,36485,201503
87161,162200,36456,200872
87170,161895,36418,200611
87180,161805,36425,200644
87191,161891,36415,200972
87201,161946,36392,201230
87210,161868,36353,201325
87220,161704,36338,201244
87230,161496,36331,201149
87241,161352,36319,201064
87251,161233,36291,200966
87261,161070,36288,200825
87271,160917,36281,200681
87281,160751,36286,200599
87291,160689,36301,200562
87300,160613,36319,200521
87310,160540,36336,200356
87321,160365,36353,200091
87331,160140,36373,199676
87341,159839,36374,199207
87351,159527,36390,198678
87361,159183,36379,198214
87371,158891,36378,197795
87380,158553,36404,197320
87390,158198,36429,196870
87400,157837,36447,196443
87411,157514,36482,196093
87421,157273,36517,195798
87431,156996,36572,195438
87441,156681,36579,195061
87451,156364,36621,194659
87460,156091,36663,194256
87470,155888,36701,193950
87480,155741,36744,193654
87491,155605,36778,193427
87500,155541,36796,193254
87511,155506,36803,193070
87534,155511,36884,192844
87640,155910,36977,191950
87681,156886,37089,192315
87691,157056,37115,192400
87701,157195,37138,192576
87710,157366,37165,192728
87720,157538,37183,192863
87730,157663,37196,193027
87740,157785,37213,193152
87750,157851,37255,193267
87760,157944,37246,193395
87773,158028,37278,193490
87781,158080,37273,193597
87792,158132,37289,193672
87800,158145,37315,193724
87834,157968,37324,193735
87839,157832,37338,193672
87850,157673,37337,193565
87861,157538,37335,193433
87873,157350,37327,193352
87880,157161,37312,193241
87890,156812,37307,192975
87900,156341,37290,192633
87910,155897,37272,192296
87920,155471,37265,192051
87932,155124,37271,191920
87980,154435,37269,192990
87990,155136,37300,193976
88000,155839,37297,194747
88010,156340,37282,195262
88020,156747,37268,195583
88030,157056,37242,195620
88040,157627,37180,195928
88050,158254,37136,196463
88060,158413,37051,196676
88070,158179,36988,196637
88080,158050,36933,196905
88089,158200,36926,197637
88100,158617,36920,198614
88110,159167,36933,199664
88120,159569,36940,200549
88129,159782,36928,201088
88140,159720,36933,201294
88150,159532,36910,201384
88160,159380,36927,201608
88169,159329,36910,201866
88180,159317,36919,202134
88193,159383,36929,202374
88200,159523,36933,202679
88209,159782,36958,203069
88220,160121,36957,203519
88254,160859,36982,204088
88259,160731,36971,203748
88269,160413,36960,203123
88280,159887,36947,202208
88336,157729,36941,198538
88339,157499,36939,198362
88350,157328,36938,198384
88360,157143,36952,198436
88370,156921,36955,198446
88380,156730,36959,198366
88390,156591,36977,198166
88400,156473,36984,197870
88410,156373,37027,197585
88419,156298,37033,197333
88432,156266,37059,197110
88440,156209,37078,196896
88450,156155,37090,196662
88459,156049,37135,196315
88469,155903,37145,195958
88479,155713,37162,195549
88490,155518,37178,195205
88500,155354,37182,194842
88644,158310,37472,194257
88654,158507,37477,194239
88660,158631,37496,194294
88669,158719,37518,194356
88679,158818,37519,194471
88689,158961,37548,194638
88700,159082,37559,194804
88709,159179,37582,194967
88719,159336,37581,195138
88729,159456,37606,195335
88739,159575,37583,195461
88752,159663,37614,195604
88759,159743,37624,195746
88769,159789,37636,195854
88780,159878,37637,195952
88792,159927,37626,196016
88799,159936,37620,196128
88809,159907,37625,196158
88820,159860,37630,196145
88830,159729,37621,196075
88839,159563,37603,195924
88849,159332,37594,195760
88859,159088,37572,195598
88869,158803,37562,195431
88879,158438,37533,195197
88889,157975,37531,194876
88900,157380,37499,194477
88912,156735,37509,194033
88919,156109,37481,193671
88929,155453,37480,193241
88939,154754,37480,192794
88950,154109,37462,192319
88959,153650,37496,192021
88969,153925,37498,192277
88979,154386,37532,192767
88990,155335,37571,193827
88999,156248,37630,195042
89009,156959,37630,196084
89019,157219,37630,196756
89030,157037,37566,196944
89040,156738,37508,196930
89049,157116,37475,197525
89059,157659,37452,198419
89069,157699,37436,198688
89079,157388,37398,198708
89088,157096,37380,198755
89099,156973,37348,198997
89109,157064,37316,199498
89119,157260,37315,200157
89128,157618,37316,200932
89139,158016,37313,201689
89149,158327,37302,202222
89159,158462,37287,202540
89168,158485,37279,202684
89179,158481,37256,202756
89193,158504,37243,202818
89200,158531,37227,202878
89256,159045,37250,203124
89259,159208,37274,203214
89269,159272,37295,203211
89279,159253,37310,203163
89290,159092,37293,202967
89299,158854,37325,202709
89309,158650,37329,202430
89319,158473,37336,202173
89329,158326,37340,201809
89339,158039,37357,201334
89349,157669,37371,200750
89359,157344,37396,200140
89370,157019,37404,199539
89378,156819,37418,198953
89389,156741,37416,198601
89399,156817,37462,198361
89409,156915,37494,198180
89419,157067,37504,198036
89429,157077,37539,197759
89439,156971,37557,197356
89449,156862,37567,197052
89458,156712,37577,196782
89468,156616,37583,196511
89478,156575,37561,196291
89488,156625,37553,196110
89500,156781,37539,195975
89509,157027,37562,195895
89519,157385,37568,195870
89529,157845,37591,195929
89539,158345,37605,196047
89548,158792,37625,196172
89559,159155,37655,196202
89569,159447,37656,196211
89579,159665,37699,196188
89588,159862,37691,196161
89598,160015,37713,196176
89609,160102,37732,196143
89619,160187,37714,196050
89632,160222,37714,195962
89639,160230,37702,195975
89649,160246,37701,195982
89659,160279,37701,195994
89668,160348,37703,196090
89678,160449,37713,196219
89689,160588,37703,196358
89698,160719,37726,196519
89708,160807,37718,196641
89718,160902,37727,196712
89733,160978,37727,196836
89753,161053,37738,197015
89758,161085,37742,197080
89768,161058,37738,197116
89779,161080,37738,197129
89789,161073,37719,197158
89798,161024,37718,197153
89809,160977,37711,197140
89818,160898,37717,197055
89829,160786,37713,197005
89838,160678,37689,196921
89849,160567,37697,196897
89858,160502,37707,196910
89869,160411,37694,196904
89878,160270,37691,196870
89889,160080,37681,196848
89899,159830,37690,196806
89909,159534,37675,196731
89918,159076,37686,196621
89928,158562,37680,196408
89938,157998,37664,196141
89948,157520,37646,195940
89958,157108,37650,195850
89968,157117,37643,196173
89979,157526,37628,196811
89989,158158,37687,197485
89999,158430,37687,197730
90008,158555,37690,197756
90018,159578,37723,199129
90028,160394,37728,200185
90039,160936,37702,200934
90048,160765,37640,200905
90058,159809,37566,200049
90069,158063,37443,198424
90079,156795,37370,197505
90088,156360,37353,197514
90098,156306,37341,197956
90109,156431,37335,198563
90119,156568,37359,199231
90128,156704,37345,199782
90138,156844,37352,200262
90148,156989,37383,200689
90158,157103,37377,200969
90167,157124,37395,201118
90178,157113,37392,201138
90188,157008,37387,200987
90198,156809,37382,200704
90208,156621,37378,200377
90218,156430,37394,200049
90228,156226,37368,199761
90238,156042,37381,199550
90248,155911,37366,199480
90258,155811,37380,199529
90268,155767,37354,199723
90278,155875,37368,200026
90289,156091,37383,200470
90297,156419,37390,200810
90308,156693,37362,201059
90318,156876,37380,201011
90329,156973,37398,200753
90338,156995,37425,200406
90348,157031,37448,199999
90359,157043,37487,199614
90369,157053,37502,199201
90378,156950,37545,198774
90388,156799,37555,198284
90398,156622,37582,197796
90408,156319,37574,197209
90417,155986,37552,196648
90428,155685,37566,196133
90438,155453,37568,195746
90449,155332,37579,195507
90458,155291,37568,195292
90467,155253,37567,195126
90478,155288,37550,195019
90489,155424,37564,195015
90498,155612,37549,195041
90508,155838,37561,195059
90518,156130,37562,195110
90528,156480,37561,195139
90539,156884,37582,195282
90548,157317,37603,195406
90558,157797,37608,195550
90568,158215,37632,195652
90578,158639,37663,195727
90587,158985,37687,195744
90598,159196,37713,195777
90608,159338,37728,195714
90618,159458,37730,195676
90627,159546,37734,195616
90637,159568,37732,195538
90648,159612,37754,195560
90658,159689,37758,195548
90668,159759,37764,195542
90678,159834,37766,195612
90688,159926,37778,195663
90698,160017,37767,195696
90708,160079,37761,195781
90717,160128,37759,195833
90727,160196,37775,195899
90738,160233,37756,195965
90748,160246,37763,195977
90757,160245,37751,196039
90768,160235,37758,196055
90777,160186,37757,196055
90788,160007,37749,195941
90798,159841,37742,195814
90808,159623,37738,195720
90818,159373,37728,195605
90828,159095,37717,195472
90837,158770,37719,195340
90847,158349,37686,195168
90858,157791,37681,194829
90868,157033,37680,194354
90877,156136,37675,193735
90887,155225,37673,192957
90898,154468,37693,192147
90908,154224,37716,191996
90917,154831,37777,192787
90927,155730,37867,193848
90937,156428,37903,194771
90948,157058,37923,195710
90958,157552,37914,196405
90968,157952,37897,197076
90978,158555,37875,197949
90988,158871,37856,198715
90998,158645,37753,198796
91007,157755,37700,198180
91018,156708,37632,197544
91028,156076,37595,197216
91038,155907,37575,197283
91048,155914,37581,197556
91057,155794,37564,197733
91068,155694,37542,198040
91078,155773,37536,198587
91087,156134,37525,199438
91098,156647,37514,200429
91108,157275,37525,201485
91118,157838,37529,202327
91127,158211,37534,202888
91137,158406,37509,203218
91147,158578,37500,203491
91158,158711,37506,203654
91167,158828,37498,203848
91177,158967,37490,204050
91187,159128,37478,204198
91197,159274,37458,204363
91207,159388,37460,204468
91217,159537,37435,204592
91227,159665,37434,204619
91237,159754,37427,204541
91247,159754,37418,204223
91257,159660,37418,203920
91267,159691,37418,203734
91277,159707,37412,203633
91287,159722,37412,203535
91297,159664,37425,203369
91308,159551,37423,203098
91317,159340,37418,202644
91327,159005,37408,202088
91337,158632,37416,201346
91347,158159,37430,200500
91358,157739,37428,199650
91368,157439,37434,198998
91377,157241,37444,198524
91387,157070,37451,198005
91398,156911,37454,197459
91408,156833,37498,197083
91417,156922,37531,196805
91427,157092,37565,196650
91437,157258,37602,196475
91448,157226,37609,196095
91457,157151,37598,195666
91467,157248,37618,195339
91477,157516,37634,195197
91487,157965,37644,195172
91498,158416,37677,195252
91507,158873,37692,195350
91517,159245,37708,195385
91527,159523,37743,195394
91537,159694,37741,195320
91547,159718,37737,195273
91557,159780,37756,195229
91568,159821,37742,195222
91578,159852,37775,195247
91587,159878,37782,195361
91597,159880,37812,195425
91607,159849,37812,195427
91617,159751,37807,195407
91626,159687,37793,195354
91637,159603,37803,195289
91647,159561,37782,195217
91657,159554,37775,195145
91667,159634,37804,195163
91676,159784,37798,195221
91687,159956,37793,195313
91698,160044,37796,195333
91708,160109,37808,195359
91717,160222,37824,195432
91727,160440,37849,195569
91737,160701,37874,195807
91747,161019,37903,195981
91757,161256,37941,196183
91767,161535,37964,196404
91777,161800,37986,196649
91787,162087,38007,196897
91797,162354,38058,197185
91807,162640,38093,197404
91817,162811,38122,197611
91827,162965,38145,197740
91837,163021,38157,197813
91847,163006,38151,197792
91857,162941,38125,197702
91867,162815,38091,197593
91876,162587,38088,197459
91886,162318,38051,197285
91897,162024,38016,197079
91908,161719,38010,196892
91916,161470,37987,196758
91927,161246,37960,196721
91936,161090,37948,196719
91947,160978,37910,196717
91957,160960,37897,196882
91967,161044,37890,197072
91977,161070,37885,197238
91987,161114,37870,197493
91997,161207,37872,197780
92006,161239,37862,198124
92017,161228,37878,198469
92027,161319,37883,198990
92037,161576,37914,199790
92046,162187,37974,201005
92056,163071,38035,202552
92066,163993,38055,204116
92077,164482,38012,205119
92087,164467,37981,205494
92097,164151,37911,205386
92107,163389,37868,204869
92117,162653,37836,204431
92126,162243,37803,204377
92137,162029,37763,204523
92147,162253,37775,205073
92157,162589,37756,205623
92166,162755,37763,206003
92176,162963,37747,206420
92186,163234,37756,206848
92197,163621,37771,207340
92207,164093,37793,207910
92216,164482,37786,208387
92226,164815,37797,208769
92237,165123,37810,209087
92247,165318,37843,209295
92256,165523,37834,209468
92266,165625,37849,209508
92277,165754,37852,209517
92287,165862,37859,209510
92296,166061,37882,209559
92306,166267,37890,209551
92316,166444,37874,209539
92326,166636,37915,209546
92336,166360,37900,209048
92347,165365,37871,207879
92357,164034,37843,206321
92367,162650,37838,204740
92376,161402,37825,203294
92386,160256,37806,202035
92397,159318,37794,201067
92407,158612,37768,200394
92416,158094,37745,199971
92426,157784,37730,199724
92437,157668,37733,199533
92447,157701,37740,199364
92457,157787,37746,199163
92466,157915,37772,198948
92477,158072,37795,198622
92487,158138,37811,198138
92497,158146,37809,197729
92506,158392,37807,197458
92516,158800,37836,197371
92527,159275,37887,197449
92536,159734,37908,197485
92546,160116,37931,197503
92556,160287,37956,197363
92567,160442,37980,197229
92577,160542,37999,197080
92586,160660,38002,196948
92596,160756,38020,196877
92606,160804,38020,196745
92617,160884,38032,196620
92626,160887,38015,196529
92636,160866,38026,196443
92646,160840,38008,196416
92656,160846,38006,196429
92666,160913,38010,196473
92676,160966,38002,196528
92687,160988,37997,196590
92697,161058,37990,196662
92707,161102,37987,196752
92716,161123,37992,196832
92726,161161,37992,196884
92737,161177,37981,196909
92747,161182,37981,196937
92756,161158,37984,196927
92766,161154,37987,196944
92777,161127,37974,196930
92787,161092,37971,196912
92796,161068,37974,196914
92806,161027,37957,196881
92816,160975,37913,196838
92826,160910,37935,196807
92836,160885,37902,196801
92846,160855,37919,196796
92856,160817,37913,196805
92866,160728,37896,196739
92875,160675,37890,196693
92885,160573,37861,196576
92896,160446,37831,196441
92906,160285,37840,196257
92916,160030,37785,195955
92926,159746,37782,195674
92936,159522,37756,195407
92947,159283,37721,195164
92956,159035,37708,194926
92966,158843,37689,194732
92976,158631,37667,194591
92986,158454,37654,194442
92996,158217,37653,194272
93005,157929,37650,194060
93016,157524,37648,193710
93026,157113,37655,193451
93036,156719,37659,193267
93045,156315,37664,193106
93056,156118,37681,193153
93066,155985,37708,193343
93076,156225,37747,193902
93086,156722,37788,194765
93096,157275,37810,195687
93106,157623,37825,196385
93116,157969,37802,197010
93125,158331,37779,197576
93136,158577,37885,197988
93146,158756,37711,198489
93156,158784,37685,198819
93166,158690,37655,199016
93176,158605,37627,199215
93186,158715,37606,199542
93196,158869,37597,199988
93206,159106,37565,200355
93215,159423,37560,200762
93225,159878,37539,201259
93236,160582,37541,201962
93246,161447,37515,202818
93255,162276,37488,203647
93265,162951,37468,204370
93276,163590,37440,204992
93286,164174,37431,205584
93295,164941,37408,206406
93305,165822,37421,207290
93316,166499,37409,207978
93326,166994,37450,208433
93335,167288,37426,208637
93345,167461,37439,208677
93356,167514,37454,208605
93366,167514,37469,208485
93375,167497,37475,208371
93386,167382,37484,208152
93396,167143,37502,207743
93406,166724,37510,207237
93416,166193,37485,206528
93425,165495,37479,205674
93435,164725,37476,204804
93445,164011,37476,203993
93456,163440,37487,203358
93465,162982,37503,202817
93475,162500,37506,202223
93485,161981,37532,201623
93496,161410,37565,201021
93505,160817,37582,200398
93515,160198,37581,199817
93526,159580,37581,199422
93535,159089,37595,199213
93545,158844,37600,199208
93555,158717,37633,199227
93566,158522,37625,199130
93575,158174,37637,198969
93585,157943,37630,198783
93596,157835,37658,198680
93606,157500,37632,198488
93616,157674,37668,198423
93625,157805,37661,198426
93635,157905,37690,198287
93653,157984,37715,198108
93655,158056,37711,197927
93665,158142,37712,197744
93675,158311,37730,197749
93685,158465,37742,197754
93695,158581,37745,197778
93706,158751,37759,197827
93715,158973,37778,197920
93726,159186,37789,197993
93735,159403,37806,198027
93746,159652,37823,198047
93754,159893,37840,198054
93765,160088,37853,198086
93776,160182,37866,198140
93786,160309,37889,198162
93795,160499,37891,198204
93805,160668,37897,198221
93816,160842,37905,198172
93826,160951,37920,198192
93835,161043,37923,198169
93845,161102,37930,198132
93856,161188,37934,198116
93866,161219,37951,198094
93875,161277,37949,198103
93885,161358,37950,198080
93895,161397,37969,198060
93905,161467,37964,198024
93915,161477,37976,197997
93925,161463,37959,197930
93935,161488,37954,197884
93945,161436,37960,197848
93955,161481,37942,197796
93965,161439,37950,197747
93975,161391,37939,197693
93985,161306,37930,197582
93995,161146,37912,197410
94005,161032,37895,197232
94015,160805,37879,196952
94025,160615,37870,196712
94035,160365,37852,196441
94045,160166,37851,196244
94055,160026,37863,196202
94065,159967,37868,196272
94075,159908,37890,196325
94084,159755,37886,196317
94095,159511,37921,196280
94105,159138,37889,196170
94115,158876,37920,196086
94125,158709,37920,196026
94135,158557,37943,196094
94145,158738,37971,196459
94155,159225,38013,197168
94165,159658,38034,197830
94174,159914,37938,198306
94185,159882,38021,198472
94195,159706,38007,198427
94206,159662,37984,198390
94214,159695,37956,198388
94225,159641,37917,198288
94235,159794,37897,198426
94246,160074,37881,198745
94255,160374,37857,199219
94265,160716,37837,199743
94275,161023,37802,200203
94285,161172,37785,200505
94294,161261,37793,200741
94304,161486,37768,201092
94315,161785,37748,201511
94325,162091,37724,201910
94334,162403,37697,202339
94344,162867,37694,202883
94355,163487,37681,203632
94365,164191,37688,204386
94375,164834,37682,205124
94384,165492,37702,205772
94395,165877,37703,206117
94405,166076,37693,206134
94415,166072,37710,206032
94425,165995,37706,205799
94435,165891,37712,205584
94445,165751,37710,205345
94455,165501,37693,204996
94464,165175,37689,204505
94475,164774,37682,203990
94485,164376,37650,203428
94495,164028,37662,203010
94504,163733,37644,202583
94515,163380,37626,202170
94525,162967,37606,201726
94535,162551,37590,201307
94544,162080,37575,200828
94554,161603,37569,200302
94564,161083,37564,199779
94575,160627,37587,199315
94584,160262,37591,198955
94594,159960,37601,198648
94605,159522,37603,198270
94614,159008,37604,197893
94625,158509,37591,197515
94635,158004,37593,197145
94645,157593,37599,196923
94655,157322,37593,196728
94665,157095,37607,196631
94674,156961,37607,196710
94684,156921,37617,196837
94695,156803,37607,196948
94705,156598,37606,196911
94714,156312,37601,196739
94724,156043,37594,196579
94735,155821,37567,196475
94745,155751,37567,196409
94754,155757,37577,196393
94764,155867,37578,196380
94774,155917,37566,196248
94785,155753,37577,196003
94793,155624,37576,195754
94804,155744,37584,195668
94815,155975,37597,195602
94825,156223,37608,195527
94834,156485,37637,195519
94844,156715,37637,195547
94855,156941,37671,195674
94865,157310,37696,195912
94875,157716,37715,196114
94884,158158,37767,196253
94895,158588,37797,196386
94905,158932,37816,196441
94915,159160,37846,196470
94924,159376,37868,196498
94934,159554,37877,196493
94944,159705,37894,196495
94955,159868,37919,196542
94964,160017,37933,196601
94974,160095,37956,196650
94984,160208,37960,196638
94995,160228,37954,196654
95004,160309,37955,196620
95014,160299,37945,196623
95024,160320,37938,196525
95034,160275,37956,196520
95043,160247,37937,196459
95053,160234,37915,196424
95064,160209,37908,196384
95074,160148,37908,196346
95084,160170,37889,196358
95094,160161,37900,196373
95104,160133,37893,196429
95114,160069,37894,196375
95124,159944,37878,196332
95134,159851,37876,196188
95144,159706,37846,196049
95154,159542,37854,195949
95164,159399,37849,195818
95174,159302,37843,195660
95184,159153,37830,195460
95194,159049,37833,195293
95204,158923,37844,195182
95213,158902,37881,195164
95224,158864,37897,195260
95234,158833,37904,195421
95245,158829,37923,195613
95253,158720,37922,195784
95263,158430,37948,195862
95274,158347,37961,196078
95284,158482,38000,196551
95294,158785,38037,197227
95304,159105,38051,197847
95314,159213,38064,198363
95324,159330,38044,198697
95333,159448,38038,198949
95343,159612,38004,199157
95354,159922,37980,199350
95364,160095,37951,199496
95374,160224,37919,199657
95383,160287,37905,199731
95394,160016,37864,199559
95404,159949,37855,199731
95414,160196,37842,200130
95424,160669,37805,200646
95434,161019,37808,201062
95444,161219,37783,201270
95455,161301,37764,201446
95464,161546,37758,201727
95474,161942,37753,202223
95484,162543,37758,202822
95494,162985,37746,203248
95503,163313,37743,203589
95514,163606,37736,203921
95524,163776,37736,204100
95534,163823,37733,204120
95543,163793,37729,203963
95553,163640,37737,203719
95564,163257,37691,203158
95574,162676,37675,202358
95583,161880,37625,201364
95593,161063,37605,200383
95604,160273,37585,199487
95613,159580,37553,198735
95624,159026,37528,198099
95633,158663,37545,197723
95644,158406,37523,197499
95654,158314,37552,197436
95664,158285,37560,197578
95674,158324,37567,197769
95684,158361,37604,197882
95694,158126,37625,197708
95704,157749,37633,197460
95713,157322,37645,197179
95723,156895,37657,196908
95733,156558,37667,196733
95743,156381,37671,196678
95753,156255,37671,196714
95764,156256,37685,196829
95773,156444,37705,197006
95784,156624,37746,196970
95793,156643,37745,196702
95804,156480,37741,196312
95814,156365,37764,195900
95824,156113,37752,195520
95833,155954,37754,195230
95843,156020,37766,195029
95854,156188,37775,195002
95864,156433,37819,194973
95874,156699,37826,195047
95883,156995,37855,195104
95894,157258,37880,195265
95904,157538,37903,195338
95914,157764,37927,195439
95923,157956,37944,195480
95934,158186,37977,195585
95944,158363,38002,195664
95954,158536,38039,195739
95963,158773,38033,195764
95973,158926,38076,195747
95983,159080,38107,195692
95994,159223,38112,195660
96003,159366,38153,195668
96013,159520,38145,195690
96023,159633,38157,195685
96034,159625,38138,195664
96043,159646,38170,195641
96053,159640,38131,195581
96063,159608,38147,195538
96074,159586,38131,195491
96083,159577,38135,195480
96093,159571,38127,195435
96103,159544,38111,195433
96113,159505,38087,195403
96123,159499,38075,195407
96132,159493,38077,195451
96143,159456,38062,195444
96153,159444,38065,195455
96164,159362,38048,195507
96173,159310,38058,195446
96183,159237,38048,195453
96193,159158,38026,195427
96203,159076,38029,195388
96213,158968,38021,195329
96223,158827,37975,195195
96233,158673,37976,194982
96243,158451,37971,194749
96253,158229,37933,194532
96263,157994,37924,194353
96273,157703,37904,194197
96283,157350,37891,193996
96293,156890,37881,193692
96303,156365,37875,193350
96313,155896,37885,192977
96323,155533,37862,192638
96333,155205,37897,192312
96343,155218,37920,192372
96353,155524,37969,192728
96363,156193,38024,193556
96373,157083,38064,194522
96382,157853,38078,195269
96392,158273,38078,195719
96403,158730,38078,196231
96414,159302,38072,196909
96423,159994,38037,197673
96433,160595,37985,198391
96443,161133,37955,199071
96453,161816,37913,199885
96462,162312,37868,200576
96473,162547,37800,200928
96483,162504,37729,201066
96493,162235,37624,201013
96502,161903,37511,200937
96512,161624,37453,200933
96523,161429,37427,201013
96533,161263,37367,201061
96542,161119,37321,201019
96553,160864,37269,200798
96563,160497,37237,200437
96573,160095,37195,200133
96583,159874,37191,200012
96592,159812,37184,199982
96603,159757,37147,199982
96614,159716,37164,199975
96623,159643,37130,199943
96633,159653,37107,199921
96643,159693,37125,200022
96653,159781,37120,200103
96663,159883,37123,200243
96673,160003,37128,200350
96683,160175,37143,200575
96693,160437,37152,200870
96703,160816,37134,201318
96712,161446,37190,202029
96722,162350,37219,203073
96732,163406,37238,204253
96742,164350,37279,205135
96752,164914,37316,205561
96763,165059,37344,205472
96773,164971,37358,205093
96783,164789,37362,204682
96792,164595,37362,204200
96802,164403,37386,203755
96813,164255,37391,203388
96823,164143,37404,203030
96833,163981,37421,202633
96842,163706,37442,202207
96852,163141,37462,201500
96863,162402,37462,200658
96874,161519,37497,199826
96883,160693,37521,199020
96893,159970,37519,198378
96903,159476,37532,198073
96913,159134,37564,197883
96922,158815,37572,197669
96933,158535,37594,197479
96943,158273,37623,197151
96953,157940,37648,196752
96962,157762,37661,196417
96973,157741,37708,196205
96983,157793,37731,196014
96993,157707,37737,195742
97002,157296,37710,195204
97012,156795,37716,194683
97022,156490,37729,194259
97033,156388,37730,193935
97042,156405,37736,193740
97052,156530,37766,193654
97062,156848,37775,193706
97072,157294,37820,193863
97082,157805,37845,194082
97092,158198,37872,194374
97103,158437,37892,194538
97113,158527,37898,194569
97123,158537,37941,194546
97132,158562,37949,194524
97142,158599,37934,194487
97152,158656,37944,194498
97162,158706,37950,194466
97173,158713,37951,194406
97182,158709,37951,194372
97193,158709,37955,194327
97203,158833,37978,194342
97212,159117,38003,194421
97222,159397,38040,194458
97232,159528,38052,194175
97242,159427,38085,193537
97252,159258,38047,192790
97262,158948,38024,191905
97272,158364,37979,190955
97282,157600,37950,189957
97292,156846,37887,188962
97301,156416,37892,188465
97313,156419,37893,188444
97322,156778,37915,188750
97332,157051,37897,188905
97342,156547,37880,188370
97352,155513,37822,187310
97362,154924,37797,186795
97372,154809,37811,186678
97382,154910,37812,186799
97392,155084,37824,186973
97402,155252,37831,187169
97413,155498,37850,187460
97422,155899,37862,187947
97432,156242,37895,188253
97454,156594,37911,188608
97462,156688,37927,188701
97495,156901,37931,188946
97501,156903,37924,188975
97511,156907,37934,188987
97562,156827,37922,188857
97572,156820,37927,188800
97582,156786,37908,188835
97591,156781,37910,188861
97657,156502,37872,188840
97662,156385,37856,188810
97672,156318,37847,188811
97682,156247,37875,188778
97692,156198,37857,188725
97702,156145,37843,188742
97712,156079,37848,188722
97721,156056,37845,188674
97732,156017,37828,188716
97742,156049,37827,188771
97752,156099,37839,188909
97762,156157,37823,189058
98328,160030,38387,194148
98334,160479,38446,194418
98381,162215,38627,195666
98391,162451,38636,195857
98402,162612,38660,196000
98412,162706,38672,196123
98421,162844,38696,196269
98431,163011,38709,196411
98441,163200,38714,196529
98452,163294,38723,196612
98461,163355,38720,196643
98471,163399,38744,196673
98481,163478,38745,196762
98491,163553,38746,196768
98513,163473,38768,196715
98578,163618,38747,196712
98581,163571,38746,196654
98591,163488,38724,196591
98601,163480,38725,196603
98611,163440,38726,196556
98622,163403,38702,196476
98631,163273,38683,196320
98641,163086,38654,196089
98651,162791,38645,195843
98701,161488,38504,194884
98711,161326,38478,194708
98721,161181,38457,194508
98731,160968,38442,194363
98741,160819,38416,194229
98750,160656,38403,194091
98760,160540,38366,193988
98771,160406,38363,193912
98781,160367,38345,193889
98791,160348,38343,193864
98801,160333,38321,193864
98811,160367,38302,193909
98821,160444,38303,193981
98831,160516,38300,194000
98840,160581,38276,194063
98851,160605,38288,194098
98971,160455,38216,194018
98974,160480,38204,194048
98981,160442,38217,194050
98991,160460,38199,194054
99013,160463,38184,194056
99034,160454,38183,194030
99054,160377,38178,193983
99074,160285,38180,193935
99081,160268,38160,193900
99201,160236,38171,193632
99368,160949,38515,194318
99528,157743,38460,192728
99602,159014,38570,193707
99610,159101,38576,193753
99620,159197,38580,193856
99741,159667,38682,194258
99821,159430,38794,193969
99830,159574,38835,193966
99854,159938,38868,194068
99901,161209,38990,194584
99911,161560,39001,194761
99920,161863,39024,194958
100042,162542,38999,195691
100054,162416,38987,195577
100060,162374,38957,195567
100070,162325,38941,195539
100080,162259,38947,195489
100090,162255,38941,195482
100100,162267,38917,195503
100110,162306,38912,195514
100120,162305,38902,195450
100129,162171,38878,195381
100139,161982,38847,195217
100153,161722,38824,195054
100160,161473,38782,194891
100169,161291,38754,194776
100180,161194,38744,194698
100190,161136,38730,194615
100200,161082,38685,194557
100209,161002,38677,194473
100220,160925,38638,194397
100230,160843,38624,194340
100240,160778,38605,194266
100250,160677,38593,194212
100260,160639,38585,194202
100270,160618,38561,194201
100280,160617,38552,194174
100290,160638,38539,194158
100300,160621,38539,194176
100310,160636,38524,194139
100320,160609,38511,194153
100330,160616,38492,194142
100340,160596,38505,194138
100350,160612,38498,194088
100360,160606,38471,194094
100395,160567,38464,194085
100414,160509,38440,194069
100420,160507,38438,194031
100430,160509,38440,193974
100440,160465,38424,193951
100450,160486,38412,193881
100459,160426,38395,193870
100469,160416,38392,193835
100520,160346,38362,193681
100534,160249,38339,193639
100540,160237,38341,193608
100549,160185,38343,193574
100640,160292,38322,193530
100649,160329,38319,193526
100660,160354,38350,193561
100669,160402,38338,193609
100679,160444,38343,193649
100826,161028,38494,195140
100859,161140,38493,195460
100873,161130,38495,195545
100879,161073,38497,195590
100889,160924,38495,195554
100899,160715,38484,195471
100910,160503,38464,195366
100919,160360,38472,195307
100929,160301,38490,195286
100955,160325,38485,195309
100958,160333,38480,195325
100969,160366,38487,195320
100979,160381,38507,195326
100990,160401,38513,195341
101000,160427,38522,195306
101123,160734,38615,195351
101177,160832,38684,195404
101218,161141,38738,195505
101229,161349,38766,195562
101239,161607,38794,195607
101276,162361,38882,196046
101279,162472,38889,196170
101289,162567,38913,196274
101315,162591,38943,196337
101319,162572,38956,196332
101329,162619,38963,196317
101338,162555,38972,196341
101348,162565,38957,196334
101374,162735,38972,196361
101418,163502,38940,196617
101433,163588,38919,196707
101439,163685,38895,196889
101449,163716,38891,196963
101459,163692,38870,197000
101469,163634,38856,196947
101479,163515,38863,196910
101489,163427,38832,196768
101499,163309,38804,196615
101508,163147,38802,196463
101519,162994,38760,196291
101529,162759,38746,196168
101539,162583,38715,196015
101548,162402,38701,195883
101558,162267,38659,195780
101569,162189,38632,195673
101594,162087,38615,195505
101599,162027,38576,195443
101613,161925,38567,195370
101619,161829,38539,195300
101628,161728,38518,195219
101639,161615,38511,195150
101649,161534,38498,195070
101659,161507,38473,195025
101668,161486,38451,194958
101678,161453,38434,194925
101689,161423,38414,194890
101698,161391,38412,194849
101708,161325,38386,194873
101718,161338,38391,194827
101729,161338,38363,194829
101738,161300,38366,194790
101749,161306,38337,194804
101759,161302,38351,194761
101769,161283,38348,194782
101779,161271,38328,194810
101789,161249,38341,194817
101798,161235,38308,194812
101812,161233,38318,194800
101819,161247,38304,194820
101829,161228,38297,194799
101839,161241,38311,194775
101849,161231,38289,194753
101859,161245,38263,194724
101869,161216,38270,194740
101878,161225,38268,194710
101888,161209,38259,194656
101914,161158,38251,194626
102112,160941,38245,194574
102451,161034,38431,195769
102458,161010,38413,195728
102467,161010,38434,195727
102478,161006,38463,195699
102488,160982,38462,195705
102609,160900,38521,195517
102614,160908,38516,195473
102658,161160,38528,195290
102778,160914,38510,194951
102794,160789,38486,194781
102797,160732,38476,194701
102808,160745,38493,194543
102833,160821,38469,194453
102837,160872,38455,194488
102848,160883,38436,194565
102857,160880,38429,194639
102868,160856,38447,194679
102877,160886,38430,194667
102888,160876,38414,194673
102898,160852,38420,194717
102908,160858,38418,194740
102917,160879,38413,194814
102932,160922,38403,194823
102998,161006,38338,194841
103014,161028,38299,194857
103017,161028,38299,194883
103027,160991,38304,194873
103037,160980,38278,194850
103053,160948,38266,194833
103057,160934,38272,194847
103067,160926,38255,194796
103078,160873,38248,194809
103087,160868,38233,194762
103097,160854,38241,194788
103108,160886,38201,194827
103117,160891,38204,194867
103127,160931,38199,194933
103137,160995,38201,194979
103148,161068,38178,195091
103158,161154,38184,195125
103167,161258,38178,195227
103177,161367,38184,195270
103192,161434,38186,195313
103198,161490,38167,195408
103208,161524,38179,195462
103217,161547,38183,195465
103228,161545,38153,195446
103254,161486,38169,195338
103257,161468,38174,195259
103267,161452,38151,195262
103294,161416,38153,195173
103408,161156,38187,195026
103457,161175,38223,195235
103458,161226,38242,195254
103466,161248,38245,195283
103477,161298,38260,195314
103487,161324,38281,195323
103497,161316,38288,195381
103840,160856,38374,195690
103842,160801,38364,195631
103940,160847,38379,195101
103942,160889,38379,195152
103947,160868,38412,195161
103958,160896,38385,195213
103967,160782,38394,195157
103977,160762,38398,195092
103987,160782,38393,195034
104082,160724,38382,194601
104086,160761,38348,194623
104096,160837,38367,194693
104106,160872,38365,194743
104117,160891,38334,194797
104126,160924,38354,194828
104137,160922,38357,194864
104147,160929,38365,194850
104157,160923,38355,194862
104166,160965,38342,194870
104176,160980,38351,194835
104186,160976,38354,194864
104197,160984,38342,194893
104207,160966,38342,194912
104216,160937,38332,194860
104226,160897,38326,194809
104237,160908,38312,194742
104247,160929,38313,194715
104256,160921,38309,194716
104266,160912,38311,194710
104276,160859,38286,194665
104286,160792,38305,194640
104296,160779,38289,194602
104307,160746,38297,194558
104317,160747,38282,194511
104327,160706,38271,194455
104336,160670,38272,194410
104347,160677,38274,194428
104356,160647,38261,194428
104367,160656,38262,194462
104376,160645,38264,194498
104386,160647,38268,194495
104397,160629,38234,194501
104407,160632,38276,194487
104416,160667,38240,194530
104426,160699,38231,194580
104436,160752,38260,194618
104446,160818,38243,194671
104457,160874,38245,194715
104466,160940,38236,194742
104476,161032,38225,194772
104486,161058,38221,194828
104497,161101,38225,194897
104506,161151,38214,194927
104516,161123,38194,194944
104526,161132,38209,194912
104537,161124,38210,194865
104546,161129,38194,194829
104556,161141,38179,194786
104567,161143,38187,194764
104687,161120,38164,194739
104716,161094,38174,194725
104718,161086,38169,194728
104726,161053,38187,194756
104846,161072,38272,195279
104853,161047,38277,195310
104856,161046,38282,195353
104874,161058,38274,195400
104894,161035,38319,195523
104915,161058,38311,195643
104917,161057,38277,195732
104926,161051,38289,195749
104936,161040,38270,195772
104946,161048,38298,195790
104956,161024,38295,195768
105086,160605,38332,195373
105159,160433,38346,195030
105161,160431,38351,195009
105166,160397,38352,194960
105176,160371,38355,194954
105186,160379,38356,194914
105196,160357,38365,194867
105206,160382,38372,194793
105301,160487,38360,194680
105357,160903,38343,194725
105359,161011,38324,194802
105366,161117,38347,194861
105375,161227,38349,194957
105385,161347,38355,194991
105395,161431,38347,195051
105405,161482,38360,195080
105416,161600,38352,195115
105426,161654,38363,195168
105436,161682,38361,195232
105446,161704,38364,195262
105456,161693,38365,195276
105466,161667,38359,195264
105476,161653,38366,195242
105486,161643,38367,195244
105496,161689,38371,195278
105505,161756,38367,195318
105535,161927,38390,195487
105538,162030,38409,195599
105546,162199,38418,195723
105555,162410,38471,195897
105566,162653,38483,196147
105576,162919,38523,196378
105586,163116,38570,196618
105595,163365,38609,196844
105606,163569,38634,197079
105616,163685,38682,197249
105625,163773,38708,197382
105636,163918,38748,197574
105646,164029,38796,197701
105656,164113,38817,197866
105666,164140,38823,197951
105676,164101,38868,198024
105686,164024,38860,198030
105696,163952,38862,198043
105706,163933,38896,198081
105715,163978,38900,198152
105725,164083,38903,198267
105736,164104,38918,198371
105746,164147,38925,198456
105755,164206,38924,198581
105765,164222,38933,198699
105775,164263,38927,198802
105786,164301,38907,198948
105795,164360,38926,199052
105812,164411,38919,199161
105926,164563,38858,199631
105977,164669,38812,199742
105979,164689,38805,199744
105985,164740,38801,199792
105996,164817,38806,199781
106005,164882,38787,199825
106015,164969,38800,199873
106033,165071,38812,199907
106036,165171,38815,199956
106045,165225,38866,199996
106074,165336,38841,200071
106119,165657,38878,200281
106133,165719,38858,200319
106136,165743,38895,200390
106154,165805,38870,200429
106174,165887,38895,200460
106194,165969,38938,200553
106197,166004,38939,200590
106206,166056,38934,200598
106215,166081,38942,200632
106234,166095,38965,200710
106236,166160,38969,200757
106246,166198,38976,200771
106275,166271,38971,200877
106277,166295,38980,200909
106293,166314,38957,200897
106295,166348,38988,200943
106305,166387,39001,200945
106315,166417,39006,200971
106325,166445,39003,201017
106335,166475,39007,201066
106353,166507,39018,201092
106356,166553,39012,201124
106366,166561,39010,201144
106375,166579,39031,201168
106385,166603,39030,201189
106395,166611,39041,201226
106405,166661,39046,201235
106415,166692,39038,201248
106520,166953,39094,201530
106523,166974,39094,201541
106525,166999,39080,201564
106646,167196,39148,201743
106653,167209,39162,201758
106786,167340,39131,201875
106836,167371,39132,201880
106839,167386,39124,201910
106844,167399,39099,201887
106917,167406,39132,201953
106935,167442,39112,201944
106937,167455,39131,201959
106944,167439,39125,201976
106955,167460,39131,201967
106974,167449,39132,201964
106976,167473,39136,201970
106984,167474,39142,201969
107014,167495,39138,202003
107034,167495,39119,202016
107097,167556,39157,202115
107138,167586,39165,202122
107175,167584,39180,202135
107194,167593,39185,202136
107197,167587,39179,202130
107205,167596,39205,202133
107214,167590,39194,202111
107255,167585,39202,202127
107297,167568,39207,202102
107378,167531,39212,202060
107381,167539,39212,202058
107384,167535,39222,202057
107525,167536,39198,202063
107535,167528,39181,202018
107543,167550,39154,202052
107553,167544,39165,202049
107564,167536,39160,202037
107662,167531,39154,202044
107673,167530,39167,202045
107717,167534,39164,202036
107724,167525,39143,202054
107734,167534,39173,202010
107819,167524,39176,202015
107931,167515,39184,202014
107956,167515,39181,201962
107958,167516,39186,202009
108062,167504,39215,201985
108064,167523,39203,202005
108074,167518,39206,201954
108083,167496,39207,201975
108093,167501,39189,201989
108103,167510,39197,201943
108113,167500,39211,201980
108124,167485,39215,201975
108133,167486,39225,201962
108198,167454,39198,201964
108301,167453,39175,201930
108414,167479,39148,201947
108612,167534,39167,201954
108722,167548,39188,201857
108725,167542,39198,201848
109021,167506,39244,201689
109057,167460,39220,201609
109074,167416,39213,201589
109083,167420,39199,201554
109115,167367,39188,201547
109134,167343,39163,201523
109154,167357,39164,201501
109174,167317,39155,201484
109281,167343,39142,201486
109284,167343,39149,201512
109292,167355,39135,201514
109382,167419,39166,201523
109416,167419,39167,201527
109434,167412,39166,201521
109483,167399,39173,201535
109494,167372,39178,201525
109625,167316,39180,201467
109663,167302,39186,201472
109673,167267,39175,201460
109682,167283,39189,201461
109759,167230,39189,201394
109762,167231,39197,201399
109772,167209,39177,201388
109782,167204,39193,201392
109792,167216,39181,201374
109802,167206,39191,201380
109813,167200,39194,201371
109862,167172,39162,201368
109895,167180,39143,201360
109902,167176,39156,201349
109914,167159,39130,201362
109961,167164,39115,201355
109972,167170,39111,201342
109982,167161,39104,201344
109992,167134,39111,201316
110001,167144,39113,201331
110011,167139,39102,201320
110022,167139,39120,201330
110055,167145,39082,201312
110118,167122,39080,201319
110122,167112,39079,201315
110131,167147,39074,201292
110142,167089,39079,201306
110152,167096,39084,201300
110162,167084,39071,201294
110171,167085,39067,201275
110181,167103,39070,201266
110193,167063,39074,201275
110202,167079,39073,201307
110211,167060,39070,201277
110221,167068,39060,201271
110233,167059,39063,201251
110254,167040,39067,201250
110274,167045,39074,201257
110282,167044,39065,201248
110292,167027,39065,201256
110302,167029,39071,201220
110312,167009,39065,201245
110322,166999,39069,201242
110332,167002,39073,201250
110341,167017,39078,201230
110397,166986,39075,201233
110415,167019,39074,201217
110461,166971,39086,201204
110471,166966,39087,201202
110481,166964,39071,201195
110491,166957,39088,201170
110501,166935,39097,201192
110511,166951,39080,201206
110522,166963,39072,201178
110532,166931,39085,201180
110541,166924,39088,201160
110551,166916,39094,201167
110562,166930,39091,201174
110573,166936,39097,201176
110638,166888,39094,201148
110641,166877,39107,201144
110652,166873,39109,201130
110662,166885,39114,201122
110671,166874,39116,201130
110682,166860,39111,201136
110693,166866,39110,201125
110701,166850,39117,201107
110710,166846,39115,201106
110721,166851,39100,201091
110732,166824,39080,201083
110742,166837,39098,201063
110753,166831,39094,201079
110761,166833,39082,201084
110771,166806,39082,201060
110781,166800,39083,201068
110793,166795,39058,201063
110801,166797,39056,201051
110811,166818,39047,201047
110834,166792,39052,201042
110841,166786,39042,201024
110852,166774,39038,201032
110862,166777,39042,201007
110916,166761,39013,201011
110960,166758,38990,200993
110971,166740,38984,200988
110981,166735,38992,200953
110991,166701,39008,200976
111014,166736,38992,200985
111021,166725,38989,200997
111031,166692,38994,200975
111041,166719,39002,200954
111050,166720,39003,200963
111061,166683,38995,200963
111074,166699,38965,200959
111082,166689,38986,200955
111091,166697,38992,200928
111101,166649,38991,200941
111111,166679,38982,200955
111121,166668,38980,200921
111177,166652,38971,200923
111194,166635,38977,200918
111202,166647,38978,200905
111211,166624,38995,200898
111221,166629,38978,200897
111231,166634,38961,200896
111241,166608,38976,200880
111251,166612,38954,200887
111261,166591,38979,200865
111273,166602,38994,200867
111281,166592,38994,200863
111291,166580,38982,200850
111301,166568,39002,200831
111313,166548,39002,200837
111321,166552,38996,200848
111332,166578,38971,200839
111341,166557,38998,200810
111351,166541,38998,200806
111375,166543,38998,200803
111381,166521,38999,200810
111416,166511,39002,200796
111460,166466,39008,200758
111471,166456,39025,200761
111481,166458,39055,200734
111491,166459,39026,200724
111514,166441,39024,200730
111520,166447,39020,200719
111534,166430,39012,200715
111541,166415,39019,200725
111554,166401,39021,200708
111575,166396,39023,200687
111581,166397,39033,200689
111593,166367,39025,200670
111600,166347,39022,200656
111610,166364,39036,200654
111621,166361,39020,200638
111633,166359,39009,200634
111640,166348,39022,200628
111651,166330,39016,200608
111661,166337,39014,200578
111673,166329,39006,200608
111680,166315,38980,200603
111690,166329,38983,200568
111701,166308,38981,200591
111710,166325,38973,200574
111720,166304,38963,200575
111730,166290,38978,200584
111741,166274,38961,200555
111750,166268,38960,200547
111760,166271,38957,200544
111770,166281,38953,200539
111781,166271,38949,200534
111791,166273,38935,200541
111800,166261,38944,200529
111878,166213,38906,200484
111881,166201,38921,200488
111890,166197,38920,200456
111900,166175,38917,200467
111910,166197,38936,200452
111934,166178,38911,200445
111940,166170,38910,200440
111950,166161,38917,200426
111960,166154,38908,200432
111970,166147,38929,200423
111981,166140,38917,200427
111991,166134,38913,200395
112000,166132,38907,200403
112010,166107,38904,200381
112020,166109,38906,200364
112031,166108,38915,200365
112041,166101,38895,200356
112050,166075,38906,200346
112060,166070,38910,200338
112074,166069,38906,200328
112081,166055,38907,200345
112090,166054,38916,200316
112100,166040,38909,200329
112113,166029,38899,200320
112121,166030,38922,200298
112130,166015,38912,200282
112140,166019,38913,200272
112150,166018,38901,200287
112160,166001,38916,200278
112169,165995,38921,200291
112180,165993,38913,200279
112191,165996,38906,200278
112201,165987,38910,200250
112210,165974,38918,200234
112220,165952,38929,200230
112230,165957,38912,200245
112240,165957,38926,200224
112250,165924,38918,200220
112260,165937,38925,200204
112270,165929,38927,200196
112280,165921,38903,200193
112290,165902,38924,200185
112300,165909,38899,200194
112313,165893,38932,200180
112360,165870,38929,200155
112370,165856,38932,200144
112379,165855,38940,200092
112394,165857,38933,200137
112400,165832,38937,200120
112414,165836,38933,200111
112459,165816,38931,200084
112474,165786,38939,200062
112495,165790,38930,200077
112500,165807,38921,200058
112510,165793,38914,200053
112520,165795,38907,200022
112534,165793,38902,200032
112540,165784,38902,200047
112550,165772,38910,200020
112559,165766,38887,200020
112661,165729,38856,199979
112700,165682,38853,199945
112735,165660,38852,199891
112890,165563,38833,199782
112893,165538,38833,199768
112900,165514,38823,199771
113020,165419,38828,199656
113022,165430,38835,199636
113029,165375,38840,199638
113040,165401,38839,199619
113049,165397,38816,199639
113059,165390,38829,199583
113069,165374,38838,199580
113080,165355,38835,199602
113089,165368,38820,199560
113100,165345,38832,199573
113114,165355,38835,199561
113119,165346,38845,199589
113128,165353,38830,199591
113154,165338,38845,199576
113160,165342,38844,199566
113169,165321,38846,199546
113179,165331,38835,199520
113215,165302,38848,199534
113219,165306,38854,199525
113229,165296,38852,199469
113239,165264,38872,199502
113253,165270,38864,199480
113259,165279,38853,199486
113269,165257,38858,199449
113279,165203,38859,199454
113315,165225,38841,199436
113359,165214,38810,199409
113369,165213,38811,199382
113378,165202,38821,199387
113393,165192,38797,199393
113399,165190,38797,199386
113409,165191,38803,199381
113419,165193,38784,199361
113433,165179,38767,199349
113439,165174,38782,199345
113454,165180,38769,199344
113474,165155,38771,199336
113479,165156,38768,199340
113494,165128,38768,199338
113499,165135,38763,199313
113509,165134,38743,199297
113519,165133,38754,199298
113529,165111,38750,199278
113539,165067,38746,199281
113549,165081,38756,199282
113558,165082,38750,199259
113595,165072,38748,199251
113615,165048,38723,199250
113659,165031,38721,199211
113673,164996,38763,199199
113694,164997,38727,199167
113714,165003,38735,199157
113718,164991,38730,199138
113728,165004,38731,199126
113739,164940,38724,199134
113749,164958,38735,199126
113759,164949,38718,199111
113769,164927,38725,199082
113779,164902,38736,199103
113793,164898,38742,199106
113798,164907,38721,199076
113808,164914,38717,199073
113819,164897,38723,199051
113829,164888,38724,199045
113838,164873,38723,199045
113849,164856,38730,199028
113858,164859,38735,199027
113869,164858,38710,199020
113878,164846,38730,199008
113893,164844,38724,199016
113939,164807,38744,198979
113949,164825,38742,198939
113958,164774,38755,198964
113973,164797,38754,198946
113979,164770,38739,198974
113989,164785,38739,198947
113999,164772,38754,198945
114008,164773,38747,198940
114035,164745,38755,198915
114039,164746,38743,198909
114048,164757,38755,198901
114058,164728,38747,198903
114074,164691,38753,198888
114079,164708,38757,198868
114093,164712,38758,198865
114098,164706,38768,198865
114135,164669,38757,198831
114138,164680,38753,198845
114148,164655,38753,198874
114159,164651,38751,198809
114173,164658,38738,198818
114194,164643,38716,198802
114199,164646,38726,198782
114213,164638,38730,198788
114218,164630,38711,198785
114228,164613,38705,198776
114239,164632,38689,198751
114249,164601,38692,198762
114258,164599,38685,198741
114268,164595,38687,198743
114278,164601,38672,198723
114293,164592,38660,198725
114338,164539,38657,198691
114348,164495,38689,198672
114359,164535,38636,198650
114369,164527,38651,198667
114394,164501,38641,198651
114415,164481,38651,198617
114418,164476,38635,198627
114428,164466,38647,198612
114439,164465,38647,198601
114449,164455,38650,198594
114458,164456,38656,198590
114473,164446,38628,198578
114495,164423,38634,198550
114499,164409,38629,198542
114508,164398,38656,198574
114518,164381,38631,198502
114534,164376,38633,198513
114538,164373,38638,198507
114548,164376,38640,198513
114558,164379,38628,198497
114574,164320,38636,198481
114579,164330,38630,198488
114588,164322,38628,198442
114598,164321,38631,198467
114635,164314,38642,198449
114655,164278,38631,198398
114658,164279,38648,198411
114668,164273,38637,198389
114678,164262,38644,198400
114693,164249,38653,198380
114714,164264,38636,198370
114758,164204,38647,198331
114768,164187,38664,198291
114778,164165,38659,198325
114788,164176,38656,198302
114798,164173,38655,198311
114808,164146,38657,198288
114818,164159,38662,198292
114828,164150,38660,198259
114837,164143,38667,198269
114848,164099,38658,198249
114858,164127,38665,198244
114869,164103,38667,198257
114878,164120,38653,198240
114888,164090,38660,198233
114898,164111,38659,198245
114908,164093,38670,198229
114917,164096,38683,198213
114956,164059,38664,198204
114958,164053,38676,198196
115017,164009,38662,198157
115058,163985,38643,198114
115068,163976,38633,198086
115078,163972,38628,198078
115087,163963,38625,198080
115097,163948,38629,198049
115107,163929,38606,198053
115118,163946,38623,198041
115177,163887,38589,198001
115180,163881,38572,198010
115188,163847,38581,197941
115198,163869,38588,197959
115256,163814,38570,197925
115298,163762,38560,197865
115378,163692,38556,197819
115381,163698,38555,197796
115393,163647,38556,197795
115438,163637,38560,197743
115454,163587,38558,197735
115499,163564,38560,197679
115536,163525,38569,197661
115538,163539,38572,197649
115547,163457,38612,197614
115557,163482,38560,197591
115567,163492,38556,197600
115594,163482,38567,197593
115597,163464,38565,197589
115607,163434,38573,197577
115618,163441,38568,197572
115633,163410,38576,197564
115637,163444,38572,197563
115675,163400,38576,197519
115718,163365,38576,197477
115727,163305,38597,197449
115737,163327,38572,197445
115753,163336,38573,197459
115774,163292,38567,197438
115777,163302,38586,197426
115788,163265,38577,197386
115797,163291,38600,197406
115835,163273,38595,197389
115837,163263,38595,197368
115853,163221,38574,197340
115857,163257,38585,197353
115917,163202,38559,197315
115934,163206,38565,197250
115937,163175,38539,197281
115947,163171,38545,197246
115957,163171,38531,197251
115973,163153,38539,197240
115995,163136,38536,197279
116039,163101,38509,197194
116053,163078,38491,197155
116057,163084,38511,197168
116067,163066,38503,197180
116077,163067,38472,197145
116086,163053,38495,197132
116097,163039,38508,197111
116107,163020,38502,197102
116117,163028,38490,197107
116199,162970,38489,197037
116214,162948,38466,197002
116217,162918,38485,196997
116227,162924,38488,196973
116237,162928,38497,196959
116275,162869,38488,196939
116278,162853,38481,196929
116287,162855,38477,196906
116296,162847,38496,196882
116335,162800,38477,196894
116354,162779,38502,196844
116357,162787,38476,196840
116367,162792,38493,196837
116376,162761,38479,196830
116416,162741,38474,196793
116417,162724,38489,196787
116426,162719,38497,196778
116437,162716,38480,196767
116475,162689,38500,196760
116478,162687,38492,196740
116487,162671,38518,196696
116497,162657,38485,196730
116506,162656,38505,196720
116516,162650,38490,196705
116534,162622,38486,196682
116554,162600,38491,196643
116557,162596,38504,196679
116567,162593,38550,196630
116577,162565,38504,196653
116593,162552,38513,196638
116615,162571,38500,196563
116617,162559,38510,196610
116626,162537,38535,196585
116636,162511,38511,196573
116654,162521,38514,196579
116656,162502,38500,196560
116666,162487,38489,196507
116676,162466,38497,196521
116694,162475,38496,196550
116696,162464,38488,196539
116707,162460,38479,196513
116716,162464,38479,196489
116726,162430,38476,196493
116737,162448,38446,196476
116747,162422,38478,196487
116756,162431,38478,196469
116773,162405,38449,196467
116776,162407,38444,196437
116793,162386,38446,196444
116795,162386,38453,196437
116806,162370,38441,196416
116817,162345,38438,196393
116855,162308,38434,196363
116858,162303,38430,196366
116867,162291,38411,196348
116875,162260,38412,196327
116885,162248,38423,196333
116897,162236,38405,196299
116907,162218,38426,196271
116935,162190,38421,196299
116938,162181,38419,196280
116947,162179,38405,196257
116957,162158,38411,196232
116966,162132,38412,196244
116976,162125,38406,196220
116986,162096,38417,196200
116997,162098,38421,196192
117006,162064,38417,196190
117016,162071,38421,196180
117026,162057,38404,196155
117037,162060,38395,196168
117046,162035,38403,196141
117056,162006,38404,196150
117066,161978,38409,196130
117077,162005,38408,196101
117086,161984,38405,196113
117096,161979,38407,196107
117114,161949,38409,196086
117134,161899,38399,196022
117199,161840,38419,195982
117214,161833,38418,195969
117216,161808,38409,195953
117226,161786,38426,195903
117254,161776,38407,195920
117256,161759,38405,195925
117265,161737,38417,195874
117276,161748,38410,195907
117286,161747,38403,195894
117296,161710,38401,195884
117306,161687,38410,195854
117316,161666,38416,195859
117326,161664,38416,195827
117398,161612,38410,195816
117415,161591,38438,195787
117458,161531,38417,195729
117517,161520,38413,195677
117519,161514,38394,195682
117526,161491,38396,195668
117536,161489,38386,195635
117553,161488,38377,195625
117556,161463,38390,195626
117566,161464,38431,195609
117576,161422,38373,195600
117585,161435,38369,195590
117595,161421,38373,195563
117605,161381,38357,195566
117635,161379,38351,195541
117637,161372,38351,195547
117645,161358,38310,195513
117656,161347,38331,195488
117666,161326,38317,195479
117695,161282,38323,195467
117698,161273,38330,195454
117706,161268,38340,195422
117715,161235,38303,195407
117755,161189,38313,195370
117757,161185,38308,195377
117766,161180,38313,195339
117776,161156,38320,195337
117786,161134,38317,195318
117881,161015,38292,195213
117893,161007,38284,195190
117915,160974,38290,195164
117958,160922,38302,195098
117965,160901,38300,195089
117975,160888,38299,195060
117985,160901,38297,195043
117995,160868,38292,195020
118036,160823,38305,195015
118039,160823,38282,195002
118045,160811,38263,194971
118055,160799,38295,194976
118066,160779,38300,194969
118076,160782,38297,194944
118093,160766,38301,194960
118096,160758,38295,194941
118105,160737,38304,194900
118115,160734,38301,194913
118125,160706,38333,194885
118135,160713,38312,194871
118145,160685,38296,194825
118155,160684,38299,194848
118173,160688,38310,194841
118176,160662,38316,194816
118185,160662,38292,194822
118195,160641,38299,194805
118206,160624,38332,194798
118215,160637,38310,194790
118225,160618,38314,194737
118322,160520,38303,194662
118325,160512,38270,194612
118334,160510,38295,194682
118344,160513,38295,194606
118355,160487,38283,194612
118365,160478,38287,194614
118375,160478,38272,194594
118384,160480,38273,194582
118438,160424,38245,194517
118445,160398,38223,194469
118455,160389,38238,194451
118465,160362,38217,194449
118475,160339,38223,194435
118485,160357,38220,194413
118495,160338,38212,194419
118513,160312,38225,194377
118578,160226,38189,194303
118594,160183,38170,194253
118597,160177,38175,194259
118605,160162,38191,194217
118678,160088,38189,194137
118738,160007,38157,194057
118741,160001,38167,194030
118745,159984,38166,194016
118754,159968,38160,193996
118774,159951,38164,193984
118776,159940,38157,193958
118785,159932,38156,193956
118794,159907,38142,193932
118805,159895,38159,193913
118815,159873,38155,193874
118833,159888,38173,193878
118836,159859,38161,193862
118845,159839,38150,193861
118855,159834,38155,193829
118874,159804,38158,193828
118895,159798,38157,193778
118958,159725,38151,193707
118974,159691,38160,193689
118977,159670,38165,193661
118985,159666,38155,193663
118995,159649,38160,193605
119015,159628,38171,193617
119034,159626,38137,193603
119056,159588,38160,193571
119074,159562,38156,193548
119077,159559,38175,193549
119084,159552,38177,193517
119094,159551,38169,193510
119104,159522,38149,193464
119115,159501,38154,193456
119125,159497,38178,193440
119155,159467,38173,193426
119157,159468,38169,193419
119164,159473,38180,193418
119173,159477,38155,193387
119193,159445,38164,193375
119195,159454,38140,193390
119205,159455,38115,193355
119214,159427,38132,193348
119224,159422,38119,193325
119234,159403,38120,193319
119245,159371,38125,193285
119253,159369,38107,193282
119264,159359,38095,193264
119275,159328,38107,193250
119285,159324,38101,193235
119294,159300,38097,193209
119304,159301,38097,193202
119314,159291,38081,193178
119324,159255,38066,193167
119334,159256,38076,193148
119419,159146,38053,193032
119421,159110,38046,192993
119424,159113,38049,192991
119434,159067,38046,192908
119444,159083,38055,192934
119474,159061,38037,192934
119477,159038,38025,192887
119484,159025,38035,192890
119494,158986,38026,192848
119514,158979,38037,192836
119564,158912,38011,192730
119574,158887,38028,192719
119583,158873,38024,192696
119637,158811,38007,192643
119655,158811,38023,192597
119674,158774,38017,192568
119684,158749,37995,192537
119694,158733,38024,192525
119704,158700,38010,192517
119713,158696,38012,192488
119723,158697,38001,192470
119755,158683,38020,192431
119763,158657,38008,192405
119773,158645,38019,192405
119784,158621,38015,192376
119793,158607,38033,192371
119803,158600,38009,192342
119814,158598,38007,192339
119824,158580,38026,192316
119833,158582,38008,192295
119844,158562,38001,192304
119854,158547,38032,192273
119864,158531,38037,192269
119874,158524,38035,192256
119883,158509,38009,192241
119894,158518,38004,192227
119904,158494,38036,192208
119914,158461,38030,192206
119923,158484,38025,192209
119933,158471,38029,192132
119943,158451,38062,192172
119954,158451,38029,192158
119963,158449,38018,192152
119997,158416,38038,192101
120003,158413,38046,192070
120013,158374,38023,192069
120023,158383,38028,192049
120034,158384,38017,192042
120043,158376,38015,192032
120053,158382,38006,192027
120075,158353,38001,191995
120083,158337,37986,191972
120093,158315,38001,191951
120115,158287,37976,191929
120135,158271,37962,191878
120143,158253,37950,191857
120153,158226,37962,191845
120174,158195,37954,191808
120183,158188,37939,191779
120194,158164,37942,191776
120204,158162,37941,191753
120213,158165,37922,191726
120303,158020,37911,191549
120313,158004,37911,191530
120323,158001,37905,191499
120333,157984,37898,191464
120355,157959,37908,191460
120403,157885,37888,191361
120413,157838,37898,191336
120423,157855,37883,191316
120434,157846,37886,191307
120444,157820,37877,191275
120454,157813,37893,191239
120463,157801,37898,191250
120517,157763,37883,191200
120523,157770,37893,191169
120533,157750,37882,191147
120542,157736,37889,191155
120576,157705,37889,191093
120623,157654,37894,191012
120677,157583,37906,190938
120683,157566,37892,190914
120693,157573,37893,190889
120703,157549,37895,190869
120757,157503,37906,190796
120763,157479,37900,190809
120774,157453,37910,190765
120784,157462,37911,190770
120793,157447,37897,190731
120858,157395,37909,190662
120918,157357,37913,190602
120935,157355,37891,190582
120943,157364,37880,190587
120953,157354,37883,190570
120962,157360,37878,190569
120973,157361,37869,190543
120995,157328,37856,190517
121014,157294,37839,190483
121063,157241,37830,190389
121073,157242,37833,190376
121083,157208,37831,190356
121092,157201,37806,190329
121143,157151,37811,190250
121176,157087,37803,190188
121223,157042,37800,190106
121234,157042,37823,190076
121243,157018,37793,190087
121253,157023,37796,190049
121262,157010,37781,190066
121272,157008,37796,190015
121283,156994,37797,190014
121316,156979,37794,189997
121323,156973,37784,189992
121356,156912,37792,189914
121375,156916,37789,189884
121439,156852,37788,189787
121482,156811,37812,189723
121493,156804,37799,189706
121502,156765,37811,189655
121512,156763,37805,189655
121602,156689,37817,189565
121612,156687,37833,189531
121622,156680,37810,189541
121632,156682,37809,189536
121642,156670,37817,189515
121652,156653,37806,189504
121662,156656,37801,189468
121671,156667,37825,189474
121682,156667,37796,189472
121715,156642,37831,189449
121722,156633,37825,189443
121732,156628,37835,189399
121742,156595,37827,189390
121776,156599,37824,189378
121794,156577,37806,189345
121802,156584,37808,189329
121812,156574,37811,189298
121822,156536,37790,189273
121833,156527,37796,189273
121842,156544,37791,189268
121854,156539,37795,189229
121862,156533,37776,189255
121917,156451,37751,189166
121922,156439,37759,189140
121932,156412,37758,189073
121942,156433,37740,189083
121952,156406,37724,189065
121961,156403,37742,189069
121973,156374,37739,189038
121995,156364,37734,189022
122192,156233,37732,188792
122238,156228,37738,188722
122282,156179,37732,188658
122359,156090,37734,188545
122374,156087,37732,188475
122381,156055,37733,188500
122391,156036,37730,188487
122414,156026,37746,188469
122435,156026,37752,188451
122442,156006,37748,188442
122452,156017,37749,188443
122501,155956,37739,188368
122512,155981,37744,188347
122522,155955,37766,188346
122532,155944,37767,188332
122541,155930,37746,188306
122551,155918,37752,188284
122561,155923,37741,188296
122575,155905,37758,188284
122622,155884,37758,188219
122720,155803,37701,188106
122723,155814,37689,188093
122821,155689,37668,187891
122823,155677,37668,187888
122831,155626,37681,187897
122841,155655,37645,187842
122875,155567,37644,187767
122881,155524,37650,187727
122891,155489,37645,187697
122902,155446,37656,187684
122912,155401,37643,187648
122921,155369,37627,187610
122931,155306,37632,187537
122941,155266,37626,187478
122951,155214,37616,187441
122961,155183,37604,187406
122971,155155,37616,187357
122981,155142,37609,187348
122992,155142,37605,187328
123001,155124,37613,187308
123011,155159,37615,187286
123021,155152,37616,187282
123032,155159,37600,187268
123041,155167,37619,187265
123051,155192,37610,187288
123061,155283,37624,187313
123071,155318,37613,187356
123081,155340,37627,187344
123090,155359,37626,187367
123101,155366,37627,187367
123114,155349,37619,187357
123121,155362,37624,187348
123131,155333,37601,187340
123141,155314,37629,187285
123151,155288,37630,187287
123161,155259,37627,187257
123171,155219,37609,187237
123194,155183,37624,187209
123201,155177,37620,187199
123210,155191,37615,187212
123221,155200,37636,187217
123231,155236,37634,187203
123241,155245,37638,187211
123275,155607,37652,187424
123294,155963,37667,187689
123300,156061,37668,187775
123311,156120,37674,187843
123321,156193,37684,187894
123332,156304,37667,187994
123341,156414,37698,188072
123351,156581,37704,188191
123361,156761,37717,188371
123371,156981,37724,188571
123381,157112,37721,188736
123391,157170,37735,188790
123401,157220,37741,188784
123411,157197,37741,188804
123435,157211,37751,188772
123441,157218,37756,188796
123497,157281,37759,188827
123500,157289,37763,188837
123511,157312,37750,188829
123521,157347,37763,188876
123531,157352,37761,188888
123541,157375,37728,188910
123551,157398,37741,188911
123561,157410,37715,188947
123571,157427,37726,188964
123581,157456,37710,188968
123590,157460,37729,188971
123600,157475,37711,189017
123635,157474,37694,189002
123641,157448,37692,188976
123651,157428,37703,188949
123661,157444,37690,188959
123670,157412,37675,188954
123680,157433,37694,188925
123690,157453,37707,188937
123714,157463,37695,188949
123721,157462,37690,188951
123755,157497,37675,188997
123761,157491,37679,188966
123771,157469,37688,188965
123794,157502,37677,188999
123800,157490,37666,188985
123811,157479,37650,188968
123820,157472,37667,188952
123831,157505,37651,188968
123840,157490,37673,188978
123851,157496,37653,188970
123861,157492,37662,188978
123874,157497,37654,188980
123880,157498,37652,188989
123890,157478,37673,188983
123901,157490,37675,188947
123911,157464,37654,188949
123960,157371,37659,188837
123970,157340,37650,188802
123980,157340,37632,188833
123991,157334,37643,188847
124000,157393,37653,188832
124035,157426,37639,188884
124041,157438,37632,188927
124050,157426,37643,188918
124074,157396,37621,188893
124094,157362,37612,188843
124101,157357,37623,188835
124111,157343,37612,188808
124121,157373,37631,188857
124156,157405,37626,188916
124160,157420,37615,188930
124170,157428,37618,188939
124180,157443,37625,188943
124190,157427,37626,188957
124201,157442,37632,188973
124210,157469,37626,188962
124220,157480,37633,189010
124230,157528,37619,189041
124241,157563,37631,189063
124250,157592,37633,189119
124260,157628,37635,189161
124270,157656,37641,189166
124280,157639,37614,189177
124291,157649,37624,189197
124300,157681,37620,189235
124311,157699,37619,189280
124320,157721,37611,189295
124331,157731,37597,189357
124340,157762,37607,189370
124350,157763,37577,189388
124361,157799,37579,189426
124371,157809,37584,189420
124380,157795,37576,189435
124390,157790,37572,189440
124400,157785,37566,189429
124414,157776,37552,189410
124419,157761,37543,189408
124430,157766,37535,189388
124440,157759,37528,189394
124451,157777,37531,189389
124460,157781,37528,189403
124470,157799,37535,189391
124480,157779,37520,189402
124490,157801,37496,189395
124500,157822,37495,189409
124535,157815,37505,189398
124554,157806,37503,189398
124575,157796,37481,189390
124580,157771,37473,189384
124589,157781,37474,189370
124600,157759,37485,189373
124610,157780,37472,189333
124620,157786,37456,189348
124630,157766,37467,189354
124639,157760,37454,189322
124650,157760,37439,189314
124717,157766,37447,189301
124720,157786,37432,189305
124734,157775,37428,189325
124740,157808,37442,189325
124750,157846,37425,189367
124774,157930,37432,189423
124780,157940,37432,189437
124790,157936,37430,189457
124950,158100,37400,189555
124954,158100,37398,189563
124959,158105,37394,189548
124969,158123,37385,189564
124994,158133,37400,189589
125000,158142,37401,189564
125010,158141,37398,189549
125020,158126,37404,189546
125030,158121,37392,189534
125040,158098,37396,189532
125050,158085,37389,189513
125060,158096,37383,189499
125070,158113,37388,189522
125080,158115,37379,189513
125089,158115,37376,189511
125099,158129,37382,189510
125109,158133,37382,189509
125120,158115,37386,189518
125129,158111,37384,189499
125140,158131,37375,189516
125150,158138,37394,189508
125160,158134,37380,189540
125169,158166,37378,189571
125179,158192,37370,189565
125189,158183,37375,189578
125200,158182,37362,189579
125236,158187,37344,189567
125240,158192,37342,189560
125250,158150,37321,189502
125299,158118,37284,189456
125309,158103,37286,189480
125320,158140,37277,189458
125330,158134,37271,189457
125339,158128,37287,189458
125349,158121,37268,189432
125359,158130,37244,189404
125370,158120,37243,189404
125379,158101,37267,189398
125393,158122,37247,189432
125399,158135,37254,189420
125409,158152,37248,189447
125419,158162,37227,189432
125434,158157,37240,189403
125439,158138,37224,189423
125450,158129,37225,189407
125459,158152,37226,189396
125469,158137,37223,189382
125480,158146,37223,189418
125490,158164,37229,189394
125500,158164,37213,189403
125509,158151,37217,189420
125519,158181,37220,189417
125529,158199,37218,189426
125540,158196,37212,189457
125549,158224,37215,189438
"Disconnected,",reason,=,0x8