timestamp,red,green,ir
22685,154565,36809,183434
22695,154569,36810,183471
22706,154586,36805,183467
22715,154622,36801,183494
22725,154609,36794,183503
22736,154641,36798,183553
22746,154648,36792,183554
22755,154645,36801,183576
22765,154692,36785,183594
22775,154712,36806,183623
22785,154722,36790,183675
22794,154738,36804,183679
22805,154755,36778,183677
22815,154763,36797,183697
22826,154801,36770,183686
22835,154801,36793,183692
22845,154784,36790,183727
22855,154813,36785,183742
22865,154821,36791,183741
22875,154804,36797,183732
22885,154789,36796,183707
22896,154719,36781,183648
22906,154684,36786,183555
22916,154604,36783,183508
22925,154555,36781,183445
22935,154509,36779,183384
22946,154481,36780,183356
22956,154446,36764,183329
22965,154411,36776,183289
22975,154402,36773,183249
22985,154403,36774,183237
22995,154383,36775,183214
23005,154365,36766,183237
23015,154371,36760,183240
23025,154417,36759,183259
23036,154421,36766,183296
23044,154462,36758,183332
23055,154514,36751,183404
23065,154577,36765,183492
23075,154627,36750,183534
23085,154657,36758,183606
23095,154688,36728,183647
23105,154714,36752,183659
23116,154748,36740,183712
23125,154766,36731,183719
23135,154755,36724,183723
23145,154795,36724,183731
23155,154807,36711,183739
23166,154812,36709,183770
23175,154818,36702,183773
23185,154834,36711,183771
23195,154840,36696,183807
23205,154858,36697,183811
23214,154861,36708,183824
23225,154858,36696,183828
23235,154871,36698,183830
23245,154876,36684,183835
23255,154874,36684,183844
23264,154855,36693,183831
23275,154848,36684,183804
23285,154840,36682,183816
23295,154843,36671,183812
23305,154826,36692,183790
23315,154817,36686,183779
23325,154832,36681,183795
23334,154833,36676,183792
23345,154859,36686,183816
23355,154885,36681,183863
23365,154905,36669,183901
23375,154939,36676,183923
23385,154963,36671,183970
23395,154963,36669,183987
23405,154983,36682,184017
23415,154977,36676,184013
23424,154969,36671,184012
23434,154995,36679,184014
23445,154976,36690,184019
23456,154972,36666,184016
23464,154970,36666,183994
23475,154967,36676,183991
23484,154975,36685,183994
23495,154957,36683,184001
23505,154961,36668,183953
23515,154939,36677,183980
23525,154934,36682,183954
23535,154908,36669,183953
23544,154915,36661,183932
23554,154888,36671,183938
23564,154896,36669,183903
23580,154896,36670,183920
23584,154891,36663,183918
23594,154888,36648,183901
23605,154887,36661,183900
23615,154880,36664,183885
23625,154886,36669,183892
23634,154878,36668,183879
23645,154874,36644,183907
23655,154883,36655,183885
23665,154873,36654,183908
23675,154869,36667,183892
23685,154880,36661,183893
23695,154891,36667,183869
23705,154873,36668,183901
23714,154852,36671,183907
23724,154886,36666,183898
23739,154875,36664,183905
23760,154888,36653,183914
23764,154869,36670,183904
23775,154838,36670,183858
23785,154875,36651,183890
23794,154863,36651,183877
23804,154873,36665,183868
23814,154857,36667,183873
23824,154870,36653,183863
23833,154856,36660,183854
23844,154866,36657,183850
23854,154859,36638,183855
23864,154848,36624,183821
23874,154839,36639,183832
23884,154835,36613,183809
23894,154816,36613,183792
23904,154840,36611,183809
23915,154812,36623,183792
23941,154828,36599,183821
23944,154840,36594,183801
23955,154831,36598,183789
23964,154829,36593,183790
23974,154825,36579,183814
23984,154825,36584,183823
23995,154832,36592,183808
24004,154840,36579,183820
24014,154811,36590,183809
24025,154838,36586,183808
24035,154829,36580,183781
24044,154836,36570,183796
24054,154830,36578,183778
24064,154845,36583,183792
24075,154818,36572,183791
24083,154827,36573,183789
24094,154818,36575,183789
24104,154835,36577,183777
24115,154830,36553,183776
24124,154834,36573,183756
24134,154828,36561,183787
24145,154838,36574,183765
24155,154811,36577,183765
24165,154807,36559,183781
24174,154798,36565,183761
24184,154789,36561,183747
24194,154804,36559,183747
24204,154800,36562,183731
24213,154801,36565,183726
24224,154792,36560,183744
24235,154783,36550,183727
24245,154784,36564,183711
24254,154786,36558,183704
24264,154762,36563,183706
24274,154752,36573,183715
24284,154755,36540,183687
24294,154751,36556,183674
24304,154750,36555,183668
24314,154762,36550,183683
24324,154754,36541,183702
24334,154762,36557,183695
24344,154750,36544,183684
24354,154741,36549,183675
24364,154750,36561,183683
24375,154715,36556,183667
24383,154744,36553,183657
24394,154726,36548,183673
24404,154711,36570,183640
24419,154712,36555,183640
24424,154725,36558,183640
24434,154699,36560,183608
24444,154705,36567,183617
24459,154720,36559,183643
24463,154725,36551,183644
24473,154743,36548,183635
24484,154703,36560,183643
24494,154707,36563,183630
24503,154711,36529,183627
24514,154698,36550,183627
24524,154711,36546,183620
24534,154696,36558,183606
24544,154690,36543,183589
24554,154692,36569,183599
24564,154693,36544,183611
24574,154673,36550,183587
24583,154675,36553,183570
24593,154663,36551,183580
24604,154666,36556,183569
24614,154677,36555,183586
24624,154677,36554,183576
24633,154665,36555,183583
24643,154676,36521,183575
24654,154688,36537,183583
24664,154671,36535,183553
24674,154678,36537,183594
24684,154682,36511,183574
24694,154669,36523,183585
24704,154679,36525,183568
24713,154651,36525,183548
24723,154657,36511,183553
24733,154651,36509,183527
24744,154643,36510,183540
24753,154639,36500,183511
24763,154634,36492,183522
24773,154647,36492,183493
24784,154613,36492,183517
24799,154619,36483,183494
24821,154599,36483,183503
24824,154615,36478,183490
24833,154574,36466,183462
24843,154602,36480,183470
24853,154590,36487,183484
24864,154605,36477,183471
24874,154613,36491,183456
24883,154598,36472,183446
24893,154607,36485,183448
24903,154599,36473,183453
24914,154592,36456,183458
24923,154592,36459,183455
24934,154607,36468,183453
24944,154608,36469,183459
24954,154579,36473,183462
24981,154591,36471,183458
25000,154582,36465,183431
25020,154554,36458,183432
25023,154580,36456,183442
25033,154572,36454,183479
25043,154571,36456,183431
25060,154579,36469,183383
25063,154565,36464,183433
25073,154532,36456,183431
25083,154561,36454,183398
25093,154554,36480,183400
25103,154544,36458,183395
25114,154552,36462,183379
25124,154551,36471,183402
25133,154542,36464,183378
25143,154535,36448,183375
25153,154525,36458,183375
25164,154536,36463,183395
25173,154531,36457,183363
25183,154542,36450,183339
25193,154536,36450,183359
25203,154517,36471,183356
25212,154513,36466,183337
25223,154499,36473,183339
25234,154503,36463,183343
25243,154507,36470,183340
25253,154525,36447,183357
25263,154502,36467,183331
25273,154527,36461,183331
25284,154496,36470,183342
25293,154514,36473,183340
25303,154513,36456,183329
25313,154513,36471,183338
25323,154504,36457,183340
25333,154496,36466,183327
25343,154503,36465,183305
25353,154490,36469,183309
25363,154502,36444,183316
25373,154517,36454,183320
25383,154490,36455,183320
25393,154491,36454,183303
25403,154495,36492,183289
25414,154483,36468,183328
25423,154494,36474,183299
25433,154491,36464,183279
25443,154460,36470,183279
25453,154480,36461,183264
25463,154459,36464,183292
25473,154456,36479,183278
25483,154461,36480,183276
25493,154483,36462,183277
25502,154472,36468,183283
25512,154475,36463,183267
25523,154476,36458,183276
25533,154460,36450,183280
25542,154461,36438,183281
25552,154472,36452,183275
25563,154468,36434,183256
25573,154438,36433,183262
25583,154457,36417,183254
25593,154452,36419,183257
25603,154457,36424,183245
25613,154447,36422,183263
25623,154452,36430,183237
25632,154456,36425,183235
25643,154443,36419,183261
25653,154456,36421,183247
25663,154428,36422,183259
25673,154432,36423,183260
25683,154452,36435,183263
25693,154455,36420,183272
25703,154449,36416,183270
25712,154446,36414,183281
25723,154458,36401,183268
25733,154458,36420,183264
25743,154437,36431,183265
25752,154445,36428,183276
25763,154444,36424,183272
25773,154422,36428,183286
25783,154430,36433,183260
25792,154431,36435,183261
25802,154437,36418,183278
25812,154452,36417,183274
25823,154455,36403,183264
25833,154430,36431,183273
25842,154448,36399,183283
25853,154471,36408,183280
25863,154439,36432,183270
25873,154420,36434,183278
25901,154426,36421,183282
25903,154433,36424,183302
25913,154450,36443,183285
25922,154441,36427,183270
25933,154470,36435,183304
25943,154452,36439,183282
25953,154452,36441,183312
25962,154463,36441,183337
25972,154487,36450,183315
25983,154458,36441,183336
25993,154473,36442,183299
26002,154443,36436,183317
26012,154459,36437,183323
26022,154450,36447,183329
26032,154449,36435,183322
26041,154457,36448,183334
26060,154454,36436,183364
26062,154469,36452,183356
26072,154471,36453,183327
26082,154458,36456,183368
26100,154465,36451,183361
26121,154487,36471,183366
26124,154478,36460,183386
26132,154460,36448,183348
26142,154459,36476,183389
26153,154472,36462,183392
26163,154479,36461,183372
26172,154471,36467,183379
26182,154458,36459,183393
26193,154467,36462,183404
26203,154469,36477,183386
26212,154452,36457,183375
26222,154447,36470,183390
26232,154442,36473,183410
26243,154468,36478,183402
26252,154454,36489,183403
26262,154475,36466,183388
26272,154439,36475,183399
26282,154478,36492,183418
26292,154454,36502,183406
26301,154467,36500,183420
26312,154476,36507,183423
26322,154482,36499,183410
26333,154465,36482,183461
26342,154488,36500,183444
26352,154464,36492,183442
26362,154481,36488,183469
26372,154471,36501,183467
26382,154498,36480,183457
26392,154494,36488,183456
26403,154473,36494,183458
26413,154475,36494,183448
26422,154476,36494,183447
26432,154471,36487,183446
26442,154477,36474,183446
26452,154486,36484,183443
26462,154478,36486,183435
26472,154479,36488,183468
26482,154484,36487,183464
26492,154483,36491,183447
26501,154477,36482,183456
26512,154494,36480,183464
26522,154475,36481,183466
26532,154505,36464,183481
26542,154471,36484,183448
26552,154483,36485,183464
26562,154492,36484,183472
26572,154459,36499,183472
26582,154503,36497,183480
26591,154492,36501,183492
26602,154484,36497,183477
26612,154496,36508,183492
26622,154495,36515,183493
26631,154503,36505,183514
26642,154507,36502,183529
26652,154495,36515,183492
26662,154488,36517,183533
26671,154474,36507,183545
26682,154492,36494,183533
26692,154501,36521,183544
26702,154511,36508,183556
26711,154515,36522,183539
26722,154496,36513,183546
26732,154512,36518,183525
26742,154490,36519,183515
26751,154491,36524,183518
26761,154505,36500,183523
26771,154503,36538,183547
26782,154490,36508,183530
26791,154508,36525,183518
26801,154486,36524,183530
26811,154486,36544,183522
26822,154472,36526,183525
26832,154497,36540,183515
26841,154474,36534,183536
26851,154454,36530,183537
26862,154464,36547,183527
26872,154480,36548,183521
26881,154462,36550,183507
26891,154453,36547,183508
26901,154447,36542,183525
26912,154460,36554,183527
26921,154446,36533,183509
26932,154425,36537,183493
26942,154447,36553,183481
26952,154421,36558,183485
26961,154437,36552,183492
26971,154438,36564,183468
26982,154426,36550,183467
26992,154439,36541,183476
27001,154435,36554,183489
27011,154432,36563,183490
27022,154432,36564,183461
27032,154441,36566,183477
27041,154424,36564,183463
27051,154440,36573,183460
27061,154418,36574,183445
27071,154408,36567,183443
27082,154419,36588,183438
27091,154386,36582,183444
27101,154396,36572,183444
27111,154404,36569,183442
27122,154409,36566,183433
27131,154392,36571,183448
27141,154387,36561,183441
27152,154408,36567,183466
27162,154398,36574,183426
27171,154384,36580,183421
27181,154385,36573,183432
27191,154404,36578,183432
27202,154391,36581,183435
27211,154400,36577,183441
27221,154419,36572,183466
27231,154421,36573,183451
27241,154406,36583,183475
27250,154424,36576,183437
27261,154377,36566,183443
27271,154413,36571,183462
27281,154406,36575,183428
27291,154386,36558,183445
27301,154387,36578,183435
27311,154387,36575,183426
27321,154379,36578,183415
27331,154381,36557,183416
27341,154370,36552,183415
27351,154368,36552,183424
27361,154377,36568,183421
27372,154367,36556,183400
27381,154369,36564,183401
27391,154373,36549,183417
27401,154348,36564,183420
27411,154374,36564,183377
27420,154345,36553,183412
27431,154361,36568,183377
27441,154333,36567,183428
27451,154336,36581,183411
27461,154338,36561,183396
27471,154332,36573,183383
27481,154321,36563,183404
27491,154326,36567,183392
27500,154313,36566,183355
27511,154317,36573,183369
27521,154308,36561,183334
27532,154281,36579,183329
27541,154296,36557,183323
27551,154262,36569,183323
27561,154263,36568,183332
27571,154278,36555,183302
27582,154257,36576,183309
27591,154279,36572,183333
27601,154277,36562,183315
27611,154281,36578,183297
27621,154289,36570,183303
27630,154266,36563,183311
27640,154267,36570,183299
27651,154279,36570,183300
27661,154264,36560,183272
27671,154245,36550,183258
27681,154244,36561,183265
27691,154257,36577,183259
27701,154252,36565,183252
27710,154251,36558,183249
27720,154227,36559,183214
27730,154212,36574,183241
27741,154221,36576,183235
27750,154232,36576,183244
27760,154227,36564,183220
27771,154232,36557,183204
27781,154222,36561,183224
27791,154203,36573,183195
27801,154205,36579,183232
27811,154221,36558,183244
27821,154200,36579,183206
27831,154207,36572,183226
27840,154217,36579,183213
27850,154214,36570,183175
27861,154223,36577,183236
27871,154206,36575,183222
27880,154202,36567,183210
27891,154194,36570,183194
27901,154190,36561,183181
27911,154190,36567,183186
27920,154161,36566,183178
27930,154187,36565,183159
27941,154175,36573,183152
27951,154174,36557,183169
27960,154186,36571,183148
27970,154185,36561,183159
27980,154172,36571,183147
27990,154181,36579,183153
28000,154169,36572,183146
28010,154165,36585,183177
28020,154181,36561,183146
28031,154187,36580,183108
28041,154170,36570,183140
28051,154137,36570,183122
28061,154163,36570,183127
28071,154151,36563,183134
28081,154169,36570,183142
28090,154163,36581,183144
28101,154161,36560,183154
28111,154175,36577,183131
28121,154184,36553,183146
28130,154165,36559,183152
28141,154174,36559,183149
28151,154178,36552,183151
28161,154165,36547,183131
28170,154155,36544,183088
28180,154153,36548,183125
28190,154156,36555,183094
28201,154159,36556,183133
28210,154155,36559,183132
28220,154149,36551,183133
28230,154160,36585,183132
28240,154151,36550,183122
28250,154159,36548,183110
28260,154162,36546,183093
28271,154130,36522,183106
28281,154144,36558,183133
28291,154147,36552,183130
28300,154141,36564,183140
28310,154147,36534,183126
28320,154143,36547,183108
28330,154123,36548,183116
28340,154140,36549,183128
28350,154121,36555,183090
28360,154119,36537,183103
28371,154135,36532,183099
28379,154136,36530,183114
28390,154130,36522,183095
28400,154123,36534,183091
28410,154142,36514,183077
28420,154124,36522,183079
28430,154113,36533,183075
28440,154118,36538,183056
28450,154105,36546,183085
28459,154139,36531,183070
28470,154125,36530,183077
28480,154108,36537,183067
28491,154085,36509,183085
28500,154135,36531,183052
28510,154087,36524,183063
28520,154109,36535,183066
28531,154105,36518,183090
28541,154117,36521,183064
28550,154103,36540,183076
28560,154101,36550,183072
28570,154111,36540,183063
28581,154134,36527,183062
28590,154122,36509,183073
28600,154113,36526,183065
28610,154121,36510,183066
28620,154108,36535,183063
28629,154097,36544,183073
28640,154110,36538,183063
28650,154111,36518,183074
28660,154123,36538,183047
28669,154123,36579,183073
28679,154109,36523,183048
28690,154113,36526,183041
28701,154106,36529,183065
28710,154107,36551,183036
28720,154095,36529,183057
28730,154101,36521,183040
28740,154076,36534,183040
28750,154088,36517,183017
28759,154098,36541,183043
28769,154085,36530,183038
28780,154092,36541,183041
28790,154098,36542,183027
28799,154087,36536,183053
28809,154071,36547,183054
28820,154094,36553,183049
28830,154097,36543,183026
28839,154098,36531,183054
28849,154099,36541,183035
28859,154101,36526,183037
28870,154102,36545,183040
28880,154092,36552,183038
28890,154089,36532,183045
28900,154080,36535,183023
28910,154097,36511,183036
28920,154071,36540,183029
28930,154094,36524,183028
28940,154064,36551,183062
28950,154078,36540,183046
28959,154103,36535,183069
28969,154093,36574,183069
28980,154085,36542,183072
28990,154098,36559,183092
29000,154096,36536,183094
29009,154101,36536,183095
29020,154117,36536,183076
29030,154111,36540,183092
29040,154102,36517,183072
29049,154102,36547,183071
29060,154104,36516,183072
29070,154120,36532,183077
29080,154109,36528,183069
29089,154089,36530,183063
29099,154109,36533,183060
29109,154092,36524,183063
29120,154091,36513,183069
29129,154120,36487,183048
29139,154093,36505,183064
29149,154104,36491,183033
29160,154122,36490,183073
29169,154106,36500,183047
29179,154088,36514,183088
29189,154085,36517,183073
29199,154108,36509,183068
29208,154102,36480,183057
29219,154105,36494,183052
29230,154080,36513,183021
29240,154077,36501,183012
29250,154056,36503,183024
29259,154064,36504,183022
29269,154063,36486,183015
29279,154072,36515,182994
29289,154054,36507,182999
29299,154067,36491,182998
29309,154053,36475,182990
29320,154024,36496,183006
29330,154055,36494,182976
29339,154050,36493,182978
29349,154058,36496,182975
29359,154049,36486,182974
29369,154037,36496,182964
29379,154025,36476,182965
29389,154025,36496,182953
29399,154017,36498,182947
29409,154019,36458,182959
29418,154034,36495,182945
29429,154028,36475,182926
29440,154021,36481,182952
29450,154039,36479,182955
29459,154036,36507,182948
29469,154013,36470,182944
29480,154008,36490,182937
29490,154020,36485,182938
29500,153985,36500,182919
29508,153998,36482,182911
29520,154016,36483,182915
29529,154008,36493,182914
29540,154011,36477,182897
29548,153996,36488,182892
29560,154003,36475,182877
29569,153987,36482,182885
29580,153998,36459,182885
29589,153975,36486,182878
29599,153985,36467,182894
29609,153989,36452,182881
29619,153979,36473,182864
29629,153969,36475,182878
29639,153979,36472,182863
29649,153980,36488,182877
29659,153975,36475,182873
29668,153991,36474,182877
29678,153962,36469,182887
29689,153966,36471,182856
29700,153976,36470,182867
29709,153981,36475,182888
29719,153984,36469,182868
29729,153970,36474,182856
29739,153952,36482,182864
29749,153961,36471,182873
29758,153958,36472,182863
29768,153964,36469,182885
29780,153944,36472,182862
29829,153961,36478,182862
29839,153953,36466,182845
29849,153965,36448,182883
29859,153953,36458,182867
29869,153981,36482,182874
29878,153988,36457,182874
29888,153977,36453,182887
29899,153978,36433,182878
29909,153978,36447,182864
29918,153959,36445,182866
29928,153956,36442,182880
29938,153970,36447,182887
29948,153983,36435,182897
29958,153992,36424,182885
29968,153983,36424,182873
29978,153976,36430,182873
29988,153969,36429,182893
30000,153961,36411,182876
30009,153971,36410,182837
30019,153986,36434,182848
30029,153953,36427,182865
30039,153971,36421,182882
30048,153967,36424,182887
30058,153983,36415,182877
30069,153986,36397,182867
30079,153963,36402,182842
30088,153930,36411,182854
30098,153955,36408,182843
30109,153956,36407,182845
30121,153948,36407,182835
30128,153943,36393,182833
30138,153953,36404,182803
30148,153956,36404,182814
30159,153936,36403,182820
30168,153966,36408,182812
30178,153944,36386,182802
30188,153927,36387,182824
30200,153947,36388,182807
30208,153950,36396,182814
30218,153945,36374,182819
30228,153956,36392,182819
30238,153946,36377,182828
30248,153947,36384,182812
30258,153957,36367,182823
30268,153931,36388,182797
30278,153941,36370,182801
30288,153952,36382,182793
30298,153951,36369,182814
30308,153948,36376,182790
30318,153952,36375,182808
30329,153963,36381,182792
30338,153949,36379,182814
30348,153953,36375,182802
30358,153945,36370,182793
30368,153948,36366,182815
30378,153934,36375,182805
30388,153926,36362,182792
30399,153928,36359,182762
30409,153910,36370,182785
30419,153924,36350,182774
30428,153921,36369,182772
30439,153924,36374,182738
30449,153892,36375,182756
30459,153905,36353,182759
30468,153923,36365,182764
30480,153915,36357,182758
30488,153922,36375,182763
30499,153901,36361,182756
30508,153917,36373,182739
30518,153911,36350,182757
30528,153906,36365,182760
30538,153915,36352,182763
30548,153920,36354,182763
30559,153919,36364,182787
30568,153943,36370,182780
30579,153946,36358,182774
30588,153930,36376,182767
30598,153942,36360,182782
30608,153943,36361,182805
30618,153938,36362,182808
30627,153930,36367,182802
30637,153945,36372,182804
30648,153944,36359,182804
30659,153938,36366,182806
30668,153947,36383,182821
30678,153935,36361,182806
30688,153939,36371,182818
30698,153934,36377,182823
30708,153956,36362,182827
30717,153950,36348,182836
30727,153966,36352,182824
30738,153979,36365,182866
30748,153976,36358,182866
30758,153990,36338,182891
30768,153977,36357,182871
30778,153992,36355,182882
30788,153981,36348,182871
30797,153966,36344,182851
30807,153973,36331,182880
30818,153981,36329,182893
30828,153992,36326,182860
30837,153987,36337,182884
30848,153991,36340,182878
30858,154002,36323,182886
30868,153998,36334,182903
30878,154002,36331,182912
30888,153996,36320,182903
30898,153996,36334,182925
30908,154013,36321,182937
30917,154034,36310,182943
30927,154039,36325,182962
30938,154027,36321,182972
30948,154016,36335,182962
30958,154032,36335,182962
30967,154019,36318,182951
30977,154026,36336,182963
30988,154014,36325,182960
31000,154018,36322,182956
31008,154024,36332,182969
31018,154004,36329,182950
31028,154006,36333,182963
31038,154009,36312,182951
31047,154023,36327,182948
31057,154004,36318,182954
31068,154014,36323,182920
31078,154013,36323,182961
31087,154026,36313,182949
31098,154019,36317,182951
31108,154014,36320,182945
31118,154010,36319,182942
31127,154021,36308,182953
31137,154014,36319,182963
31148,154023,36325,182988
31158,154029,36329,182987
31167,154029,36326,182989
31178,154039,36325,182982
31188,154039,36318,182982
31198,154030,36337,183000
31208,154056,36336,182966
31217,154047,36329,182987
31228,154051,36326,182978
31238,154041,36327,182967
31248,154025,36336,182997
31258,154025,36336,182992
31268,154042,36335,182975
31278,154048,36332,182986
31288,154039,36349,183001
31297,154035,36336,182994
31307,154045,36340,183008
31317,154051,36346,183008
31328,154065,36347,183023
31337,154049,36338,183003
31347,154052,36331,183028
31357,154048,36338,183021
31368,154069,36318,183018
31377,154057,36355,183027
31387,154060,36319,183033
31397,154060,36346,183019
31408,154045,36347,183028
31417,154056,36341,183035
31427,154049,36353,183043
31437,154062,36350,183044
31448,154062,36354,183019
31458,154049,36359,183052
31467,154066,36352,183025
31477,154065,36364,183023
31487,154054,36359,183031
31497,154072,36364,183052
31507,154063,36345,183086
31517,154081,36370,183074
31528,154069,36366,183070
31538,154067,36350,183067
31547,154066,36335,183084
31557,154076,36328,183096
31567,154065,36335,183068
31577,154080,36347,183080
31587,154070,36316,183062
31597,154074,36330,183042
31608,154043,36324,183070
31618,154064,36321,183048
31627,154039,36314,183057
31637,154059,36314,183076
31647,154056,36308,183050
31657,154066,36311,183073
31667,154077,36325,183075
31677,154071,36300,183096
31687,154062,36321,183077
31697,154092,36304,183101
31707,154086,36312,183106
31717,154060,36320,183094
31727,154067,36319,183135
31737,154082,36321,183120
31747,154073,36305,183139
31756,154072,36336,183157
31767,154078,36318,183146
31777,154073,36330,183132
31787,154072,36325,183160
31797,154088,36314,183170
31807,154069,36331,183174
31817,154077,36321,183169
31827,154078,36311,183185
31837,154077,36321,183194
31847,154097,36340,183180
31857,154065,36334,183204
31868,154068,36331,183180
31877,154060,36330,183200
31887,154068,36320,183183
31897,154058,36322,183191
31907,154059,36321,183212
31916,154062,36332,183190
31927,154059,36326,183183
31937,154073,36334,183218
31947,154056,36334,183203
31957,154070,36330,183207
31967,154035,36333,183201
31977,154057,36332,183224
31987,154069,36335,183224
31997,154047,36329,183220
32006,154033,36353,183166
32016,154029,36344,183201
32027,154027,36339,183191
32037,153998,36352,183178
32046,154012,36348,183181
32056,154018,36335,183188
32067,154012,36357,183173
32077,154000,36351,183171
32086,154009,36348,183176
32096,154002,36330,183168
32107,153995,36345,183182
32117,153991,36343,183166
32126,154001,36336,183159
32136,153985,36342,183122
32146,153982,36355,183141
32157,153985,36344,183160
32167,153979,36341,183124
32177,153983,36349,183111
32186,153957,36340,183150
32197,153985,36325,183141
32207,153981,36342,183120
32217,153971,36346,183121
32227,153956,36350,183120
32237,153965,36347,183109
32247,153956,36346,183123
32260,153957,36362,183138
32267,153964,36347,183126
32277,153964,36350,183115
32286,153934,36336,183129
32296,153969,36341,183109
32307,153959,36345,183131
32317,153957,36336,183118
32327,153930,36351,183107
32336,153957,36339,183106
32346,153941,36327,183155
32356,153942,36317,183129
32367,153944,36327,183125
32376,153948,36320,183111
32387,153947,36314,183114
32397,153954,36303,183103
32407,153946,36297,183106
32416,153913,36296,183085
32426,153921,36298,183101
32436,153920,36295,183073
32447,153935,36277,183076
32457,153917,36287,183082
32466,153916,36286,183076
32477,153888,36285,183086
32486,153908,36287,183066
32497,153911,36258,183053
32506,153896,36291,183038
32517,153872,36277,183054
32527,153897,36273,183035
32537,153884,36274,183037
32546,153861,36274,183039
32557,153874,36273,183045
32567,153863,36263,183037
32577,153866,36267,183026
32585,153838,36288,183016
32596,153867,36277,183005
32606,153854,36264,183023
32620,153860,36258,183002
32626,153856,36266,183012
32636,153857,36259,182990
32646,153833,36271,183003
32656,153845,36256,183014
32666,153842,36253,182994
32676,153844,36256,182985
32686,153825,36260,183017
32696,153843,36247,182976
32707,153841,36263,183001
32716,153829,36264,183012
32726,153821,36263,182995
32736,153838,36251,182995
32787,153832,36265,182991
32796,153826,36261,182986
32806,153823,36274,182987
32816,153827,36253,182964
32827,153831,36239,182994
32836,153817,36252,182975
32846,153832,36250,182992
32856,153822,36260,182981
32866,153829,36250,182981
32875,153840,36252,182980
32886,153815,36250,182974
32896,153836,36257,182977
32906,153825,36254,182987
32916,153825,36248,182968
32925,153831,36257,182968
32936,153834,36252,182970
32946,153837,36254,182967
32957,153840,36254,182985
32966,153827,36257,182939
32976,153817,36253,182955
32986,153816,36252,182969
32997,153818,36265,182976
33005,153818,36258,182976
33016,153819,36262,182939
33026,153824,36265,182955
33036,153818,36255,182945
33046,153835,36274,182960
33056,153802,36271,182947
33066,153818,36258,182925
33076,153802,36268,182931
33085,153797,36259,182936
33096,153802,36264,182933
33105,153809,36276,182916
33116,153797,36244,182933
33126,153818,36267,182919
33136,153792,36247,182919
33146,153806,36231,182931
33156,153821,36229,182936
33166,153815,36247,182945
33176,153808,36229,182951
33185,153817,36223,182935
33196,153805,36219,182922
33207,153809,36214,182907
33216,153809,36213,182930
33226,153797,36210,182919
33236,153819,36216,182917
33246,153807,36200,182906
33255,153805,36201,182915
33266,153803,36200,182914
33276,153813,36197,182928
33286,153822,36193,182924
33295,153808,36203,182924
33305,153809,36203,182914
33315,153815,36181,182901
33326,153810,36172,182909
33335,153810,36181,182896
33346,153819,36170,182900
33356,153825,36195,182897
33365,153803,36187,182889
33375,153812,36186,182883
33386,153803,36200,182878
33396,153814,36190,182854
33406,153807,36185,182887
33416,153809,36190,182882
33425,153820,36193,182898
33435,153824,36189,182885
33446,153818,36183,182887
33456,153808,36181,182886
33465,153831,36188,182870
33475,153823,36185,182883
33485,153816,36182,182887
33496,153822,36183,182877
33505,153831,36174,182865
33516,153818,36181,182862
33526,153826,36174,182868
33536,153819,36180,182849
33545,153819,36175,182862
33555,153830,36179,182866
33566,153818,36176,182852
33576,153833,36175,182851
33585,153825,36175,182839
33596,153833,36175,182876
33605,153848,36191,182863
33616,153854,36170,182851
33625,153845,36179,182854
33635,153833,36180,182840
33645,153826,36191,182814
33655,153828,36183,182851
33666,153847,36182,182821
33675,153835,36194,182859
33685,153845,36196,182845
33695,153815,36187,182833
33706,153837,36184,182817
33715,153826,36200,182810
33725,153840,36195,182832
33735,153831,36182,182811
33745,153847,36175,182815
33754,153845,36181,182806
33765,153833,36183,182807
33775,153843,36179,182793
33785,153853,36159,182824
33795,153850,36178,182809
33805,153844,36183,182812
33815,153847,36171,182794
33826,153858,36178,182801
33835,153851,36182,182801
33845,153859,36165,182799
33855,153840,36179,182796
33866,153857,36182,182803
33875,153874,36191,182789
33885,153850,36190,182806
33895,153870,36198,182789
33906,153869,36172,182799
33916,153874,36202,182789
33925,153854,36197,182803
33935,153873,36173,182791
33945,153867,36180,182795
33955,153875,36198,182796
33965,153864,36191,182806
33975,153890,36186,182775
33986,153903,36175,182833
33996,153910,36173,182816
34005,153917,36184,182849
34015,153902,36176,182851
34025,153934,36169,182839
34035,153928,36159,182835
34045,153907,36156,182833
34055,153920,36145,182835
34065,153920,36161,182830
34076,153908,36158,182822
34085,153921,36152,182825
34095,153926,36149,182801
34105,153928,36150,182831
34115,153930,36148,182825
34125,153933,36132,182814
34135,153939,36155,182847
34144,153954,36136,182837
34155,153952,36143,182841
34166,153941,36143,182836
34175,153957,36140,182824
34185,153943,36166,182837
34195,153940,36151,182863
34205,153958,36144,182846
34214,153951,36139,182851
34224,153967,36142,182850
34234,153959,36136,182828
34245,153959,36129,182835
34255,153959,36146,182819
34265,153960,36144,182836
34275,153969,36137,182815
34285,153946,36125,182825
34294,153959,36137,182836
34305,153963,36137,182823
34315,153956,36126,182828
34325,153943,36139,182819
34334,153954,36131,182805
34344,153948,36128,182828
34354,153948,36142,182823
34364,153944,36119,182823
34375,153956,36117,182821
34385,153948,36146,182823
34395,153951,36129,182820
34405,153944,36128,182822
34415,153967,36143,182834
34424,153951,36137,182816
34434,153969,36145,182827
34445,153967,36131,182840
34455,153980,36138,182828
34464,153969,36138,182838
34475,153975,36142,182828
34484,153980,36146,182826
34495,153987,36128,182820
34505,153966,36143,182841
34515,153967,36146,182830
34525,153966,36147,182837
34535,153953,36146,182823
34544,153968,36145,182827
34554,153980,36138,182805
34564,153979,36142,182826
34574,153959,36144,182788
34584,153949,36145,182820
34594,153985,36141,182832
34604,153959,36131,182803
34615,153973,36132,182835
34625,153975,36145,182816
34634,153943,36147,182804
34644,153972,36143,182793
34655,153975,36129,182821
34665,153981,36153,182817
34674,153961,36158,182825
34685,153969,36151,182799
34695,153969,36151,182767
34705,153962,36145,182802
34714,153958,36146,182798
34724,153950,36155,182785
34735,153940,36163,182780
34745,153950,36147,182760
34754,153948,36158,182771
34764,153942,36132,182780
34774,153952,36144,182786
34785,153964,36156,182805
34800,153968,36155,182783
34804,153964,36165,182784
34814,153980,36152,182787
34825,153968,36162,182774
34834,153977,36148,182773
34844,153962,36184,182795
34854,153996,36159,182828
34864,153989,36156,182837
34874,153997,36171,182814
34884,153993,36168,182835
34894,154006,36166,182857
34904,154027,36149,182837
34914,154026,36156,182854
34924,154035,36122,182878
34934,154027,36146,182879
34945,154025,36138,182859
34955,154032,36151,182873
34964,154032,36159,182876
34974,154041,36149,182877
34984,154033,36138,182839
34994,154037,36139,182862
35004,154029,36130,182850
35014,154014,36131,182867
35024,154009,36125,182839
35035,154021,36104,182839
35044,154001,36136,182818
35060,154015,36127,182829
35064,154026,36135,182823
35081,154003,36128,182817
35084,154006,36114,182824
35094,154004,36139,182877
35104,154013,36133,182836
35114,154000,36133,182813
35124,153989,36126,182800
35134,153995,36118,182803
35144,154000,36127,182775
35160,154009,36123,182804
35165,154003,36124,182791
35174,153979,36120,182783
35184,154004,36126,182796
35194,154013,36125,182791
35204,154011,36121,182773
35213,153998,36114,182778
35224,153997,36125,182780
35234,154006,36127,182776
35244,154005,36105,182778
35253,154011,36128,182782
35263,154006,36119,182780
35273,154002,36144,182784
35284,154001,36111,182766
35294,154019,36125,182774
35304,154007,36130,182758
35320,154011,36115,182769
35324,154013,36129,182776
35333,154008,36128,182755
35344,154019,36132,182793
35354,154014,36133,182792
35364,154036,36126,182791
35374,154013,36146,182796
35383,154030,36119,182791
35393,154041,36135,182800
35404,154055,36140,182811
35414,154056,36140,182811
35424,154074,36122,182843
35434,154066,36127,182848
35444,154079,36126,182839
35454,154088,36153,182861
35463,154097,36140,182859
35473,154108,36149,182875
35484,154108,36141,182880
35494,154108,36147,182884
35503,154125,36149,182897
35514,154127,36144,182898
35523,154142,36150,182904
35534,154156,36128,182902
35543,154157,36155,182916
35554,154184,36173,182927
35564,154167,36154,182939
35574,154164,36172,182948
35583,154174,36167,182941
35593,154205,36169,182962
35603,154205,36179,182966
35621,154187,36176,182976
35624,154208,36175,183002
35633,154248,36179,183027
35643,154236,36196,183007
35654,154256,36181,183017
35664,154249,36192,183012
35673,154260,36193,183016
35684,154249,36208,183027
35694,154275,36203,183052
35704,154280,36193,183053
35713,154283,36207,183069
35724,154302,36197,183050
35734,154304,36218,183067
35744,154316,36205,183068
35753,154335,36208,183080
35763,154343,36213,183099
35774,154359,36212,183106
35784,154361,36209,183123
35793,154365,36212,183112
35803,154370,36199,183116
35813,154370,36212,183108
35824,154365,36205,183127
35833,154372,36195,183121
35843,154396,36194,183102
35853,154385,36204,183112
35863,154387,36208,183144
35874,154363,36211,183098
35883,154399,36197,183112
35894,154419,36204,183112
35904,154419,36205,183092
35914,154405,36209,183123
35923,154425,36205,183122
35933,154440,36210,183136
35943,154450,36213,183122
35953,154456,36212,183169
35963,154460,36211,183164
35973,154471,36210,183168
35984,154500,36200,183187
36000,154497,36205,183195
36021,154513,36214,183195
36024,154550,36211,183218
36034,154514,36256,183178
36043,154530,36238,183210
36060,154554,36230,183219
36063,154577,36228,183243
36073,154569,36231,183216
36083,154583,36238,183241
36100,154578,36249,183255
36103,154592,36252,183249
36113,154611,36236,183212
36123,154597,36261,183249
36140,154614,36257,183253
36143,154624,36245,183264
36153,154633,36257,183247
36163,154648,36233,183268
36180,154636,36263,183274
36183,154659,36253,183265
36193,154696,36238,183233
36203,154692,36254,183276
36213,154681,36261,183278
36223,154706,36265,183305
36233,154717,36258,183311
36243,154731,36257,183329
36252,154745,36267,183347
36263,154751,36280,183325
36273,154774,36277,183363
36283,154770,36276,183356
36292,154769,36284,183370
36303,154790,36299,183367
36313,154810,36296,183384
36323,154812,36290,183397
36333,154792,36287,183400
36342,154831,36290,183397
36353,154836,36292,183397
36363,154843,36328,183400
36373,154819,36298,183411
36383,154840,36312,183393
36393,154828,36315,183393
36403,154837,36321,183416
36413,154841,36324,183412
36422,154864,36322,183421
36432,154852,36325,183415
36443,154869,36330,183401
36453,154884,36324,183398
36462,154880,36337,183417
36473,154857,36324,183424
36482,154872,36339,183405
36493,154865,36326,183420
36503,154880,36330,183370
36513,154852,36337,183396
36523,154863,36352,183413
36533,154863,36345,183393
36542,154872,36353,183393
36552,154892,36340,183419
36562,154882,36343,183413
36573,154880,36368,183413
36583,154872,36346,183392
36593,154892,36356,183413
36603,154897,36364,183408
36613,154897,36355,183419
36623,154921,36363,183446
36632,154922,36362,183419
36643,154891,36367,183456
36653,154899,36354,183474
36663,154940,36363,183459
36672,154952,36359,183464
36683,154934,36351,183474
36693,154953,36367,183478
36703,154926,36363,183462
36712,154953,36368,183459
36723,154948,36351,183465
36733,154936,36360,183469
36743,154937,36363,183441
36752,154940,36367,183467
36763,154950,36351,183486
36773,154951,36352,183481
36783,154945,36352,183487
36792,154955,36365,183477
36802,154944,36365,183491
36812,154951,36370,183477
36823,154924,36369,183487
36833,154921,36366,183483
36842,154949,36366,183482
36852,154972,36379,183503
36862,154958,36358,183488
36873,154957,36366,183478
36882,154958,36376,183502
36892,154946,36371,183485
36902,154954,36377,183486
36913,154948,36375,183493
36921,154967,36378,183491
36932,154945,36370,183459
36943,154951,36387,183488
36953,154977,36380,183474
36962,154942,36377,183473
36972,154949,36385,183453
36982,154943,36374,183481
36992,154924,36373,183436
37001,154918,36367,183442
37012,154937,36372,183438
37022,154924,36379,183400
37033,154921,36382,183383
37042,154921,36385,183423
37052,154910,36397,183417
37062,154915,36375,183403
37072,154912,36384,183404
37083,154909,36376,183401
37092,154907,36379,183393
37102,154908,36381,183391
37112,154880,36382,183398
37123,154921,36375,183374
37132,154900,36386,183369
37142,154884,36382,183388
37152,154895,36398,183376
37163,154900,36394,183352
37172,154886,36391,183367
37182,154902,36393,183360
37192,154903,36382,183365
37202,154881,36407,183346
37211,154892,36394,183356
37222,154885,36372,183347
37232,154893,36393,183332
37242,154879,36383,183339
37251,154899,36393,183340
37262,154895,36403,183334
37272,154889,36389,183322
37282,154870,36406,183346
37291,154898,36408,183329
37302,154860,36387,183335
37312,154886,36400,183327
37322,154846,36404,183352
37333,154886,36398,183337
37341,154881,36405,183322
37352,154874,36401,183326
37362,154862,36408,183333
37372,154870,36403,183326
37382,154864,36406,183325
37392,154868,36405,183321
37402,154866,36394,183315
37412,154859,36405,183318
37422,154867,36414,183320
37432,154859,36399,183315
37442,154855,36427,183319
37452,154863,36403,183286
37461,154861,36396,183311
37471,154845,36412,183312
37482,154851,36416,183280
37492,154842,36401,183303
37501,154860,36416,183296
37511,154854,36415,183314
37521,154860,36409,183322
37532,154877,36412,183302
37541,154871,36407,183293
37552,154845,36406,183341
37562,154857,36389,183280
37572,154841,36398,183282
37582,154828,36391,183281
37591,154845,36393,183290
37602,154833,36398,183266
37612,154825,36375,183274
37622,154853,36376,183261
37631,154849,36378,183259
37641,154844,36372,183260
37651,154851,36397,183279
37662,154843,36363,183274
37671,154843,36378,183288
37681,154846,36368,183271
37692,154855,36379,183276
37702,154849,36370,183279
37711,154843,36373,183272
37722,154848,36379,183245
37732,154819,36365,183272
37761,154829,36363,183283
37763,154846,36371,183259
37771,154831,36352,183261
37782,154840,36368,183241
37791,154843,36374,183283
37801,154854,36365,183254
37811,154832,36376,183233
37822,154841,36377,183268
37832,154852,36370,183232
37841,154838,36372,183260
37851,154842,36374,183266
37861,154839,36351,183264
37872,154850,36363,183244
37881,154838,36364,183277
37891,154842,36371,183263
37902,154847,36366,183263
37912,154842,36380,183269
37921,154835,36364,183261
37931,154793,36373,183297
37941,154833,36377,183250
37951,154840,36363,183221
37961,154839,36375,183265
37971,154846,36365,183205
37981,154830,36363,183251
37991,154837,36383,183249
38000,154820,36387,183250
38011,154847,36359,183260
38021,154842,36371,183250
38032,154819,36377,183239
38041,154824,36365,183242
38051,154827,36362,183247
38061,154845,36365,183239
38071,154825,36368,183222
38082,154819,36392,183243
38091,154832,36376,183239
38101,154815,36383,183212
38111,154822,36376,183250
38121,154822,36370,183248
38131,154837,36370,183230
38141,154817,36380,183217
38151,154828,36378,183206
38162,154814,36372,183221
38171,154823,36363,183200
38181,154827,36390,183225
38191,154803,36386,183232
38201,154793,36375,183227
38210,154815,36394,183212
38221,154808,36391,183208
38231,154811,36371,183214
38241,154793,36401,183209
38250,154823,36380,183227
38261,154805,36392,183222
38271,154828,36381,183205
38281,154803,36383,183201
38291,154801,36395,183205
38301,154818,36376,183214
38311,154807,36391,183210
38321,154835,36390,183210
38331,154825,36386,183208
38341,154815,36397,183197
38351,154832,36395,183176
38361,154825,36393,183183
38371,154832,36383,183178
38381,154812,36376,183177
38391,154809,36397,183164
38401,154820,36381,183193
38411,154823,36393,183188
38421,154835,36379,183175
38431,154826,36375,183190
38441,154820,36383,183162
38451,154834,36366,183212
38461,154830,36376,183174
38471,154813,36368,183159
38481,154838,36373,183191
38491,154839,36367,183198
38500,154827,36359,183186
38510,154836,36361,183206
38520,154843,36348,183190
38531,154850,36343,183190
38541,154851,36346,183170
38551,154838,36346,183177
38561,154847,36347,183170
38571,154867,36343,183186
38581,154845,36355,183158
38590,154864,36356,183182
38600,154847,36347,183173
38610,154871,36344,183193
38621,154864,36325,183159
38630,154845,36356,183126
38641,154841,36329,183142
38651,154849,36332,183135
38661,154841,36331,183126
38670,154847,36334,183137
38680,154863,36349,183120
38690,154857,36341,183135
38701,154865,36342,183154
38711,154875,36333,183133
38720,154899,36350,183148
38731,154873,36313,183144
38741,154883,36326,183128
38750,154884,36316,183162
38760,154889,36326,183136
38770,154895,36348,183149
38780,154879,36347,183110
38791,154886,36325,183104
38800,154906,36336,183136
38810,154898,36314,183125
38821,154888,36333,183126
38831,154907,36331,183144
38840,154899,36328,183121
38850,154880,36325,183135
38861,154902,36335,183104
38871,154916,36344,183105
38880,154897,36326,183089
38890,154892,36308,183099
38901,154904,36343,183101
38911,154890,36337,183108
38920,154910,36346,183069
38930,154898,36330,183086
38940,154898,36328,183071
38950,154915,36340,183068
38960,154890,36334,183057
38970,154888,36330,183054
38980,154911,36333,183067
38991,154902,36323,183057
39000,154903,36324,183042
39010,154893,36329,183060
39020,154895,36335,183035
39030,154892,36317,183047
39041,154894,36328,183029
39050,154894,36325,183034
39060,154886,36324,183040
39070,154904,36327,183033
39081,154917,36311,183025
39090,154891,36285,183027
39100,154904,36331,183012
39110,154898,36319,183015
39121,154898,36329,182965
39130,154890,36345,183001
39140,154884,36337,182971
39150,154875,36328,182993
39160,154885,36335,182989
39170,154887,36327,182958
39180,154887,36340,182950
39190,154874,36339,182966
39200,154887,36335,182968
39209,154884,36344,182966
39219,154901,36330,182961
39230,154895,36336,182934
39241,154881,36340,182954
39250,154898,36348,182958
39260,154878,36337,182944
39270,154901,36332,182958
39280,154915,36312,182953
39290,154924,36327,182958
39300,154909,36326,182960
39310,154935,36326,182978
39320,154920,36320,182955
39330,154944,36333,182965
39339,154921,36319,182973
39349,154938,36302,182968
39360,154940,36284,182958
39371,154946,36300,182945
39380,154953,36302,182948
39390,154931,36304,182974
39400,154971,36293,182973
39410,154956,36295,182974
39420,154969,36301,182984
39430,154968,36310,182994
39440,154989,36302,182989
39450,154985,36317,183001
39460,155010,36303,183007
39470,155016,36293,182997
39480,155036,36294,183008
39490,155029,36287,183024
39500,155030,36286,183022
39510,155037,36307,183013
39520,155062,36289,182989
39530,155040,36306,183017
39540,155063,36284,183014
39549,155048,36291,183017
39559,155046,36286,183024
39570,155075,36271,183021
39580,155071,36300,183023
39589,155052,36284,183019
39600,155050,36297,183023
39610,155091,36296,182999
39620,155087,36294,183014
39629,155108,36292,183013
39639,155096,36295,183015
39649,155111,36285,183015
39660,155103,36297,183017
39669,155103,36278,183012
39679,155100,36294,183027
39690,155128,36300,183013
39700,155144,36301,183027
39709,155132,36291,183041
39720,155155,36314,183042
39730,155162,36281,183026
39740,155171,36308,183046
39750,155182,36292,183040
39759,155215,36313,183065
39769,155213,36312,183070
39780,155218,36318,183067
39790,155200,36319,183088
39800,155212,36306,183074
39810,155222,36320,183081
39820,155233,36319,183088
39830,155205,36293,183101
39840,155240,36311,183067
39850,155211,36317,183073
39860,155234,36320,183059
39870,155249,36322,183096
39880,155227,36333,183070
39889,155259,36313,183081
39899,155256,36314,183094
39910,155264,36320,183081
39919,155251,36325,183071
39929,155267,36320,183085
39940,155272,36337,183079
39950,155278,36325,183081
39959,155271,36321,183074
39969,155288,36338,183078
39979,155300,36338,183062
39989,155282,36335,183070
40000,155298,36334,183067
40009,155298,36332,183073
40020,155317,36315,183077
40029,155309,36338,183080
40040,155304,36337,183090
40049,155317,36341,183088
40060,155325,36341,183089
40070,155337,36329,183098
40080,155334,36349,183099
40089,155335,36351,183090
40099,155314,36336,183094
40109,155336,36340,183083
40119,155353,36343,183105
40129,155352,36339,183120
40139,155379,36351,183092
40150,155372,36328,183095
40160,155380,36328,183096
40169,155370,36322,183086
40179,155358,36342,183089
40189,155382,36331,183066
40199,155407,36315,183102
40209,155401,36314,183063
40219,155397,36303,183066
40241,155402,36319,183074
40249,155394,36302,183084
40258,155408,36312,183078
40269,155430,36296,183093
40280,155438,36312,183100
40290,155422,36306,183092
40299,155450,36314,183103
40309,155456,36323,183116
40319,155463,36313,183097
40329,155450,36322,183112
40338,155459,36316,183120
40349,155476,36309,183109
40359,155488,36313,183116
40369,155502,36310,183124
40378,155503,36329,183141
40389,155513,36305,183123
40399,155516,36325,183122
40409,155503,36318,183120
40463,155525,36312,183133
40469,155547,36311,183137
40479,155544,36323,183119
40489,155539,36329,183132
40500,155556,36294,183130
40508,155559,36306,183142
40519,155575,36321,183134
40529,155551,36323,183146
40540,155571,36316,183119
40549,155583,36323,183155
40559,155580,36329,183168
40569,155595,36317,183156
40579,155581,36333,183158
40588,155586,36334,183150
40598,155608,36330,183157
40608,155570,36338,183167
40619,155610,36317,183158
40628,155616,36323,183170
40641,155611,36321,183165
40649,155628,36343,183180
40659,155616,36320,183170
40668,155621,36328,183178
40678,155630,36345,183175
40689,155615,36328,183162
40699,155610,36346,183156
40708,155643,36348,183176
40718,155638,36356,183155
40729,155631,36347,183164
40739,155637,36343,183150
40749,155629,36369,183177
40758,155640,36351,183173
40768,155641,36350,183172
40779,155658,36363,183170
40789,155656,36360,183180
40798,155635,36376,183161
40808,155650,36361,183174
40818,155680,36370,183175
40828,155652,36359,183205
40840,155665,36354,183179
40849,155662,36369,183199
40859,155669,36379,183183
40869,155676,36352,183180
40878,155646,36366,183182
40888,155662,36370,183172
40899,155667,36373,183198
40909,155675,36378,183197
40918,155676,36377,183185
40928,155689,36364,183202
40938,155687,36364,183193
40948,155722,36357,183207
40958,155693,36358,183222
40968,155698,36350,183181
40980,155704,36338,183177
40988,155698,36345,183183
40999,155686,36331,183189
41008,155689,36339,183157
41018,155681,36347,183182
41028,155701,36340,183156
41039,155699,36329,183178
41048,155698,36339,183179
41058,155714,36318,183154
41068,155709,36341,183160
41079,155713,36328,183166
41088,155704,36332,183166
41098,155688,36329,183170
41108,155719,36328,183162
41119,155702,36310,183172
41128,155726,36330,183146
41138,155701,36316,183158
41148,155700,36318,183134
41159,155711,36322,183143
41168,155712,36329,183144
41178,155708,36326,183120
41188,155725,36326,183120
41198,155721,36335,183118
41208,155707,36339,183109
41218,155705,36337,183124
41228,155706,36324,183102
41239,155712,36330,183080
41249,155703,36321,183098
41258,155702,36316,183087
41268,155705,36318,183095
41278,155700,36321,183069
41288,155708,36320,183093
41298,155689,36322,183090
41308,155719,36306,183064
41318,155682,36332,183069
41328,155706,36310,183049
41337,155698,36310,183064
41348,155695,36329,183068
41358,155700,36325,183056
41368,155707,36299,183059
41378,155705,36322,183077
41387,155706,36315,183072
41398,155705,36295,183056
41409,155695,36306,183038
41418,155698,36300,183057
41428,155703,36305,183035
41438,155685,36308,183056
41448,155693,36307,183030
41458,155699,36311,183049
41468,155710,36301,183024
41478,155700,36314,183037
41488,155672,36309,183048
41498,155690,36314,183042
41507,155701,36301,183030
41518,155707,36292,183025
41528,155694,36313,183000
41538,155688,36311,183006
41547,155711,36320,182988
41557,155699,36319,183009
41568,155698,36317,183023
41579,155712,36307,183030
41588,155696,36321,182995
41598,155700,36321,183005
41608,155670,36315,182990
41618,155702,36297,183010
41627,155695,36323,182999
41637,155700,36310,182994
41648,155700,36301,182983
41658,155712,36317,182994
41668,155706,36318,182993
41680,155703,36302,182969
41687,155699,36310,182986
41698,155700,36309,182979
41708,155696,36317,182967
41717,155698,36316,182966
41728,155703,36304,182972
41738,155687,36307,182970
41748,155701,36306,182959
41757,155713,36306,182954
41767,155696,36305,182968
41777,155717,36296,182949
41788,155713,36287,182947
41800,155693,36275,182966
41807,155699,36280,182950
41818,155712,36266,182931
41828,155714,36263,182943
41837,155714,36257,182934
41847,155697,36252,182927
41857,155697,36264,182909
41868,155713,36261,182918
41877,155684,36253,182903
41888,155711,36255,182908
41898,155705,36249,182887
41908,155710,36248,182902
41917,155703,36235,182897
41927,155711,36232,182889
41937,155725,36231,182908
41948,155720,36245,182910
41958,155706,36218,182898
41967,155724,36237,182893
41977,155721,36229,182906
41988,155727,36234,182889
41998,155730,36235,182892
42007,155736,36245,182883
42017,155728,36240,182912
42027,155743,36227,182892
42038,155750,36227,182887
42047,155743,36230,182914
42057,155740,36239,182885
42067,155735,36232,182902
42077,155749,36229,182893
42087,155747,36206,182901
42097,155744,36212,182884
42107,155730,36221,182911
42117,155747,36223,182885
42127,155752,36210,182894
42137,155742,36219,182878
42147,155737,36238,182880
42158,155747,36222,182864
42167,155747,36219,182862
42180,155763,36230,182893
42187,155768,36213,182866
42197,155763,36220,182843
42208,155762,36222,182857
42217,155752,36223,182842
42227,155762,36222,182866
42237,155764,36220,182859
42248,155758,36212,182846
42257,155768,36218,182855
42267,155769,36220,182828
42277,155770,36230,182846
42288,155754,36208,182844
42297,155757,36227,182835
42307,155760,36224,182836
42317,155761,36219,182853
42327,155770,36215,182849
42340,155760,36239,182816
42347,155775,36225,182825
42357,155759,36215,182825
42368,155769,36228,182803
42377,155758,36217,182821
42387,155758,36235,182812
42397,155743,36224,182807
42408,155762,36225,182808
42417,155761,36221,182790
42427,155785,36222,182786
42437,155761,36226,182798
42447,155769,36221,182805
42457,155759,36241,182777
42467,155762,36200,182776
42477,155762,36224,182784
42487,155766,36223,182779
42497,155777,36223,182746
42507,155751,36242,182749
42517,155765,36222,182758
42527,155755,36231,182751
42538,155758,36226,182750
42547,155770,36225,182761
42557,155759,36227,182720
42567,155736,36225,182757
42577,155766,36203,182734
42587,155753,36219,182763
42597,155779,36195,182725
42607,155786,36192,182729
42617,155773,36202,182713
42627,155754,36184,182711
42637,155755,36169,182694
42647,155761,36197,182707
42657,155757,36177,182701
42666,155751,36178,182684
42676,155760,36167,182677
42687,155771,36168,182689
42697,155778,36171,182677
42707,155759,36165,182670
42717,155774,36153,182675
42727,155778,36170,182679
42737,155771,36163,182666
42747,155778,36161,182657
42757,155777,36152,182658
42766,155779,36150,182648
42777,155787,36134,182663
42787,155791,36150,182652
42797,155761,36151,182653
42807,155782,36144,182639
42817,155796,36153,182644
42827,155784,36144,182652
42836,155778,36144,182667
42846,155799,36139,182637
42857,155817,36154,182655
42867,155801,36155,182658
42876,155806,36138,182600
42887,155787,36144,182626
42897,155805,36149,182617
42907,155769,36156,182622
42916,155783,36139,182622
42926,155816,36141,182607
42936,155799,36160,182609
42947,155809,36158,182606
42957,155803,36147,182583
42966,155813,36147,182599
42977,155795,36153,182615
42986,155820,36138,182612
42997,155832,36134,182591
43006,155824,36157,182611
43016,155816,36139,182599
43026,155822,36159,182601
43036,155841,36132,182626
43046,155839,36148,182610
43057,155824,36155,182626
43067,155846,36153,182598
43077,155856,36161,182600
43086,155846,36152,182631
43096,155850,36162,182612
43107,155853,36143,182609
43117,155856,36154,182600
43126,155865,36147,182612
43136,155862,36146,182612
43147,155884,36149,182618
43157,155880,36151,182614
43166,155867,36153,182593
43176,155899,36162,182634
43186,155885,36155,182617
43196,155874,36160,182608
43206,155916,36163,182633
43216,155904,36153,182619
43226,155917,36166,182645
43237,155901,36169,182644
43246,155911,36179,182652
43255,155929,36172,182672
43266,155950,36162,182657
43277,155940,36178,182659
43287,155948,36180,182625
43296,155944,36183,182664
43306,155961,36189,182650
43316,155953,36192,182666
43327,155952,36188,182655
43336,155950,36188,182648
43346,155973,36197,182664
43356,155958,36190,182659
43366,155964,36196,182687
43375,155980,36194,182658
43386,155976,36189,182681
43396,155985,36187,182678
43407,156007,36196,182680
43416,156012,36181,182687
43426,156012,36160,182694
43436,156005,36177,182682
43446,156011,36178,182691
43457,156010,36183,182677
43465,156001,36174,182667
43476,156013,36163,182695
43486,156029,36169,182682
43497,156019,36166,182677
43505,156038,36175,182671
43516,156031,36174,182686
43527,156059,36169,182679
43536,156054,36171,182668
43546,156044,36168,182689
43556,156047,36166,182689
43566,156076,36174,182688
43576,156084,36175,182718
43585,156095,36144,182709
43596,156099,36151,182696
43606,156110,36173,182706
43616,156097,36171,182693
43625,156096,36183,182712
43635,156111,36164,182706
43646,156123,36167,182719
43656,156130,36170,182734
43666,156134,36187,182723
43676,156147,36185,182730
43686,156153,36171,182748
43696,156127,36194,182741
43706,156152,36201,182760
43715,156162,36197,182747
43726,156169,36187,182743
43736,156193,36202,182752
43746,156180,36183,182766
43756,156191,36188,182756
43765,156178,36187,182732
43776,156217,36185,182743
43786,156193,36190,182765
43795,156186,36196,182730
43806,156176,36203,182749
43816,156201,36211,182736
43826,156233,36199,182745
43835,156236,36198,182749
43845,156227,36182,182743
43855,156236,36220,182764
43866,156232,36212,182750
43876,156208,36219,182764
43925,156259,36220,182772
43936,156277,36211,182730
43945,156270,36220,182734
43956,156258,36217,182767
43965,156273,36234,182753
43976,156284,36227,182747
43986,156280,36231,182776
43996,156265,36236,182780
44005,156295,36247,182779
44015,156297,36226,182762
44026,156312,36237,182781
44036,156317,36239,182767
44045,156303,36239,182779
44055,156308,36245,182779
44066,156316,36242,182777
44076,156312,36239,182758
44085,156321,36255,182769
44095,156306,36235,182769
44105,156323,36257,182769
44115,156312,36254,182761
44125,156321,36239,182773
44135,156324,36247,182770
44145,156331,36239,182776
44156,156313,36259,182756
44166,156342,36264,182733
44176,156292,36279,182770
44186,156337,36266,182749
44196,156326,36254,182748
44206,156320,36260,182756
44215,156351,36241,182769
44225,156364,36249,182778
44235,156340,36257,182787
44246,156336,36262,182765
44255,156348,36245,182757
44265,156342,36252,182762
44275,156376,36230,182761
44285,156363,36228,182737
44294,156350,36240,182758
44305,156362,36237,182742
44316,156342,36239,182751
44325,156357,36245,182728
44335,156371,36233,182733
44345,156355,36221,182742
44356,156386,36235,182732
44365,156364,36236,182705
44375,156377,36223,182754
44385,156378,36228,182740
44396,156369,36215,182739
44405,156390,36226,182729
44416,156388,36222,182757
44425,156387,36237,182741
44435,156367,36233,182751
44445,156384,36240,182707
44456,156377,36232,182727
44464,156389,36239,182693
44475,156365,36237,182720
44485,156381,36237,182723
44496,156384,36262,182721
44505,156376,36224,182717
44515,156395,36230,182702
44526,156365,36236,182706
44536,156374,36242,182672
44545,156382,36225,182696
44555,156357,36249,182691
44565,156373,36224,182686
44575,156384,36236,182689
44585,156379,36230,182678
44595,156380,36216,182681
44605,156377,36241,182664
44615,156362,36235,182656
44625,156366,36221,182655
44635,156387,36221,182663
44645,156386,36227,182678
44655,156378,36228,182680
44665,156381,36231,182659
44675,156379,36237,182646
44684,156380,36238,182659
44695,156382,36244,182657
44706,156386,36236,182649
44715,156379,36246,182642
44725,156345,36240,182642
44735,156361,36265,182651
44745,156352,36246,182655
44754,156385,36253,182647
44765,156377,36244,182660
44775,156374,36251,182645
44785,156383,36261,182653
44795,156355,36249,182648
44804,156380,36265,182642
44815,156380,36235,182644
44826,156359,36258,182658
44835,156371,36245,182650
44845,156365,36253,182668
44855,156366,36256,182654
44865,156376,36269,182643
44875,156362,36258,182659
44885,156361,36260,182635
44895,156362,36246,182666
44905,156358,36274,182630
44916,156353,36273,182654
44924,156373,36265,182627
44935,156376,36267,182634
44945,156385,36273,182657
44955,156367,36262,182637
44965,156355,36267,182647
44975,156344,36264,182622
44985,156320,36260,182587
45000,156288,36263,182542
45004,156227,36267,182477
45014,156225,36273,182390
45025,156160,36260,182381
45035,156141,36260,182370
45044,156129,36261,182401
45054,156116,36261,182428
45065,156050,36252,182381
45075,155977,36259,182316
45084,155967,36257,182402
45095,156142,36248,182743
45104,156505,36262,183362
45115,156828,36291,183856
45125,157119,36314,184242
45135,157380,36314,184639
45145,157577,36349,184911
45155,157770,36360,185193
45165,157949,36340,185466
45174,158088,36379,185672
45184,158173,36379,185827
45194,158234,36416,185866
45205,158328,36453,185976
45214,158425,36476,186030
45224,158473,36490,186120
45235,158544,36539,186146
45245,158587,36559,186139
45254,158586,36595,186082
45265,158547,36600,186024
45275,158533,36627,185981
45285,158495,36643,185943
45294,158467,36683,185894
45304,158443,36700,185817
45314,158373,36711,185759
45325,158303,36733,185696
45334,158217,36749,185604
45344,158140,36772,185534
45355,158097,36771,185430
45365,158051,36800,185377
45375,158036,36797,185341
45384,158022,36801,185383
45394,158031,36812,185426
45405,158013,36833,185450
45415,158005,36832,185506
45424,158028,36846,185610
45434,158094,36847,185840
45444,158136,36845,186117
45454,158217,36828,186412
45464,158282,36836,186737
45474,158292,36823,187008
45525,159078,36883,189310
45534,159356,36884,189912
45543,159682,36906,190583
45553,160061,36969,191309
45564,160502,36999,191999
45575,160837,37036,192563
45584,161040,37075,192930
45594,161110,37103,193071
45604,161183,37138,193226
45614,161300,37157,193467
45625,161446,37188,193760
45634,161572,37209,194089
45644,161755,37242,194490
45654,161984,37250,194991
45665,162393,37236,195848
45674,163011,37229,197132
45684,163670,37223,198525
45694,163978,37230,199126
45704,163811,37261,198727
45713,163192,37214,197361
45724,162706,37157,196149
45734,162806,37127,196097
45744,163002,37121,196323
45753,163115,37121,196721
45764,163056,37073,197066
45774,162635,36995,196547
45844,156710,36614,187812
45861,156124,36595,187372
45864,155925,36584,187326
45875,155733,36550,187327
45884,155776,36594,187607
45894,155896,36612,187999
45904,156050,36630,188425
45919,156303,36650,188943
45942,156671,36677,189701
45961,156656,36757,189713
45963,156554,36758,189663
45973,156366,36759,189440
46026,156354,36923,188735
46034,156537,36973,188763
46043,156676,37004,188796
46053,156720,37039,188770
46064,156687,37039,188624
46074,156572,37054,188425
46083,156483,37042,188176
46094,156361,37065,187963
46104,156289,37056,187752
46114,156268,37061,187568
46124,156199,37051,187491
46133,156201,37061,187463
46144,156305,37042,187511
46154,156437,37046,187639
46181,156722,37059,187786
46202,156733,37073,187663
46245,158190,37177,189215
46371,160993,37487,192613
46381,161307,37532,193146
46383,161451,37547,193407
46393,161557,37608,193625
46403,161681,37599,193834
46463,161826,37657,194286
46466,161770,37655,194269
46473,161659,37696,194154
46484,161570,37675,194072
46604,157841,37632,189703
46606,157575,37678,189415
46613,157651,37700,189568
46623,158127,37727,190264
46633,158675,37753,191021
46643,159261,37798,191860
46653,159941,37830,192897
46664,160559,37841,193845
46673,161128,37833,194722
46683,161511,37837,195255
46693,161615,37824,195400
46703,161490,37781,195334
46713,161240,37711,195179
46785,159871,37543,195652
46788,159705,37516,195567
46793,159519,37464,195382
46821,159130,37437,195040
46824,158958,37404,194855
46833,158835,37382,194722
46843,158678,37361,194576
46853,158543,37340,194444
46864,158347,37327,194279
46874,158158,37310,194019
46883,157951,37302,193690
46900,157717,37290,193245
46946,157033,37248,191585
46953,157372,37254,191772
46962,157674,37284,191953
46972,157880,37294,192043
47001,158060,37328,192030
47004,158106,37341,191992
47085,158947,37457,192995
47088,158958,37467,192910
47101,158981,37478,192780
47103,159040,37488,192792
47113,159104,37498,192793
47233,159235,37527,192773
47352,162341,37812,194899
47361,162510,37851,195077
47364,162607,37860,195248
47373,162732,37862,195451
47382,162818,37912,195592
47392,162943,37939,195765
47403,163029,37937,195932
47413,163097,37948,196062
47422,163132,37972,196197
47432,163138,37980,196254
47442,163141,37985,196353
47452,163111,37983,196357
47462,163057,37991,196379
47473,162983,38008,196373
47483,162829,37993,196296
47500,162680,38000,196167
47503,162512,37995,196043
47512,162309,37968,195842
47523,162091,37990,195703
47533,161900,38009,195528
47542,161676,38008,195401
47552,161559,38010,195275
47562,161470,38012,195249
47581,161416,38023,195205
47583,161321,38033,195087
47592,161372,38052,195124
47602,161501,38091,195300
47621,161888,38149,195891
47623,162565,38171,196935
47632,163128,38205,197976
47642,163479,38206,198820
47661,163780,38193,199530
47663,163825,38160,199841
47672,163627,38094,199746
47725,162659,38122,199063
47732,163356,38132,200071
47742,163719,38108,200589
47751,163648,38063,200514
47762,163379,38017,200159
47772,163084,37975,199706
47782,162914,37957,199455
47791,162906,37928,199504
47802,162969,37929,199634
47813,163010,37893,199660
47822,162938,37870,199558
47840,162821,37837,199410
47842,162733,37831,199253
47852,162626,37806,199107
47862,162540,37809,198976
47872,162412,37793,198876
47882,162324,37751,198693
47892,162192,37757,198457
47902,162014,37745,198157
47913,161833,37726,197828
47922,161612,37732,197484
47932,161396,37733,197155
47942,161229,37721,196911
47952,161122,37738,196765
47962,161093,37745,196718
47972,161088,37769,196775
47982,161092,37787,196844
47993,161098,37763,196839
48002,161066,37820,196733
48012,160994,37835,196596
48022,160913,37868,196395
48032,160876,37874,196204
48128,161455,38059,196235
48131,161433,38060,196118
48142,161235,38079,195860
48161,160934,38073,195403
48163,160626,38037,195027
48171,160305,38021,194666
48182,160107,38022,194448
48192,160015,38009,194334
48202,160075,38024,194349
48212,160316,38039,194550
48222,160654,38050,194785
48232,160920,38070,194953
48242,161138,38089,195122
48251,161375,38109,195288
48261,161582,38111,195464
48272,161763,38125,195610
48282,161955,38155,195754
48291,162117,38177,195912
48302,162305,38193,196086
48320,162493,38219,196236
48342,162779,38268,196535
48385,163220,38327,196993
48392,163287,38321,197058
48402,163362,38370,197152
48412,163360,38357,197261
48421,163396,38364,197298
48431,163376,38369,197311
48485,162920,38354,197297
48491,162684,38328,197153
48501,162378,38314,196951
48512,162035,38307,196707
48522,161643,38299,196457
48532,161226,38310,196133
48585,158832,38358,192868
48591,158525,38384,192852
48602,158210,38415,193636
48620,158600,38419,194733
48666,159272,38234,196817
48671,158701,38156,196265
48681,158390,38084,195914
48691,158270,38040,195877
48702,158394,38011,196142
48711,158642,37995,196637
48721,158955,37965,197261
48732,159315,37927,197911
48741,159610,37926,198518
48751,159846,37905,199010
48761,160072,37904,199423
48771,160242,37888,199757
48781,160383,37863,200003
48800,160505,37857,200206
48803,160582,37845,200356
48812,160653,37843,200462
48821,160693,37818,200498
48832,160615,37788,200414
48841,160423,37788,200151
48852,160124,37759,199735
48861,159789,37766,199266
48872,159467,37740,198863
48881,159255,37752,198550
48891,159137,37758,198410
48921,159185,37778,198458
48924,159241,37781,198488
48931,159343,37783,198535
48941,159404,37802,198578
48951,159406,37855,198475
48960,159310,37815,198279
48971,159140,37860,197839
48982,159009,37880,197502
48992,158887,37883,197125
49001,158881,37913,196887
49011,158970,37944,196716
49064,159315,38042,195864
49072,159386,38063,195678
49082,159564,38096,195561
49091,159729,38104,195416
49101,159926,38091,195298
49111,160133,38105,195108
49121,160470,38126,194991
49130,160874,38150,195019
49141,161354,38174,195084
49151,161858,38234,195257
49161,162345,38250,195487
49171,162764,38277,195672
49181,163119,38319,195886
49191,163408,38353,196058
49202,163572,38370,196176
49220,163708,38378,196280
49223,163776,38402,196357
49231,163839,38419,196460
49242,163851,38425,196554
49250,163944,38428,196701
49261,164015,38438,196892
49271,164095,38456,197052
49282,164183,38474,197249
49291,164233,38482,197410
49300,164323,38479,197551
49322,164460,38501,197812
49331,164520,38497,197953
49340,164574,38518,198064
49350,164634,38514,198151
49361,164669,38517,198229
49371,164682,38496,198245
49381,164686,38487,198274
49391,164645,38509,198229
49400,164605,38502,198200
49411,164540,38509,198145
49421,164486,38501,198091
49431,164391,38500,198011
49441,164254,38470,197945
49451,164089,38478,197825
49460,163870,38461,197665
49470,163593,38444,197449
49480,163237,38422,197121
49491,162866,38389,196812
49501,162479,38414,196481
49511,162038,38382,196141
49521,161697,38403,196015
49531,161607,38453,196325
49563,162610,38542,198809
49571,162618,38468,199186
49581,162075,38406,198953
49590,161668,38333,199170
49600,162203,38412,200377
49610,163178,38444,201892
49621,163830,38407,202899
49630,163982,38384,203211
49641,163736,38352,203186
49651,163406,38298,203057
49661,163194,38303,203092
49670,163273,38295,203453
49680,163616,38313,204126
49690,164014,38319,204827
49700,164331,38344,205386
49710,164568,38359,205822
49721,164742,38377,206067
49731,164914,38380,206357
49762,165648,38433,207271
49770,165881,38445,207502
49780,165925,38451,207459
49791,165765,38454,207052
49801,165408,38424,206433
49811,164965,38418,205684
49820,164442,38387,204873
49831,163925,38400,204146
49840,163406,38373,203419
49850,162901,38360,202802
49861,162381,38327,202165
49871,161866,38301,201536
49880,161396,38305,200996
49890,160985,38301,200473
49900,160640,38295,200016
50032,161440,38465,197603
50041,161153,38441,196487
50050,161304,38438,196249
50060,161593,38463,196197
50070,161987,38486,196272
50081,162312,38506,196297
50090,162577,38515,196357
50100,162768,38510,196386
50110,162947,38523,196420
50120,163076,38531,196463
50130,163216,38540,196521
50140,163370,38541,196658
50150,163485,38555,196790
50161,163677,38554,196953
50170,163864,38565,197131
50180,164019,38573,197344
50202,164321,38591,197665
50210,164468,38604,197833
50220,164548,38612,197944
50230,164636,38591,197967
50240,164638,38616,197971
50250,164653,38615,197907
50259,164633,38604,197832
50282,164606,38584,197754
50291,164634,38575,197756
50300,164668,38584,197810
50310,164744,38560,197849
50321,164808,38587,197947
50331,164895,38590,197986
50340,164980,38615,198073
50350,165071,38607,198141
50360,165215,38620,198291
50370,165369,38651,198454
50380,165586,38702,198724
50389,165798,38750,199009
50400,165870,38757,199127
50421,165525,38782,198816
50430,165418,38765,198632
50440,165363,38779,198505
50450,165276,38782,198427
50459,165240,38769,198371
50469,165155,38792,198318
50480,164995,38770,198229
50490,164739,38746,198068
50500,164383,38735,197871
50509,163909,38711,197645
50520,163319,38674,197363
50530,162604,38626,197049
50541,161903,38610,196778
50549,161377,38577,196606
50559,161077,38566,196626
50570,161172,38604,197018
50580,161686,38641,197943
50589,162494,38653,199285
50600,163052,38638,200264
50610,163117,38591,200674
50620,162672,38525,200452
50630,161824,38417,199874
50640,161110,38394,199568
50650,160786,38362,199589
50660,160568,38344,199534
50669,160538,38330,199685
50679,160630,38306,199945
50689,160695,38308,200158
50700,160837,38298,200451
50709,161014,38313,200768
50720,161363,38316,201260
50730,161795,38316,201792
50740,162138,38337,202235
50750,162470,38361,202656
50759,162798,38366,203101
50770,163077,38373,203473
50780,163300,38410,203748
50790,163494,38404,204034
50799,163692,38428,204326
50809,163906,38429,204579
50819,164042,38443,204793
50830,164182,38432,204943
50840,164286,38439,205076
50850,164351,38427,205123
50860,164302,38435,205007
50870,164220,38425,204877
50879,164166,38417,204782
50889,164095,38434,204686
50899,164056,38431,204658
50909,163995,38442,204746
50919,163992,38440,204842
50929,163931,38428,204931
50939,163958,38440,205134
50949,164043,38414,205271
50958,164058,38408,205252
50969,163959,38380,204983
50980,163809,38360,204634
50990,163691,38389,204249
51000,163665,38399,203948
51009,163608,38413,203635
51019,163518,38437,203239
51029,163360,38461,202743
51040,163096,38461,202243
51048,162903,38469,201723
51060,162727,38431,201238
51069,162564,38448,200717
51080,162585,38412,200378
51089,162714,38434,200163
51099,162786,38435,199929
51109,163015,38450,199852
51121,163332,38488,199871
51129,163562,38495,199816
51139,163706,38524,199721
51149,163772,38549,199558
51160,163693,38540,199341
51169,163551,38533,199091
51179,163363,38542,198789
51189,163251,38556,198596
51199,163277,38559,198454
51208,163326,38585,198320
51218,163392,38590,198246
51229,163469,38586,198168
51240,163432,38597,198059
51249,163410,38598,197945
51259,163349,38609,197837
51281,163262,38597,197627
51345,163068,38581,197247
51349,163040,38582,197220
51359,163040,38586,197152
51369,162996,38581,197102
51379,162961,38570,197083
51389,162943,38566,197042
51399,162918,38551,197027
51409,162899,38530,197004
51418,162890,38525,196979
51428,162888,38529,196968
51439,162878,38504,196934
51449,162844,38513,196930
51458,162835,38508,196908
51468,162805,38488,196878
51478,162791,38493,196868
51489,162763,38473,196856
51499,162764,38482,196854
51509,162715,38462,196815
51519,162680,38462,196769
51529,162545,38438,196664
51539,162304,38428,196388
51548,161926,38406,196041
51559,161626,38385,195837
51569,161279,38362,195583
51579,160935,38331,195359
51588,160618,38305,195125
51599,160315,38294,194947
51608,160061,38265,194759
51619,159816,38262,194606
51642,159263,38244,194212
51649,158989,38231,193991
51659,158722,38251,193765
51668,158418,38240,193615
51678,158201,38246,193585
51688,157946,38236,193597
51698,157666,38225,193602
51708,157447,38231,193655
51721,157606,38258,194152
51728,158230,38288,195173
51739,159010,38321,196313
51749,159832,38349,197354
51758,160577,38354,198305
51768,161010,38365,198813
51778,160880,38317,198805
51789,160254,38251,198344
51798,159453,38181,197759
51808,158952,38107,197586
51819,158760,38070,197612
51829,158831,38071,197776
51838,158973,38055,198065
51848,159132,38048,198237
51858,159235,38029,198440
51868,159435,38007,198702
51879,159675,37997,199009
51888,160003,37985,199389
51899,160368,37949,199805
51909,160695,37966,200209
51918,160989,37959,200573
51928,161279,37962,201020
51938,161554,37971,201391
51948,161880,37985,201843
51958,162311,37976,202388
51968,162795,37996,203010
51978,163274,38012,203672
51989,163760,38031,204337
51999,164174,38050,204867
52008,164557,38078,205402
52018,164918,38103,205901
52028,165298,38132,206430
52038,165650,38165,206949
52048,165932,38164,207320
52059,166257,38197,207783
52069,166678,38222,208328
52079,167133,38250,208926
52088,167526,38274,209405
52098,167889,38300,209827
52108,168143,38330,210023
52118,168283,38344,210043
52127,168386,38349,210039
52139,168409,38370,209900
52148,168354,38365,209714
52159,167760,38310,208871
52168,166980,38292,207735
52178,166157,38262,206533
52188,165526,38246,205435
52198,164942,38236,204426
52208,164338,38211,203498
52217,163678,38196,202607
52228,163178,38141,201901
52238,162819,38121,201384
52248,162560,38078,200955
52257,162370,38073,200661
52268,162300,38073,200599
52278,162342,38088,200649
52288,162455,38088,200697
52298,162393,38089,200502
52308,162272,38115,200201
52318,162160,38135,199857
52328,162152,38132,199631
52337,162206,38170,199397
52348,162302,38187,199221
52359,162419,38210,199074
52368,162531,38205,198956
52378,162665,38219,198855
52388,162712,38249,198714
52398,162722,38266,198578
52408,162798,38270,198433
52417,162816,38308,198255
52428,162833,38307,198036
52438,162837,38345,197855
52448,162824,38337,197660
52458,162850,38375,197481
52468,162891,38381,197304
52478,162973,38408,197205
52488,163114,38405,197141
52498,163214,38427,197082
52507,163302,38451,197040
52520,163391,38450,196997
52528,163479,38445,197010
52539,163563,38444,197066
52548,163646,38451,197103
52558,163760,38465,197201
52568,163839,38463,197324
52578,163912,38462,197400
52587,163986,38451,197482
52597,164013,38443,197562
52608,164029,38441,197601
52618,164003,38433,197659
52627,163957,38435,197654
52637,163933,38418,197695
52648,163919,38389,197702
52658,163878,38399,197747
52681,163861,38366,197759
52688,163852,38351,197815
52701,163817,38338,197783
52708,163785,38331,197812
52717,163753,38316,197828
52741,163692,38304,197777
52748,163658,38282,197779
52757,163628,38287,197792
52767,163604,38282,197767
52778,163544,38264,197735
52788,163500,38252,197668
52797,163437,38242,197604
52808,163357,38216,197519
52818,163288,38220,197399
52828,163174,38193,197327
52837,163115,38184,197250
52847,163076,38193,197284
52861,163026,38173,197272
52868,162940,38179,197204
52877,162827,38174,197113
52927,162074,38168,196381
52937,161760,38155,196157
52948,161438,38161,195901
52958,161271,38136,195781
52967,161048,38146,195632
52977,160930,38142,195575
52988,160862,38142,195499
53044,160848,38200,195953
53047,160702,38192,196093
53058,160494,38177,196199
53067,160133,38173,196130
53078,160090,38150,196390
53087,160161,38132,196796
53097,160308,38109,197259
53108,160475,38091,197689
53118,160611,38099,198164
53127,160879,38077,198885
53137,161135,38080,199439
53147,161391,38059,199994
53157,161659,38031,200513
53167,161918,38001,200941
53177,162071,37994,201200
53188,162158,37970,201414
53198,162282,37951,201621
53208,162400,37931,201847
53217,162483,37917,202020
53227,162652,37900,202259
53237,162955,37900,202703
53247,163378,37888,203243
53256,163815,37891,203781
53267,164266,37897,204321
53277,164758,37914,204901
53287,165324,37927,205538
53296,165821,37944,206104
53307,166261,37953,206587
53317,166562,37985,206853
53327,166759,37979,206942
53336,166782,37980,206782
53347,166612,37960,206465
53358,166277,37958,205948
53367,165874,37966,205326
53377,165352,37971,204684
53387,164765,37983,203959
53401,164186,37985,203287
53407,163682,37986,202673
53417,163394,37989,202248
53426,163271,37988,201879
53436,163229,37989,201675
53447,163200,37976,201441
53458,163149,37985,201261
53467,163258,37993,201170
53477,163193,37989,200949
53487,162889,37986,200600
53497,162651,37986,200340
53506,162534,37982,200195
53516,162454,37995,200085
53527,162338,37991,199863
53538,162174,37978,199636
53547,162026,37990,199395
53557,162009,37979,199204
53567,162018,38001,199070
53577,162118,38010,198905
53587,162139,38031,198707
53597,162068,38023,198541
53607,162042,38024,198389
53617,162069,38021,198281
53626,162200,38032,198250
53637,162358,38057,198233
53647,162529,38067,198253
53657,162683,38070,198215
53666,162857,38078,198198
53676,162935,38106,198161
53686,162998,38113,198106
53696,163106,38121,198066
53707,163260,38143,198054
53717,163429,38157,198121
53726,163576,38164,198173
53737,163676,38175,198236
53747,163789,38198,198283
53756,163871,38202,198365
53766,163935,38199,198363
53777,163974,38234,198334
53787,164003,38216,198268
53797,163997,38210,198187
53807,163990,38222,198063
53817,163974,38240,197987
53827,163951,38228,197877
53836,163933,38234,197816
53847,163922,38207,197801
53857,163921,38230,197782
53867,163867,38248,197776
53880,163887,38238,197749
53902,163892,38228,197789
53907,163874,38241,197826
53916,163837,38231,197844
53926,163840,38232,197870
53936,163801,38234,197882
53947,163786,38228,197881
53957,163725,38230,197834
53966,163656,38212,197795
53976,163537,38211,197676
53987,163448,38194,197541
53997,163326,38189,197390
54006,163219,38197,197323
54017,163142,38200,197301
54027,163085,38194,197223
54037,162949,38187,197085
54046,162807,38182,196925
54056,162614,38155,196710
54066,162413,38148,196503
54081,162194,38156,196242
54086,161974,38132,195989
54096,161684,38135,195617
54106,161351,38141,195308
54116,161207,38132,195084
54125,161076,38136,194948
54136,161010,38136,194922
54162,160598,38140,194737
54166,160352,38139,194686
54180,160182,38150,194785
54187,160312,38170,195208
54197,160530,38174,195680
54207,160804,38171,196192
54216,161082,38180,196710
54226,161460,38191,197292
54236,161890,38178,197863
54246,162371,38185,198525
54255,162776,38176,199094
54266,162996,38158,199451
54276,163073,38140,199685
54286,163017,38119,199811
54295,163001,38094,199876
54306,162919,38068,199900
54316,162809,38078,199847
54326,162731,38037,199878
54335,162696,38034,199881
54346,162578,38034,199811
54356,162539,38030,199742
54366,162601,38016,199803
54375,162646,38021,199807
54386,162850,38013,200053
54397,163198,38018,200371
54407,163457,38010,200629
54416,163649,37995,200798
54426,163747,37973,200805
54436,163700,37968,200658
54447,163543,37928,200451
54457,163327,37902,200134
54466,163047,37883,199798
54476,162749,37857,199444
54486,162455,37861,199104
54496,162186,37849,198806
54506,161995,37854,198663
54516,161850,37871,198606
54526,161768,37900,198586
54536,161647,37915,198560
54546,161533,37949,198563
54556,161404,37937,198615
54566,161302,37957,198592
54576,161271,37986,198602
54585,161300,37973,198632
54596,161365,38007,198653
54606,161421,38020,198548
54616,161399,38028,198328
54626,161156,38053,197955
54636,160929,38069,197610
54646,160819,38063,197327
54656,160847,38085,197163
54666,160881,38090,196973
54676,161075,38134,196948
54686,161299,38156,196904
54696,161528,38179,196883
54707,161747,38197,196842
54716,161854,38220,196745
54726,161958,38226,196652
54736,161989,38255,196484
54746,162083,38271,196397
54755,162260,38303,196322
54766,162506,38313,196379
54776,162709,38352,196441
54786,162858,38379,196487
54796,162991,38387,196509
54806,163079,38403,196491
54816,163167,38407,196468
54826,163221,38423,196487
54835,163303,38426,196507
54846,163382,38449,196535
54856,163470,38456,196532
54866,163504,38459,196551
54875,163573,38453,196564
54886,163631,38436,196580
54896,163681,38441,196605
54906,163720,38436,196623
54916,163757,38435,196644
54925,163741,38420,196677
54935,163730,38419,196692
54946,163702,38401,196731
54956,163662,38385,196735
54965,163595,38371,196721
54975,163535,38350,196684
54985,163483,38316,196659
54996,163427,38307,196649
55005,163372,38308,196605
55016,163319,38281,196605
55026,163243,38278,196570
55036,163168,38257,196599
55045,163091,38242,196520
55055,162979,38235,196464
55065,162872,38222,196402
55081,162768,38209,196266
55101,162560,38153,196049
55106,162429,38151,195947
55116,162260,38132,195808
55125,162114,38123,195646
55135,161867,38100,195424
55146,161610,38091,195220
55156,161335,38074,194913
55166,160994,38054,194582
55203,159594,38018,193351
55205,158987,38009,192858
55215,158382,37987,192343
55225,157837,38006,191897
55262,155858,38003,190140
55265,155272,38018,189577
55275,154914,38049,189208
55286,154740,38043,188983
55295,154682,38073,188873
55305,154669,38108,188793
55315,154758,38105,188812
55325,154900,38134,188846
55446,155898,38080,187621
55448,156243,38060,187596
55455,156427,38054,187571
55482,156661,38049,187625
55485,157135,38049,188156
55495,157695,38068,188721
55504,158203,38094,189158
55521,158550,38117,189472
55525,158774,38125,189612
55535,158890,38131,189657
55544,158885,38136,189672
55554,158879,38132,189644
55565,158888,38138,189636
55576,158868,38137,189587
55585,158840,38138,189516
55595,158798,38124,189451
55605,158735,38142,189419
55615,158666,38118,189372
55625,158635,38123,189351
55635,158568,38107,189310
55645,158527,38097,189264
55655,158465,38096,189261
55665,158414,38086,189234
55724,158083,38063,188986
55726,158007,38040,188931
55735,157929,38026,188863
55745,157870,38026,188822
55755,157802,38017,188815
55765,157769,38002,188794
55802,157678,37957,188831
55822,157624,37949,188896
55825,157628,37935,188937
55834,157598,37931,188958
55844,157601,37925,189033
55854,157646,37921,189078
55925,157928,37888,189688
56030,158140,37862,190212
56032,158146,37876,190268
56035,158180,37867,190301
56155,158974,37971,191387
56161,158982,37980,191414
56165,158984,37974,191403
56174,159004,37993,191417
56184,159019,38011,191462
56200,159096,38043,191529
56221,159286,38070,191676
56225,159302,38107,191740
56263,159471,38172,191876
56376,159635,38313,192248
56381,159672,38325,192275
56384,159682,38308,192318
56423,159787,38341,192443
56425,159819,38361,192482
56441,159875,38374,192502
56444,159947,38385,192583
56455,160001,38405,192645
56464,160145,38429,192701
56474,160252,38447,192778
56485,160303,38463,192844
56495,160331,38482,192871
56504,160316,38488,192887
56514,160301,38496,192873
56524,160278,38489,192874
56534,160292,38514,192896
56562,160384,38547,192972
56716,161205,38772,193834
56764,162138,38872,194458
56825,162826,38943,195021
56828,162775,38941,194986
56833,162696,38957,194876
56843,162602,38946,194822
56861,162518,38932,194699
56864,162426,38930,194538
56874,162367,38908,194361
56902,162318,38904,194177
56904,162272,38871,194056
56914,162195,38863,193896
56924,162034,38839,193749
56934,161891,38803,193613
56944,161798,38797,193476
56954,161725,38765,193362
56963,161655,38757,193269
56973,161533,38726,193133
56983,161367,38708,192981
57000,161175,38676,192827
57003,161025,38673,192695
57013,160879,38663,192561
57024,160760,38641,192454
57034,160651,38621,192391
57044,160650,38588,192327
57054,160619,38587,192335
57064,160656,38588,192331
57074,160692,38589,192374
57083,160721,38580,192423
57093,160775,38578,192489
57104,160842,38563,192593
57114,160882,38554,192699
57124,160980,38575,192797
57133,161090,38577,192878
57143,161118,38565,192931
57153,161153,38554,192962
57164,161162,38550,192933
57174,161162,38556,192958
57269,161222,38534,193050
57274,161213,38549,193009
57284,161204,38530,193020
57515,161330,38614,193015
57564,161233,38651,193050
58071,161559,39139,193686
58106,162146,39162,193780
58113,162190,39161,193841
58123,162178,39149,193887
58133,162167,39171,193882
58143,162129,39149,193890
58153,162141,39159,193865
58163,162171,39157,193852
58172,162206,39159,193805
58183,162259,39147,193730
58193,162292,39129,193693
58203,162340,39121,193699
58221,162397,39095,193685
58224,162443,39108,193705
58233,162464,39089,193677
58243,162493,39085,193741
58252,162486,39068,193696
58263,162449,39058,193646
58273,162351,39038,193540
58283,162189,39013,193361
58292,162022,38996,193196
58302,161830,38968,193090
58312,161691,38949,192990
58323,161573,38913,192865
58333,161467,38900,192724
58343,161401,38886,192647
58353,161349,38860,192527
58363,161312,38832,192477
58373,161267,38845,192418
58382,161232,38836,192348
58392,161217,38814,192326
58403,161176,38811,192339
58413,161206,38805,192341
58422,161149,38791,192375
58432,161172,38789,192405
58443,161170,38766,192438
58453,161195,38765,192465
58462,161194,38753,192521
58472,161224,38742,192560
58483,161275,38729,192647
58493,161326,38746,192684
58502,161345,38729,192731
58512,161326,38736,192764
58522,161313,38717,192791
58532,161241,38713,192826
58542,161161,38687,192864
58553,161095,38691,192866
58563,161078,38682,192818
58573,161144,38678,192867
58583,161183,38667,192946
58592,161284,38668,193036
58603,161371,38664,193150
58613,161437,38663,193237
58623,161483,38679,193347
58632,161590,38683,193396
58642,161608,38678,193429
58652,161594,38679,193459
58663,161617,38654,193457
58672,161632,38655,193477
58683,161654,38644,193479
58693,161615,38658,193487
58703,161625,38659,193505
58712,161607,38651,193490
58722,161603,38648,193433
58784,161455,38636,193153
58844,161208,38609,192971
58847,161208,38609,192986
58962,161861,38721,193619
59186,160568,38877,193133
59188,160668,38877,193211
59192,160741,38883,193307
59203,160847,38880,193404
59212,160991,38899,193514
59222,161075,38918,193589
59353,162218,39170,194578
59426,163978,39442,195449
59442,164575,39499,195827
59445,164875,39508,196059
59452,165135,39525,196273
59461,165359,39510,196523
59471,165530,39508,196718
59482,165688,39494,196949
59492,165849,39500,197147
59501,166039,39506,197343
59511,166273,39506,197526
59522,166388,39484,197633
59532,166472,39483,197711
59541,166475,39460,197800
59552,166415,39422,197774
59562,166240,39411,197606
59572,165877,39382,197290
59645,163253,39143,194624
59648,163050,39110,194426
59652,162884,39078,194257
59662,162741,39043,194148
59672,162655,39004,194049
59681,162629,38998,193994
59692,162546,38966,194015
59702,162532,38951,194037
59711,162535,38929,194092
59722,162566,38906,194161
59732,162615,38892,194229
59742,162674,38871,194326
59751,162757,38869,194441
59761,162842,38856,194543
59771,162906,38850,194630
59781,162962,38826,194689
59791,162981,38834,194687
59801,162994,38812,194697
59812,162956,38781,194670
59822,162919,38790,194646
59832,162908,38778,194666
59841,162915,38758,194678
59851,162918,38764,194683
59861,162919,38756,194714
59871,162957,38731,194735
59881,162989,38729,194743
59892,162985,38731,194735
59902,162953,38727,194708
59912,162894,38706,194648
59921,162813,38703,194534
59931,162760,38690,194454
59941,162685,38679,194402
59962,162610,38674,194316
59971,162576,38657,194252
59981,162527,38661,194191
60101,162198,38679,193614
60122,162221,38696,193569
60125,162242,38695,193554
60131,162213,38695,193533
60295,161582,38861,193100
60301,159843,38782,191908
60311,158578,38655,191140
60322,157423,38581,190484
60332,156819,38519,190156
60340,156632,38504,189992
60362,156553,38517,189884
60381,156421,38504,189850
60431,157484,38604,190545
60441,157849,38647,190774
60451,158195,38693,191024
60526,159973,38871,192447
60611,161126,39043,193319
60687,161552,39182,193549
60691,161613,39197,193583
60701,161776,39217,193648
60710,162027,39228,193785
60720,162341,39280,193958
60730,162765,39285,194252
60741,163242,39317,194559
60761,164051,39339,195178
60826,163756,39283,195049
60831,163901,39275,195064
60841,163936,39290,194966
60851,163853,39263,194801
60861,163643,39247,194513
60871,163415,39181,194270
60880,163180,39188,194064
60890,162987,39184,193861
60901,162832,39161,193631
60911,162712,39136,193391
60920,162692,39136,193219
60930,162791,39117,193184
60941,162918,39135,193190
60951,162932,39154,193197
60960,162971,39158,193290
60970,163019,39184,193466
60980,163129,39191,193547
60991,163251,39181,193504
61000,163309,39162,193426
61010,163321,39124,193274
61021,163305,39109,193138
61031,163251,39084,193092
61041,163158,39024,193051
61050,163046,39029,193048
61060,162955,38992,193023
61071,162875,38994,193019
61081,162817,38967,193024
61090,162792,38949,193048
61100,162775,38929,193051
61111,162765,38910,193000
61121,162762,38911,193066
61130,162744,38912,193059
61141,162708,38883,193062
61151,162695,38867,193044
61161,162673,38858,193063
61170,162675,38861,193052
61180,162651,38849,193100
61202,162679,38822,193154
61265,162504,38771,193112
61270,162483,38780,193077
61280,162480,38768,193081
61301,162446,38754,193037
61350,162574,38781,193138
61360,162636,38786,193200
61370,162690,38777,193305
61380,162744,38807,193380
61430,162948,38832,193707
61685,161452,38872,193760
61768,161565,38918,193947
61771,161615,38929,193966
61782,161672,38940,193982
61790,161722,38922,194007
61800,161811,38937,194046
61810,161911,38955,194085
61820,161955,38951,194105
61841,162139,38973,194189
61850,162200,38977,194221
61860,162262,38983,194257
61870,162294,39005,194271
62147,163047,38974,194774
62150,163088,38979,194788
62160,163090,38954,194745
62169,163113,38985,194706
62180,163069,38962,194637
62190,163056,38947,194616
62200,163076,38954,194601
62209,163135,38946,194618
62219,163204,38935,194640
62229,163283,38937,194642
62239,163306,38925,194636
62250,163312,38916,194628
62259,163266,38907,194592
62269,163199,38899,194590
62279,163184,38894,194551
62290,163150,38876,194523
62299,163181,38881,194513
62309,163221,38883,194530
62320,163273,38858,194561
62330,163347,38853,194595
62339,163398,38856,194700
62349,163449,38839,194812
62360,163495,38838,194854
62370,163514,38843,194894
62379,163506,38837,194900
62389,163560,38837,194907
62399,163569,38817,194966
62410,163579,38804,194966
62419,163558,38797,194950
62429,163532,38790,194955
62439,163493,38796,194960
62449,163473,38767,194967
62459,163493,38760,194969
62469,163509,38764,194968
62479,163546,38751,194979
62489,163564,38758,195012
62499,163621,38757,195067
62509,163665,38742,195146
62520,163694,38760,195230
62530,163734,38756,195309
62540,163766,38753,195349
62549,163786,38751,195479
62559,163814,38766,195595
62569,163885,38769,195702
62580,163937,38786,195840
62589,164005,38774,195969
62599,164064,38796,196134
62609,164141,38795,196299
62619,164254,38806,196487
62628,164377,38818,196673
62639,164536,38806,196895
62649,164672,38853,197136
62661,164806,38839,197390
62669,164946,38868,197677
62679,165071,38871,197903
62690,165180,38890,198126
62700,165368,38898,198380
62709,165572,38892,198695
62719,165753,38920,198978
62729,166002,38899,199217
62739,166215,38917,199471
62749,166441,38916,199727
62783,167030,38951,200451
62789,167186,38969,200744
62798,167312,38966,201004
62809,167391,38947,201234
62820,167393,38961,201400
62830,167414,38960,201525
62839,167425,38961,201644
62849,167415,38970,201776
62859,167420,38960,201887
62869,167440,38957,201966
62878,167482,38970,202036
62945,167381,38964,202288
62950,167374,38947,202321
62959,167328,38953,202316
62969,167304,38957,202349
62979,167273,38952,202309
62989,167236,38959,202299
62999,167214,38927,202260
63008,167167,38926,202231
63019,167102,38919,202187
63029,167090,38899,202113
63039,167060,38902,202068
63049,167016,38891,202049
63059,166999,38867,202024
63069,166996,38873,201997
63079,167007,38868,201957
63089,167033,38846,201924
63101,167057,38845,201897
63109,167109,38840,201947
63119,167174,38828,201953
63128,167206,38846,201958
63139,167295,38845,201972
63149,167369,38850,201967
63159,167424,38849,201938
63168,167443,38866,201927
63178,167471,38860,201888
63189,167506,38867,201830
63199,167517,38863,201774
63208,167548,38869,201725
63219,167554,38874,201679
63229,167573,38875,201645
63239,167612,38886,201611
63249,167621,38890,201560
63258,167648,38892,201549
63268,167642,38898,201515
63279,167659,38903,201483
63289,167689,38905,201453
63298,167685,38925,201431
63309,167685,38921,201399
63319,167690,38916,201385
63329,167691,38930,201361
63338,167713,38947,201354
63348,167694,38933,201347
63358,167687,38939,201359
63369,167724,38910,201367
63379,167713,38919,201384
63389,167720,38928,201369
63401,167706,38948,201408
63409,167750,38954,201419
63418,167759,38963,201422
63428,167787,38935,201424
63438,167791,38958,201450
63449,167801,38964,201426
63460,167812,38959,201468
63468,167802,38974,201478
63478,167786,38972,201481
63489,167801,38974,201483
63499,167809,38960,201484
63508,167822,38987,201506
63518,167823,38977,201510
63528,167840,38997,201542
63539,167838,39000,201540
63548,167858,39000,201530
63558,167888,39006,201547
63569,167880,38992,201549
63579,167865,39008,201560
63588,167910,39025,201576
63598,167912,39006,201579
63608,167907,39024,201591
63618,167911,39027,201597
63628,167930,39032,201614
63638,167914,39030,201624
63648,167922,39038,201615
63658,167916,39042,201640
63668,167904,39019,201629
63678,167891,39045,201608
63689,167877,39037,201644
63699,167872,39031,201654
63708,167837,39051,201645
63718,167799,39043,201616
63728,167782,39034,201603
63738,167776,39039,201591
63749,167726,39026,201577
63758,167744,39016,201537
63768,167723,39012,201548
63781,167715,39024,201546
63788,167707,38989,201548
63798,167699,38998,201542
63809,167687,38994,201528
63819,167676,38972,201495
63829,167663,38988,201520
63838,167649,38980,201524
63848,167669,38967,201522
63858,167660,38957,201497
63869,167661,38975,201516
63878,167657,38959,201510
63888,167661,38958,201514
63898,167653,38955,201482
63908,167649,38956,201491
63917,167655,38968,201486
63928,167639,38932,201477
63938,167632,38955,201477
63948,167621,38963,201473
63958,167622,38962,201472
63968,167630,38965,201499
63978,167643,38962,201467
63988,167663,38939,201487
63999,167633,38960,201498
64007,167645,38966,201495
64018,167642,38958,201491
64029,167619,38975,201485
64039,167635,38966,201457
64047,167617,38967,201487
64058,167619,38949,201469
64068,167609,38966,201452
64078,167579,38978,201456
64088,167604,38975,201441
64101,167591,38979,201449
64108,167597,38980,201430
64118,167581,38979,201431
64128,167589,38948,201419
64138,167571,38986,201403
64148,167581,38971,201396
64158,167601,39001,201400
64167,167570,38986,201394
64177,167572,39002,201401
64188,167595,38990,201398
64199,167577,38994,201397
64208,167593,39001,201405
64218,167607,39004,201394
64228,167601,39017,201387
64238,167600,39021,201380
64249,167615,39010,201371
64258,167629,39018,201374
64268,167637,39027,201392
64278,167650,39021,201408
64288,167650,39035,201400
64297,167671,39056,201407
64308,167672,39038,201411
64318,167672,39047,201391
64328,167662,39042,201417
64337,167669,39056,201420
64348,167669,39066,201401
64358,167642,39061,201392
64368,167629,39060,201412
64377,167652,39073,201397
64388,167633,39077,201379
64398,167610,39079,201362
64408,167636,39081,201359
64417,167620,39052,201370
64428,167612,39079,201356
64438,167600,39078,201347
64448,167612,39076,201343
64458,167600,39063,201327
64467,167606,39063,201333
64477,167607,39059,201339
64488,167610,39057,201347
64498,167613,39043,201309
64507,167605,39051,201326
64517,167608,39052,201326
64528,167623,39042,201342
64538,167624,39060,201348
64548,167686,39072,201356
64558,167741,39085,201357
64568,167765,39081,201390
64578,167834,39111,201409
64587,167900,39113,201457
64597,167943,39119,201476
64607,167958,39136,201523
64617,168019,39145,201553
64627,168043,39134,201562
64638,168033,39151,201605
64648,168061,39160,201597
64658,168046,39173,201609
64667,168062,39171,201613
64678,168061,39170,201610
64688,168043,39166,201591
64698,168014,39170,201572
64708,168003,39175,201581
64718,168007,39172,201572
64728,167975,39163,201546
64738,167967,39173,201510
64747,167931,39173,201510
64757,167908,39165,201495
64768,167895,39168,201486
64778,167883,39161,201455
64787,167868,39179,201447
64797,167843,39159,201436
64808,167816,39177,201417
64818,167803,39171,201411
64827,167777,39169,201418
64837,167786,39150,201376
64848,167774,39157,201355
64858,167757,39160,201367
64868,167734,39165,201362
64877,167742,39173,201363
64887,167741,39169,201358
64897,167711,39170,201356
64908,167718,39171,201356
64917,167708,39175,201341
64927,167705,39180,201333
64938,167705,39166,201338
64948,167701,39182,201293
64958,167703,39183,201314
64967,167703,39192,201328
64977,167706,39198,201330
64987,167727,39189,201320
64998,167723,39192,201330
65007,167718,39198,201323
65017,167719,39196,201307
65028,167715,39211,201333
65038,167725,39222,201312
65047,167705,39236,201319
65057,167714,39209,201287
65067,167719,39228,201304
65077,167713,39228,201326
65087,167713,39234,201316
65097,167700,39222,201332
65108,167719,39224,201319
65118,167714,39230,201309
65127,167697,39228,201310
65141,167707,39238,201286
65147,167709,39222,201301
65157,167692,39217,201300
65167,167705,39207,201305
65177,167686,39219,201263
65188,167677,39226,201292
65198,167690,39207,201283
65208,167681,39197,201274
65217,167678,39212,201280
65227,167654,39199,201264
65237,167651,39205,201278
65248,167667,39192,201277
65257,167670,39196,201245
65267,167641,39185,201254
65277,167639,39210,201247
65287,167649,39191,201251
65296,167655,39208,201260
65307,167644,39189,201259
65317,167649,39181,201243
65328,167641,39202,201230
65337,167626,39202,201223
65347,167628,39201,201229
65357,167622,39207,201218
65368,167611,39208,201224
65377,167614,39205,201199
65387,167613,39225,201241
65397,167604,39196,201240
65407,167616,39205,201215
65416,167614,39213,201212
65427,167575,39213,201228
65437,167581,39207,201200
65447,167584,39215,201222
65458,167586,39206,201223
65466,167581,39209,201198
65476,167571,39210,201183
65487,167567,39217,201196
65498,167583,39210,201188
65507,167563,39216,201175
65517,167559,39215,201188
65527,167550,39227,201178
65538,167547,39231,201175
65546,167538,39227,201183
65557,167539,39225,201164
65567,167530,39228,201182
65577,167531,39208,201139
65587,167514,39243,201149
65597,167503,39239,201148
65607,167506,39244,201151
65617,167500,39240,201138
65626,167501,39238,201150
65637,167500,39236,201128
65646,167504,39249,201116
65657,167496,39247,201152
65666,167504,39262,201119
65677,167493,39248,201139
65686,167499,39260,201127
65697,167478,39252,201132
65707,167494,39262,201124
65717,167466,39277,201131
65726,167490,39272,201112
65737,167481,39278,201128
65748,167485,39280,201140
65757,167478,39284,201115
65767,167451,39279,201124
65777,167474,39274,201113
65787,167461,39270,201114
65796,167461,39286,201097
65807,167460,39289,201087
65817,167455,39273,201097
65827,167459,39281,201089
65836,167459,39267,201087
65846,167432,39285,201066
65856,167447,39265,201067
65867,167447,39260,201064
65876,167442,39263,201057
65887,167430,39261,201046
65897,167418,39256,201042
65907,167424,39256,201060
65916,167417,39250,201043
65927,167414,39256,201046
65937,167417,39255,201015
65947,167410,39229,201037
65957,167399,39258,201016
65966,167418,39256,201031
65976,167382,39251,201046
65987,167392,39252,201025
65997,167391,39236,201032
66006,167400,39238,201027
66016,167400,39250,201034
66027,167368,39254,201021
66037,167388,39232,201015
66046,167376,39245,201028
66057,167402,39246,200999
66067,167379,39260,201011
66077,167390,39252,200969
66086,167373,39243,200990
66096,167386,39232,201003
66107,167381,39251,200990
66117,167378,39242,201006
66126,167385,39254,200983
66136,167375,39248,200962
66146,167368,39250,200997
66156,167365,39254,200966
66166,167350,39261,200977
66176,167341,39247,200970
66186,167349,39267,200960
66196,167349,39257,200973
66207,167351,39273,200965
66216,167351,39257,200970
66226,167361,39272,200945
66236,167346,39265,200945
66247,167350,39268,200954
66256,167352,39284,200958
66266,167373,39249,200943
66277,167343,39280,200962
66286,167336,39280,200951
66296,167333,39280,200943
66306,167336,39278,200923
66317,167338,39285,200943
66327,167332,39269,200944
66336,167336,39291,200927
66346,167328,39303,200947
66357,167332,39289,200935
66367,167327,39306,200939
66376,167327,39305,200938
66386,167325,39290,200926
66396,167319,39320,200925
66406,167314,39316,200915
66416,167311,39317,200927
66426,167287,39328,200932
66436,167309,39320,200913
66446,167296,39310,200912
66457,167313,39303,200935
66465,167306,39330,200900
66476,167295,39325,200898
66487,167292,39338,200914
66497,167300,39338,200889
66506,167294,39339,200892
66516,167277,39340,200890
66526,167291,39340,200899
66536,167287,39333,200881
66546,167263,39343,200873
66556,167295,39319,200844
66566,167289,39320,200866
66577,167279,39311,200869
66586,167283,39317,200872
66596,167280,39327,200870
66607,167277,39316,200867
66617,167287,39313,200877
66626,167283,39297,200879
66636,167276,39304,200858
66646,167263,39311,200864
66656,167285,39300,200837
66666,167290,39316,200851
66676,167291,39282,200850
66686,167280,39308,200852
66696,167270,39306,200842
66707,167267,39314,200855
66716,167280,39304,200838
66726,167252,39301,200839
66736,167262,39311,200844
66746,167261,39316,200836
66756,167256,39328,200844
66765,167267,39326,200835
66776,167272,39292,200841
66787,167255,39307,200811
66796,167265,39311,200811
66806,167261,39311,200811
66816,167245,39303,200784
66826,167257,39307,200817
66835,167232,39306,200801
66846,167240,39295,200808
66861,167238,39317,200803
66866,167250,39311,200809
66875,167226,39307,200801
66886,167234,39297,200791
66896,167229,39318,200763
66906,167200,39317,200790
66916,167224,39326,200777
66926,167219,39318,200789
66936,167222,39323,200796
66946,167215,39318,200792
66956,167221,39307,200759
66965,167217,39324,200784
66975,167227,39328,200769
66986,167206,39329,200768
66996,167208,39329,200785
67006,167203,39320,200769
67016,167211,39330,200752
67026,167188,39342,200759
67036,167201,39332,200728
67046,167191,39346,200761
67056,167209,39340,200755
67066,167196,39333,200744
67076,167196,39343,200749
67085,167218,39348,200763
67095,167183,39347,200734
67105,167178,39346,200742
67116,167187,39360,200760
67125,167189,39362,200735
67136,167188,39345,200731
67146,167185,39356,200728
67156,167169,39359,200736
67166,167162,39365,200729
67175,167182,39373,200725
67186,167162,39363,200729
67196,167164,39370,200717
67206,167157,39362,200715
67215,167157,39381,200727
67225,167160,39378,200720
67235,167161,39367,200704
67246,167149,39393,200694
67255,167162,39365,200702
67265,167132,39379,200676
67275,167144,39346,200686
67286,167140,39367,200675
67295,167136,39368,200671
67306,167134,39362,200667
67316,167146,39368,200675
67326,167128,39374,200672
67335,167100,39363,200664
67345,167123,39358,200655
67355,167113,39350,200658
67366,167125,39347,200670
67375,167099,39341,200655
67385,167111,39345,200636
67395,167085,39338,200631
67406,167114,39335,200631
67416,167109,39316,200630
67425,167101,39324,200643
67436,167105,39332,200626
67446,167091,39331,200604
67456,167089,39326,200594
67465,167082,39336,200612
67475,167090,39333,200595
67485,167094,39326,200609
67495,167093,39341,200615
67505,167083,39309,200611
67515,167074,39327,200619
67525,167081,39327,200599
67536,167070,39325,200600
67545,167072,39326,200608
67555,167088,39325,200591
67565,167073,39326,200577
67575,167065,39320,200576
67584,167061,39313,200564
67595,167040,39330,200576
67606,167072,39334,200567
67616,167043,39333,200572
67625,167036,39339,200580
67635,167048,39332,200535
67646,167050,39329,200558
67656,167055,39336,200550
67666,167021,39329,200562
67675,167040,39325,200550
67685,167055,39329,200556
67695,167040,39323,200568
67706,167049,39316,200559
67715,167021,39339,200554
67725,167033,39347,200551
67735,167058,39338,200551
67745,167016,39331,200545
67755,167037,39336,200532
67764,167039,39352,200547
67775,167040,39339,200525
67785,167020,39351,200538
67795,167028,39342,200522
67804,167007,39342,200533
67815,167034,39335,200523
67826,166985,39355,200505
67835,167008,39339,200505
67845,167016,39337,200531
67855,166992,39359,200526
67865,167002,39364,200494
67875,166988,39345,200494
67885,167003,39354,200502
67895,166992,39358,200499
67905,167005,39358,200487
67915,166999,39362,200490
67924,166991,39352,200499
67935,166983,39367,200496
67945,167006,39380,200499
67955,166984,39348,200482
67964,166987,39362,200512
67975,166965,39375,200486
67985,166975,39372,200482
67996,166963,39379,200477
68005,166970,39375,200475
68015,166966,39367,200441
68025,166969,39365,200465
68041,166950,39369,200442
68045,166966,39365,200450
68055,166950,39358,200434
68065,166967,39354,200430
68075,166986,39362,200457
68085,166955,39347,200446
68095,166960,39346,200432
68105,166953,39339,200438
68115,166950,39332,200444
68125,166938,39328,200436
68135,166930,39315,200435
68145,166944,39327,200421
68155,166950,39327,200432
68165,166937,39320,200395
68174,166935,39308,200382
68184,166929,39313,200411
68195,166943,39314,200421
68206,166915,39306,200399
68215,166918,39316,200405
68225,166905,39318,200412
68235,166919,39312,200394
68245,166923,39295,200377
68254,166927,39310,200402
68265,166897,39304,200390
68275,166912,39299,200382
68285,166910,39295,200391
68294,166910,39314,200387
68304,166921,39286,200399
68314,166922,39301,200385
68325,166917,39307,200392
68334,166924,39303,200369
68344,166921,39294,200375
68355,166910,39276,200383
68364,166893,39295,200370
68375,166917,39301,200353
68385,166914,39299,200362
68395,166894,39302,200358
68405,166894,39291,200366
68415,166888,39293,200339
68424,166892,39299,200333
68434,166888,39289,200343
68445,166877,39296,200338
68455,166856,39297,200329
68464,166876,39300,200308
68474,166880,39299,200350
68484,166872,39286,200327
68495,166875,39279,200339
68505,166853,39301,200315
68515,166850,39300,200325
68525,166848,39298,200325
68535,166844,39302,200317
68544,166853,39304,200311
68554,166837,39302,200325
68564,166852,39308,200295
68574,166855,39309,200324
68584,166857,39307,200299
68595,166836,39310,200308
68605,166843,39300,200292
68615,166825,39297,200257
68625,166825,39296,200298
68634,166824,39320,200302
68645,166840,39309,200275
68655,166835,39318,200276
68665,166820,39309,200258
68674,166808,39326,200273
68685,166816,39305,200284
68695,166812,39305,200260
68705,166792,39307,200266
68714,166802,39327,200265
68724,166797,39316,200257
68734,166816,39320,200237
68745,166788,39324,200236
68754,166786,39323,200220
68764,166792,39324,200232
68774,166779,39325,200234
68785,166793,39325,200237
68794,166774,39315,200189
68804,166749,39322,200221
68814,166765,39304,200209
68825,166757,39317,200206
68834,166758,39288,200197
68844,166766,39281,200185
68854,166776,39288,200214
68864,166777,39270,200204
68875,166775,39280,200212
68883,166763,39273,200200
68894,166769,39252,200190
68904,166765,39271,200178
68915,166756,39259,200200
68923,166765,39257,200190
68934,166761,39230,200168
68944,166743,39237,200167
68955,166751,39229,200166
68964,166740,39235,200164
68974,166709,39253,200176
68984,166720,39242,200173
68994,166714,39237,200170
69004,166734,39244,200174
69014,166718,39224,200161
69024,166705,39226,200151
69034,166723,39243,200131
69043,166723,39231,200151
69053,166726,39251,200147
69064,166709,39225,200139
69075,166695,39234,200143
69084,166694,39232,200115
69094,166686,39229,200100
69104,166686,39218,200128
69114,166678,39229,200135
69125,166690,39233,200123
69134,166656,39214,200113
69144,166684,39215,200105
69154,166687,39220,200100
69164,166700,39223,200123
69173,166687,39214,200121
69184,166674,39213,200099
69194,166682,39227,200123
69205,166678,39208,200093
69214,166652,39211,200092
69224,166673,39207,200092
69234,166672,39218,200087
69244,166657,39220,200094
69253,166666,39223,200092
69264,166643,39229,200075
69274,166653,39223,200084
69284,166645,39238,200084
69293,166654,39216,200048
69304,166635,39199,200062
69314,166639,39225,200061
69324,166635,39210,200069
69333,166640,39212,200058
69344,166626,39218,200054
69361,166639,39221,200027
69364,166634,39219,200071
69374,166629,39214,200023
69384,166591,39214,200038
69394,166603,39216,200050
69404,166620,39229,200043
69414,166612,39221,200037
69423,166616,39223,200030
69433,166598,39221,200030
69444,166587,39222,200035
69454,166599,39237,200013
69463,166592,39219,200030
69474,166591,39227,200013
69502,166594,39236,200002
69504,166589,39238,200014
69513,166593,39247,199957
69524,166589,39207,200002
69541,166574,39226,199978
69543,166566,39235,199983
69554,166571,39205,199941
69564,166567,39217,199966
69574,166571,39224,199974
69584,166570,39207,199951
69594,166561,39214,199956
69604,166557,39195,199972
69614,166540,39173,199957
69624,166554,39195,199953
69633,166557,39178,199939
69643,166543,39154,199937
69654,166539,39164,199946
69682,166537,39154,199945
69684,166522,39157,199928
69693,166522,39153,199877
69704,166537,39151,199922
69713,166521,39149,199927
69724,166510,39146,199902
69734,166513,39136,199895
69744,166511,39139,199909
69753,166469,39126,199890
69764,166502,39132,199892
69774,166494,39130,199886
69784,166492,39117,199881
69793,166495,39130,199870
69803,166479,39135,199871
69814,166467,39129,199858
69823,166482,39129,199860
69833,166482,39127,199857
69844,166469,39123,199846
69854,166453,39111,199831
69864,166454,39131,199854
69874,166452,39123,199857
69883,166459,39120,199852
69894,166442,39110,199843
69904,166452,39113,199816
69914,166427,39110,199819
69923,166430,39093,199815
69933,166429,39100,199808
69943,166432,39097,199829
69954,166431,39119,199818
69963,166414,39118,199795
69974,166435,39106,199814
69984,166424,39112,199804
69994,166407,39109,199786
70003,166389,39103,199808
70013,166420,39110,199787
70023,166403,39107,199780
70033,166394,39113,199758
70042,166397,39106,199770
70053,166408,39094,199771
70063,166369,39123,199772
70074,166370,39093,199762
70083,166367,39105,199747
70093,166373,39134,199754
70103,166369,39114,199734
70113,166388,39106,199739
70124,166350,39123,199758
70133,166352,39113,199734
70143,166331,39118,199739
70154,166337,39120,199718
70164,166343,39118,199710
70173,166341,39114,199723
70183,166336,39115,199735
70193,166323,39120,199697
70203,166293,39127,199727
70212,166333,39118,199723
70223,166309,39111,199705
70234,166335,39117,199701
70244,166310,39115,199672
70253,166292,39113,199694
70263,166295,39122,199689
70273,166284,39133,199677
70283,166287,39128,199671
70293,166312,39120,199677
70303,166283,39131,199641
70313,166267,39112,199654
70323,166255,39117,199648
70341,166283,39108,199638
70343,166273,39108,199638
70353,166258,39099,199630
70364,166245,39096,199615
70374,166261,39091,199583
70383,166241,39086,199609
70393,166230,39090,199598
70403,166241,39062,199588
70413,166257,39061,199608
70423,166232,39058,199592
70433,166231,39071,199588
70443,166212,39051,199584
70453,166218,39035,199581
70463,166219,39031,199560
70473,166210,39031,199574
70483,166202,39036,199537
70493,166170,39021,199550
70502,166177,39025,199540
70513,166181,39001,199543
70523,166183,39012,199527
70533,166189,39006,199535
70542,166173,39001,199527
70552,166174,39006,199539
70563,166148,39013,199533
70573,166171,39019,199518
70583,166132,38998,199522
70593,166161,38995,199523
70602,166139,38991,199499
70613,166129,38985,199503
70624,166136,38990,199522
70633,166115,38989,199472
70643,166124,39015,199487
70653,166130,38984,199481
70663,166109,38991,199483
70672,166123,38982,199482
70682,166122,38993,199475
70693,166110,38966,199442
70704,166084,38977,199446
70713,166063,38977,199428
70723,166084,38993,199439
70733,166082,38978,199431
70743,166086,38987,199437
70753,166053,38977,199440
70763,166078,38959,199410
70773,166058,38977,199391
70783,166037,38975,199413
70792,166051,38968,199402
70803,166037,38984,199385
70813,166022,38979,199376
70823,166043,38968,199388
70840,166005,38978,199399
70843,166032,38971,199385
70853,166020,39006,199347
70863,166006,38979,199354
70874,166020,38983,199381
70883,166005,38982,199358
70893,165982,38996,199353
70903,165985,38971,199352
70913,165991,38975,199338
70922,165980,38969,199343
70932,165957,38975,199318
70943,165984,38981,199343
70953,165978,38988,199354
70962,165955,38989,199321
70972,165966,38977,199322
70983,165945,38985,199293
70993,165958,38972,199300
71002,165935,38986,199294
71021,165937,38982,199279
71024,165932,38989,199291
71033,165927,38976,199271
71042,165927,38987,199309
71052,165916,38972,199293
71063,165904,38979,199257
71073,165909,38996,199252
71083,165899,39002,199272
71092,165898,38996,199229
71102,165871,38996,199240
71113,165891,38993,199247
71123,165880,38985,199225
71132,165866,38967,199232
71143,165884,38944,199216
71161,165864,38947,199177
71164,165879,38946,199210
71172,165863,38919,199170
71182,165855,38934,199190
71192,165839,38922,199159
71203,165842,38921,199170
71212,165831,38916,199160
71222,165828,38917,199166
71232,165823,38904,199163
71243,165834,38891,199147
71252,165812,38891,199165
71262,165827,38887,199155
71273,165796,38875,199131
71283,165789,38883,199142
71292,165779,38874,199120
71303,165769,38878,199136
71313,165774,38877,199116
71323,165777,38879,199108
71333,165773,38860,199111
71342,165756,38864,199096
71352,165749,38862,199112
71363,165757,38874,199064
71373,165739,38868,199055
71382,165732,38865,199069
71392,165711,38857,199059
71402,165744,38876,199067
71413,165728,38865,199060
71422,165715,38858,199047
71433,165707,38858,199039
71442,165707,38856,199040
71453,165683,38848,199028
71462,165695,38849,199034
71472,165689,38848,199007
71482,165666,38855,199005
71523,165667,38845,199001
71525,165650,38849,198996
71533,165669,38847,198975
71541,165644,38850,198985
71552,165641,38848,198976
71563,165650,38855,198977
71573,165639,38851,198986
71583,165606,38856,198975
71592,165617,38863,198950
71602,165601,38839,198929
71612,165599,38861,198944
71622,165593,38862,198917
71631,165588,38858,198934
71642,165571,38854,198915
71663,165564,38847,198910
71672,165555,38834,198918
71682,165568,38862,198863
71693,165534,38842,198903
71702,165554,38861,198857
71712,165527,38853,198876
71722,165549,38850,198860
71732,165503,38853,198874
71743,165520,38861,198850
71752,165520,38860,198862
71762,165497,38862,198850
71772,165484,38870,198827
71782,165510,38875,198839
71791,165503,38869,198843
71802,165499,38882,198837
71812,165489,38880,198803
71822,165482,38880,198834
71833,165478,38857,198825
71842,165466,38878,198802
71852,165463,38877,198817
71862,165446,38864,198793
71982,165397,38808,198714
71984,165376,38819,198716
71992,165361,38829,198655
72001,165386,38814,198689
72011,165379,38793,198668
72022,165372,38800,198677
72032,165374,38807,198635
72041,165363,38763,198661
72051,165357,38776,198647
72061,165347,38765,198650
72072,165345,38752,198643
72082,165353,38762,198624
72092,165318,38770,198648
72102,165317,38773,198630
72121,165318,38741,198604
72123,165290,38752,198616
72140,165290,38753,198599
72143,165290,38767,198606
72161,165274,38762,198575
72164,165276,38759,198587
72171,165270,38745,198577
72182,165264,38753,198575
72192,165263,38755,198574
72202,165232,38758,198552
72212,165240,38732,198547
72222,165229,38750,198526
72232,165217,38747,198526
72242,165211,38744,198527
72251,165226,38730,198515
72261,165203,38757,198512
72271,165188,38749,198512
72282,165188,38738,198485
72291,165165,38780,198503
72301,165152,38733,198483
72311,165172,38758,198478
72322,165159,38749,198471
72332,165142,38746,198456
72342,165141,38748,198455
72382,165127,38732,198438
72384,165125,38748,198438
72392,165115,38741,198408
72402,165097,38752,198406
72412,165104,38749,198402
72421,165094,38755,198401
72431,165088,38753,198418
72442,165102,38753,198406
72452,165089,38789,198401
72461,165075,38742,198375
72471,165066,38767,198392
72481,165043,38761,198353
72492,165054,38751,198343
72501,165046,38753,198324
72512,165049,38751,198345
72522,165037,38762,198338
72642,164979,38789,198291
72644,164965,38785,198255
72651,164949,38792,198267
72662,164952,38785,198241
72671,164950,38798,198226
72681,164942,38770,198232
72691,164940,38805,198200
72702,164929,38787,198229
72711,164925,38741,198242
72721,164922,38783,198174
72742,164926,38767,198191
72762,164901,38736,198179
72771,164914,38724,198179
72781,164882,38730,198165
72802,164886,38715,198153
72811,164881,38721,198141
72822,164877,38710,198139
72832,164872,38712,198113
72841,164869,38711,198106
72851,164858,38689,198119
72861,164848,38709,198110
72871,164853,38705,198100
72881,164847,38686,198092
72891,164844,38687,198079
72902,164824,38697,198075
72922,164821,38688,198070
72931,164821,38700,198055
72942,164816,38679,198015
72952,164794,38686,198042
72961,164787,38676,198034
72971,164776,38697,198003
72981,164780,38690,197986
72991,164784,38674,198019
73001,164748,38674,198002
73011,164764,38682,197993
73022,164766,38679,197987
73032,164744,38695,197996
73041,164756,38675,197958
73051,164729,38683,197963
73061,164728,38684,197966
73071,164738,38660,197968
73082,164742,38678,197949
73091,164718,38679,197951
73101,164718,38673,197941
73111,164706,38696,197933
73121,164704,38679,197926
73130,164704,38681,197907
73141,164701,38669,197919
73151,164695,38666,197907
73162,164668,38666,197878
73171,164652,38695,197895
73181,164650,38682,197868
73191,164661,38678,197898
73202,164655,38682,197876
73211,164649,38689,197845
73221,164627,38682,197850
73231,164627,38693,197851
73241,164625,38685,197845
73251,164601,38687,197856
73261,164609,38704,197833
73271,164601,38694,197810
73281,164599,38702,197835
73291,164582,38678,197799
73301,164571,38698,197803
73311,164574,38716,197790
73321,164589,38709,197794
73331,164548,38703,197775
73341,164549,38699,197763
73351,164552,38714,197777
73361,164544,38722,197760
73371,164533,38730,197753
73381,164548,38702,197754
73391,164517,38720,197731
73401,164526,38709,197729
73411,164513,38715,197743
73420,164500,38698,197717
73431,164494,38716,197690
73441,164504,38720,197680
73451,164476,38732,197695
73461,164486,38720,197693
73471,164480,38746,197698
73481,164467,38719,197686
73491,164461,38736,197674
73500,164457,38734,197668
73510,164453,38730,197657
73521,164435,38733,197680
73531,164449,38723,197643
73541,164444,38723,197645
73551,164439,38716,197625
73560,164422,38728,197618
73571,164404,38744,197608
73582,164413,38726,197586
73591,164382,38722,197593
73601,164413,38718,197597
73611,164399,38705,197578
73621,164380,38693,197568
73630,164399,38688,197561
73640,164392,38696,197558
73650,164389,38710,197561
73661,164374,38676,197522
73670,164369,38673,197537
73681,164374,38671,197526
73691,164356,38664,197495
73701,164361,38672,197531
73710,164347,38654,197504
73720,164319,38668,197492
73730,164303,38660,197491
73741,164316,38646,197478
73750,164313,38659,197478
73761,164298,38647,197456
73771,164292,38643,197457
73781,164294,38660,197437
73791,164289,38650,197425
73800,164275,38644,197431
73810,164259,38652,197409
73821,164245,38641,197400
73831,164251,38664,197422
73840,164240,38655,197385
73850,164221,38646,197401
73860,164235,38644,197397
73871,164217,38648,197360
73881,164213,38639,197369
73891,164218,38643,197347
73901,164172,38650,197340
73911,164184,38665,197327
73920,164172,38649,197332
73930,164182,38627,197314
73941,164165,38634,197296
73950,164149,38647,197300
73961,164149,38642,197311
73970,164128,38642,197284
73981,164130,38641,197266
73991,164124,38645,197271
74000,164120,38637,197268
74010,164115,38642,197254
74021,164091,38644,197238
74031,164092,38634,197255
74041,164092,38640,197248
74050,164091,38659,197222
74060,164097,38654,197232
74070,164053,38661,197220
74081,164060,38657,197201
74090,164043,38659,197182
74101,164046,38649,197192
74111,164044,38658,197174
74121,164051,38661,197170
74130,164013,38673,197172
74140,164032,38643,197166
74150,164012,38671,197148
74160,164022,38660,197152
74169,164013,38683,197160
74181,164018,38661,197144
74191,163993,38674,197151
74201,164010,38670,197131
74210,163981,38674,197129
74220,163997,38677,197136
74230,163992,38672,197134
74240,163984,38687,197141
74250,164003,38688,197110
74260,163966,38691,197102
74270,163961,38673,197081
74281,163975,38693,197083
74291,163959,38689,197101
74300,163953,38694,197072
74310,163949,38706,197079
74320,163951,38699,197067
74330,163943,38707,197058
74339,163919,38697,197038
74350,163937,38705,197043
74361,163911,38710,197043
74371,163908,38715,197009
74380,163906,38699,197030
74390,163891,38686,197028
74400,163888,38696,197011
74410,163888,38703,196986
74419,163898,38697,196971
74429,163883,38693,196984
74441,163880,38678,196981
74451,163861,38685,196983
74460,163861,38683,196964
74470,163857,38677,196959
74481,163852,38666,196966
74490,163843,38653,196947
74500,163838,38659,196936
74510,163806,38653,196926
74520,163823,38647,196919
74530,163793,38655,196920
74541,163806,38643,196916
74562,163783,38652,196902
74570,163782,38648,196886
74580,163769,38632,196894
74589,163770,38649,196850
74601,163736,38649,196858
74610,163745,38647,196851
74620,163729,38636,196853
74629,163722,38643,196828
74639,163720,38640,196822
74650,163695,38649,196825
74661,163696,38648,196808
74670,163680,38655,196814
74680,163656,38650,196800
74690,163665,38647,196788
