timestamp,red,green,ir,,,,
18588,157578,37679,192465,,,,
18598,157598,37690,192498,,,, 
18608,157616,37683,192508,,,,
18618,157676,37659,192527,,,,
18628,157672,37650,192551,,,,
18638,157673,37665,192542,,,,
18649,157674,37667,192543,,,,
18659,157676,37682,192539,,,,
18668,157646,37658,192545,,,,
18678,157666,37643,192527,,,,
18689,157660,37652,192522,,,,
18699,157665,37657,192494,,,,
18708,157676,37665,192507,,,,
18718,157674,37651,192515,,,,
18728,157680,37635,192529,,,,
18738,157711,37616,192533,,,,
18749,157720,37641,192558,,,,
18758,157726,37648,192539,,,,
18769,157679,37641,192527,,,,
18779,157661,37649,192508,,,,
18789,157648,37641,192488,,,,
18798,157650,37620,192469,,,,
18809,157639,37629,192454,,,,
18819,157624,37632,192452,,,,
18829,157633,37633,192457,,,,
18838,157624,37605,192447,,,,
18849,157628,37631,192423,,,,
18859,157631,37627,192408,,,,
18869,157626,37639,192417,,,,
18878,157625,37636,192391,,,,
18888,157619,37650,192389,,,,
18898,157628,37659,192389,,,,
18909,157613,37648,192368,,,,
18918,157600,37642,192379,,,,
18928,157613,37644,192381,,,,
18938,157620,37632,192375,,,,
18948,157591,37652,192348,,,,
18958,157593,37629,192356,,,,
18968,157570,37659,192339,,,,
18978,157569,37619,192309,,,,
18989,157551,37650,192289,,,,
18999,157520,37661,192278,,,,
19008,157496,37646,192233,,,,
19018,157475,37650,192243,,,,
19029,157488,37651,192221,,,,
19039,157462,37667,192191,,,,
19048,157437,37655,192175,,,,
19058,157420,37666,192169,,,,
19069,157421,37634,192142,,,,
19079,157389,37658,192113,,,,
19088,157389,37656,192098,,,,
19098,157365,37646,192077,,,,
19108,157372,37646,192089,,,,
19118,157389,37657,192104,,,,
19128,157382,37636,192070,,,,
19138,157359,37650,192046,,,,
19148,157348,37647,192033,,,,
19158,157332,37649,192022,,,,
19168,157311,37637,191987,,,,
19177,157303,37638,191959,,,,
19189,157285,37621,191957,,,,
19198,157290,37650,191922,,,,
19208,157239,37631,191931,,,,
19218,157257,37635,191866,,,,
19229,157253,37635,191865,,,,
19239,157268,37660,191891,,,,
19249,157271,37643,191855,,,,
19258,157249,37639,191875,,,,
19268,157272,37650,191891,,,,
19278,157290,37648,191898,,,,
19288,157278,37630,191904,,,,
19298,157280,37653,191904,,,,
19308,157304,37645,191902,,,,
19318,157277,37660,191903,,,,
19329,157278,37653,191896,,,,
19338,157282,37640,191903,,,,
19348,157288,37643,191879,,,,
19358,157277,37644,191866,,,,
19368,157261,37644,191855,,,,
19377,157250,37645,191875,,,,
19388,157266,37640,191865,,,,
19397,157269,37669,191854,,,,
19409,157272,37642,191858,,,,
19418,157274,37667,191869,,,,
19428,157266,37659,191876,,,,
19438,157293,37646,191884,,,,
19449,157296,37661,191894,,,,
19458,157306,37655,191889,,,,
19468,157292,37662,191899,,,,
19478,157305,37659,191905,,,,
19488,157321,37651,191894,,,,
19498,157332,37674,191884,,,,
19507,157318,37663,191893,,,,
19518,157315,37666,191880,,,,
19528,157315,37653,191891,,,,
19538,157315,37661,191903,,,,
19548,157349,37660,191912,,,,
19558,157351,37633,191906,,,,
19568,157353,37646,191913,,,,
19578,157372,37640,191913,,,,
19588,157342,37637,191925,,,,
19597,157375,37625,191905,,,,
19608,157398,37595,191925,,,,
19618,157386,37616,191901,,,,
19628,157401,37617,191927,,,,
19638,157393,37613,191922,,,,
19648,157390,37615,191891,,,,
19658,157370,37618,191904,,,,
19667,157379,37592,191917,,,,
19677,157384,37596,191889,,,,
19688,157379,37598,191889,,,,
19697,157364,37581,191891,,,,
19708,157380,37569,191879,,,,
19717,157372,37595,191877,,,,
19728,157388,37572,191867,,,,
19738,157395,37592,191863,,,,
19748,157387,37587,191865,,,,
19757,157369,37594,191886,,,,
19767,157396,37592,191869,,,,
19777,157389,37600,191858,,,,
19789,157370,37588,191878,,,,
19797,157380,37591,191868,,,,
19808,157361,37584,191852,,,,
19818,157382,37581,191855,,,,
19828,157372,37578,191847,,,,
19837,157382,37585,191837,,,,
19847,157372,37586,191838,,,,
19857,157384,37592,191838,,,,
19868,157376,37567,191847,,,,
19877,157382,37591,191830,,,,
19887,157400,37585,191856,,,,
19897,157391,37583,191841,,,,
19907,157381,37600,191855,,,,
19917,157407,37593,191867,,,,
19927,157392,37601,191838,,,,
19937,157395,37590,191846,,,,
19948,157396,37590,191845,,,,
19957,157376,37591,191824,,,,
19967,157378,37595,191808,,,,
19990,157375,37597,191817,,,,
19998,157386,37601,191820,,,,
20007,157369,37597,191800,,,,
20017,157355,37592,191798,,,,
20027,157357,37590,191808,,,,
20038,157358,37604,191764,,,,
20047,157353,37608,191780,,,,
20057,157355,37608,191797,,,,
20068,157359,37598,191786,,,,
20078,157368,37616,191781,,,,
20087,157375,37617,191791,,,,
20097,157371,37588,191791,,,,
20107,157378,37611,191769,,,,
20118,157365,37614,191779,,,,
20127,157367,37616,191780,,,,
20137,157352,37610,191775,,,,
20147,157369,37619,191783,,,,
20157,157373,37604,191755,,,,
20167,157371,37612,191774,,,,
20177,157347,37608,191768,,,,
20187,157375,37616,191764,,,,
20197,157378,37630,191772,,,,
20207,157389,37631,191785,,,,
20217,157397,37626,191794,,,,
20227,157391,37628,191791,,,,
20238,157381,37645,191795,,,,
20248,157405,37636,191803,,,,
20257,157413,37633,191826,,,,
20267,157438,37633,191841,,,,
20277,157426,37652,191831,,,,
20288,157464,37636,191861,,,,
20297,157457,37646,191846,,,,
20307,157477,37664,191880,,,,
20317,157463,37659,191872,,,,
20327,157482,37661,191895,,,,
20336,157497,37646,191891,,,,
20347,157491,37669,191899,,,,
20358,157510,37670,191892,,,,
20368,157508,37670,191895,,,,
20377,157493,37675,191910,,,,
20387,157520,37676,191905,,,,
20397,157516,37666,191919,,,,
20407,157536,37672,191929,,,,
20417,157537,37681,191933,,,,
20427,157565,37685,191950,,,,
20437,157561,37679,191973,,,,
20447,157562,37696,191980,,,,
20457,157580,37677,191997,,,,
20466,157587,37686,191976,,,,
20477,157598,37675,192001,,,,
20488,157598,37675,192012,,,,
20498,157596,37647,191983,,,,
20507,157605,37651,191981,,,,
20517,157560,37651,192000,,,,
20527,157593,37639,191991,,,,
20537,157590,37659,191993,,,,
20547,157564,37633,191990,,,,
20557,157581,37641,191976,,,,
20567,157595,37642,192004,,,,
20577,157587,37632,191994,,,,
20586,157581,37642,191968,,,,
20596,157582,37625,191990,,,,
20607,157595,37632,192001,,,,
20617,157600,37635,191995,,,,
20627,157588,37655,192018,,,,
20637,157594,37642,192019,,,,
20647,157610,37637,192013,,,,
20657,157588,37636,192059,,,,
20667,157601,37633,192043,,,,
20677,157631,37644,192035,,,,
20687,157602,37631,192044,,,,
20697,157611,37642,192049,,,,
20707,157592,37628,192028,,,,
20716,157589,37629,192032,,,,
20729,157568,37643,192047,,,,
20737,157598,37646,192052,,,,
20747,157604,37642,192043,,,,
20756,157602,37645,192031,,,,
20767,157593,37646,192036,,,,
20777,157600,37658,192022,,,,
20787,157584,37648,192058,,,,
20796,157597,37635,192040,,,,
20806,157606,37661,192043,,,,
20816,157598,37637,192046,,,,
20829,157597,37641,192053,,,,
20837,157598,37646,192051,,,,
20847,157589,37661,192068,,,,
20857,157607,37655,192062,,,,
20867,157610,37638,192057,,,,
20876,157616,37651,192050,,,,
20886,157615,37652,192082,,,,
20896,157614,37644,192084,,,,
20907,157617,37663,192106,,,,
20916,157630,37662,192069,,,,
20926,157632,37668,192111,,,,
20937,157638,37662,192122,,,,
20947,157631,37665,192118,,,,
20957,157637,37679,192123,,,,
20966,157644,37676,192136,,,,
20976,157625,37672,192152,,,,
20987,157660,37675,192153,,,,
20997,157653,37685,192140,,,,
21007,157646,37663,192143,,,,
21017,157649,37694,192136,,,,
21027,157613,37694,192132,,,,
21037,157626,37698,192153,,,,
21046,157635,37701,192147,,,,
21056,157629,37721,192151,,,,
21066,157632,37707,192150,,,,
21077,157606,37707,192162,,,,
21087,157601,37723,192158,,,,
21097,157618,37714,192151,,,,
21107,157601,37713,192138,,,,
21117,157600,37722,192153,,,,
21126,157577,37715,192138,,,,
21136,157589,37719,192139,,,,
21146,157590,37711,192140,,,,
21157,157592,37739,192139,,,,
21166,157581,37718,192142,,,,
21176,157593,37716,192137,,,,
21187,157600,37723,192145,,,,
21197,157592,37710,192142,,,,
21207,157571,37729,192135,,,,
21216,157574,37733,192150,,,,
21226,157570,37728,192151,,,,
21236,157555,37743,192125,,,,
21246,157566,37738,192123,,,,
21256,157569,37739,192142,,,,
21266,157558,37752,192126,,,,
21276,157560,37739,192150,,,,
21286,157577,37758,192137,,,,
21296,157561,37757,192183,,,,
21306,157598,37755,192158,,,,
21316,157576,37751,192192,,,,
21326,157599,37760,192188,,,,
21336,157595,37747,192214,,,,
21346,157589,37749,192203,,,,
21356,157616,37755,192194,,,,
21366,157593,37732,192199,,,,
21376,157595,37721,192200,,,,
21387,157577,37719,192205,,,,
21397,157589,37701,192194,,,,
21407,157563,37703,192170,,,,
21416,157567,37691,192195,,,,
21426,157568,37705,192191,,,,
21436,157564,37694,192158,,,,
21446,157563,37670,192180,,,,
21457,157554,37691,192158,,,,
21466,157538,37678,192178,,,,
21476,157548,37697,192179,,,,
21486,157557,37674,192174,,,,
21496,157558,37693,192183,,,,
21506,157551,37678,192176,,,,
21516,157555,37664,192219,,,,
21526,157559,37678,192209,,,,
21536,157547,37646,192178,,,,
21546,157562,37670,192185,,,,
21556,157551,37685,192193,,,,
21566,157527,37675,192174,,,,
21577,157544,37682,192191,,,,
21586,157505,37687,192173,,,,
21596,157527,37682,192167,,,,
21606,157512,37684,192163,,,,
21616,157506,37678,192161,,,,
21626,157515,37675,192163,,,,
21636,157503,37679,192141,,,,
21646,157503,37673,192168,,,,
21657,157518,37675,192141,,,,
21666,157491,37682,192158,,,,
21676,157495,37699,192140,,,,
21686,157457,37673,192132,,,,
21696,157473,37676,192115,,,,
21706,157469,37687,192120,,,,
21716,157446,37670,192132,,,,
21726,157467,37690,192112,,,,
21736,157468,37673,192127,,,,
21746,157448,37688,192118,,,,
21755,157460,37679,192119,,,,
21766,157438,37681,192111,,,,
21776,157447,37682,192110,,,,
21786,157442,37678,192080,,,,
21795,157411,37702,192115,,,,
21805,157431,37697,192129,,,,
21816,157452,37678,192103,,,,
21827,157433,37692,192113,,,,
21836,157430,37699,192092,,,,
21846,157416,37699,192085,,,,
21856,157417,37696,192114,,,,
21866,157408,37686,192082,,,,
21876,157385,37697,192111,,,,
21886,157418,37696,192105,,,,
21896,157380,37706,192110,,,,
21906,157391,37696,192101,,,,
21916,157385,37703,192083,,,,
21926,157393,37694,192078,,,,
21936,157376,37704,192094,,,,
21946,157379,37715,192097,,,,
21957,157377,37710,192088,,,,
21966,157370,37713,192094,,,,
21976,157375,37695,192069,,,,
21986,157346,37718,192081,,,,
21996,157355,37707,192051,,,,
22006,157336,37699,192080,,,,
22016,157346,37700,192070,,,,
22026,157312,37720,192075,,,,
22036,157323,37731,192069,,,,
22046,157330,37721,192044,,,,
22056,157318,37714,192044,,,,
22066,157307,37724,192056,,,,
22076,157307,37725,192060,,,,
22085,157300,37718,192039,,,,
22095,157288,37701,192030,,,,
22106,157271,37715,192037,,,,
22116,157303,37730,192013,,,,
22125,157301,37740,192009,,,,
22136,157262,37738,192011,,,,
22146,157284,37727,191986,,,,
22156,157271,37742,192020,,,,
22166,157280,37729,192029,,,,
22175,157267,37725,192031,,,,
22189,157280,37728,192022,,,,
22196,157274,37727,192018,,,,
22206,157264,37717,192018,,,,
22216,157272,37719,192031,,,,
22226,157274,37713,192026,,,,
22236,157254,37711,192039,,,,
22246,157274,37691,192005,,,,
22255,157263,37667,192021,,,,
22265,157242,37692,192032,,,,
22276,157261,37671,192011,,,,
22286,157258,37681,191984,,,,
22295,157232,37669,191992,,,,
22305,157243,37651,191975,,,,
22315,157232,37636,191985,,,,
22325,157232,37646,191971,,,,
22335,157208,37641,191953,,,,
22345,157216,37649,191946,,,,
22356,157194,37626,191935,,,,
22366,157188,37622,191943,,,,
22375,157194,37637,191941,,,,
22385,157207,37631,191926,,,,
22396,157200,37620,191922,,,,
22406,157175,37619,191925,,,,
22416,157173,37624,191898,,,,
22425,157205,37618,191908,,,,
22435,157165,37616,191925,,,,
22445,157178,37615,191910,,,,
22456,157175,37608,191916,,,,
22465,157169,37611,191901,,,,
22475,157172,37601,191901,,,,
22485,157156,37608,191903,,,,
22496,157155,37610,191888,,,,
22505,157158,37605,191894,,,,
22515,157156,37589,191880,,,,
22526,157145,37595,191882,,,,
22536,157158,37608,191848,,,,
22545,157160,37591,191853,,,,
22555,157144,37605,191876,,,,
22566,157139,37610,191862,,,,
22576,157138,37608,191881,,,,
22585,157142,37600,191872,,,,
22595,157113,37608,191878,,,,
22606,157128,37597,191865,,,,
22616,157121,37607,191862,,,,
22625,157115,37605,191822,,,,
22635,157109,37614,191810,,,,
22645,157108,37605,191837,,,,
22655,157104,37595,191829,,,,
22666,157084,37605,191842,,,,
22674,157106,37592,191833,,,,
22685,157093,37597,191834,,,,
22695,157102,37604,191828,,,,
22705,157090,37608,191801,,,,
22715,157081,37604,191819,,,,
22725,157101,37611,191818,,,,
22735,157091,37591,191803,,,,
22746,157081,37614,191799,,,,
22755,157091,37624,191791,,,,
22765,157084,37609,191786,,,,
22776,157082,37610,191798,,,,
22786,157072,37609,191780,,,,
22795,157069,37600,191772,,,,
22805,157069,37606,191784,,,,
22815,157069,37615,191781,,,,
22825,157061,37612,191752,,,,
22834,157072,37606,191771,,,,
22844,157082,37617,191748,,,,
22855,157065,37632,191780,,,,
22865,157053,37610,191774,,,,
22875,157054,37619,191749,,,,
22885,157063,37609,191735,,,,
22895,157044,37627,191759,,,,
22905,157057,37624,191765,,,,
22916,157042,37629,191758,,,,
22925,157064,37629,191754,,,,
22935,157026,37625,191751,,,,
22945,157050,37630,191746,,,,
22956,157048,37631,191746,,,,
22965,157059,37634,191759,,,,
22975,157059,37629,191752,,,,
22985,157057,37629,191743,,,,
22996,157080,37624,191740,,,,
23005,157037,37634,191733,,,,
23015,157047,37618,191734,,,,
23025,157045,37629,191735,,,,
23035,157050,37635,191713,,,,
23044,157050,37637,191715,,,,
23055,157059,37624,191711,,,,
23065,157053,37645,191715,,,,
23075,157041,37642,191725,,,,
23084,157060,37639,191709,,,,
23095,157066,37624,191705,,,,
23105,157058,37628,191696,,,,
23115,157074,37616,191725,,,,
23125,157086,37609,191734,,,,
23135,157084,37610,191728,,,,
23145,157093,37609,191758,,,,
23155,157101,37590,191726,,,,
23165,157074,37588,191716,,,,
23175,157081,37577,191710,,,,
23185,157049,37571,191688,,,,
23195,157062,37568,191679,,,,
23205,157049,37569,191692,,,,
23214,157042,37564,191681,,,,
23224,157053,37561,191655,,,,
23235,157034,37556,191657,,,,
23245,157071,37550,191664,,,,
23255,157036,37547,191638,,,,
23265,157050,37546,191618,,,,
23275,157034,37548,191626,,,,
23285,157030,37551,191628,,,,
23294,157026,37520,191607,,,,
23304,157041,37533,191628,,,,
23315,157051,37522,191620,,,,
23325,157041,37530,191632,,,,
23334,157033,37520,191607,,,,
23344,157037,37527,191610,,,,
23355,157042,37519,191586,,,,
23365,157030,37523,191588,,,,
23375,157005,37523,191593,,,,
23385,157023,37523,191585,,,,
23395,157020,37529,191574,,,,
23405,157024,37529,191598,,,,
23415,157024,37513,191583,,,,
23424,157022,37520,191558,,,,
23434,157006,37526,191555,,,,
23444,157020,37536,191573,,,,
23455,157006,37528,191582,,,,
23464,157010,37530,191563,,,,
23474,157016,37527,191559,,,,
23484,157014,37526,191573,,,,
23495,157005,37530,191567,,,,
23504,157002,37521,191535,,,,
23515,157030,37522,191520,,,,
23525,157021,37521,191506,,,,
23535,156981,37521,191541,,,,
23544,157015,37521,191525,,,,
23554,157021,37519,191514,,,,
23564,157019,37518,191528,,,,
23575,157016,37520,191519,,,,
23584,156998,37525,191509,,,,
23594,157012,37537,191504,,,,
23604,156990,37517,191505,,,,
23615,157001,37517,191491,,,,
23625,157003,37518,191501,,,,
23634,157008,37523,191503,,,,
23644,157019,37524,191509,,,,
23654,157021,37521,191505,,,,
23664,157000,37530,191511,,,,
23674,157006,37521,191489,,,,
23685,156995,37527,191468,,,,
23695,156981,37535,191436,,,,
23705,156961,37541,191435,,,,
23714,156933,37532,191433,,,,
23724,156954,37526,191416,,,,
23734,156949,37536,191425,,,,
23745,156971,37535,191415,,,,
23753,156949,37539,191378,,,,
23764,156956,37543,191396,,,,
23775,156950,37544,191408,,,,
23785,156956,37541,191412,,,,
23794,156965,37539,191425,,,,
23804,156998,37545,191449,,,,
23814,157010,37542,191464,,,,
23824,156998,37555,191477,,,,
23834,157018,37527,191495,,,,
23844,157040,37542,191517,,,,
23854,157065,37534,191501,,,,
23865,157061,37536,191532,,,,
23874,157059,37549,191514,,,,
23884,157058,37546,191520,,,,
23895,157080,37559,191505,,,,
23905,157077,37562,191523,,,,
23915,157063,37569,191530,,,,
23924,157055,37557,191503,,,,
23934,157055,37582,191530,,,,
23944,157078,37564,191523,,,,
23955,157057,37572,191542,,,,
23964,157087,37580,191534,,,,
23974,157083,37576,191542,,,,
23984,157107,37584,191548,,,,
23995,157120,37586,191570,,,,
24004,157129,37579,191566,,,,
24013,157139,37570,191574,,,,
24024,157151,37570,191581,,,,
24035,157144,37570,191576,,,,
24044,157151,37554,191608,,,,
24054,157162,37546,191596,,,,
24064,157164,37549,191595,,,,
24074,157169,37531,191610,,,,
24083,157166,37531,191587,,,,
24094,157166,37538,191603,,,,
24104,157155,37523,191618,,,,
24114,157181,37521,191596,,,,
24124,157177,37509,191587,,,,
24134,157184,37511,191586,,,,
24144,157195,37513,191602,,,,
24154,157184,37508,191594,,,,
24164,157191,37514,191590,,,,
24173,157180,37521,191613,,,,
24184,157183,37518,191607,,,,
24194,157190,37505,191595,,,,
24205,157200,37509,191586,,,,
24214,157207,37500,191588,,,,
24224,157210,37511,191583,,,,
24234,157199,37513,191609,,,,
24244,157223,37511,191589,,,,
24254,157215,37507,191603,,,,
24264,157210,37505,191584,,,,
24274,157220,37510,191580,,,,
24284,157242,37511,191603,,,,
24294,157222,37510,191611,,,,
24304,157212,37518,191620,,,,
24314,157238,37515,191611,,,,
24324,157231,37526,191598,,,,
24333,157229,37518,191625,,,,
24344,157276,37497,191625,,,,
24354,157262,37531,191635,,,,
24364,157264,37513,191637,,,,
24374,157271,37526,191651,,,,
24383,157272,37525,191616,,,,
24394,157259,37506,191639,,,,
24404,157263,37514,191610,,,,
24414,157249,37514,191625,,,,
24424,157279,37516,191635,,,,
24434,157279,37511,191621,,,,
24444,157271,37530,191620,,,,
24454,157276,37521,191625,,,,
24463,157271,37544,191630,,,,
24473,157254,37535,191631,,,,
24483,157262,37529,191631,,,,
24494,157292,37538,191641,,,,
24504,157273,37539,191648,,,,
24514,157289,37543,191639,,,,
24524,157301,37544,191625,,,,
24534,157280,37550,191660,,,,
24543,157291,37546,191665,,,,
24553,157295,37563,191656,,,,
24563,157313,37539,191651,,,,
24574,157298,37561,191662,,,,
24583,157299,37559,191646,,,,
24593,157288,37558,191661,,,,
24604,157293,37556,191645,,,,
24613,157293,37567,191641,,,,
24624,157323,37541,191644,,,,
24633,157285,37565,191639,,,,
24644,157300,37559,191644,,,,
24654,157288,37575,191608,,,,
24664,157294,37569,191604,,,,
24673,157284,37578,191647,,,,
24683,157277,37585,191634,,,,
24694,157307,37585,191632,,,,
24704,157298,37583,191658,,,,
24713,157318,37592,191650,,,,
24723,157300,37585,191666,,,,
24733,157324,37577,191646,,,,
24744,157305,37586,191656,,,,
24753,157304,37588,191667,,,,
24764,157303,37591,191661,,,,
24773,157312,37593,191651,,,,
24784,157313,37587,191638,,,,
24793,157309,37591,191650,,,,
24803,157308,37610,191658,,,,
24814,157310,37597,191652,,,,
24824,157310,37604,191675,,,,
24833,157322,37591,191662,,,,
24843,157328,37577,191675,,,,
24853,157343,37599,191674,,,,
24863,157344,37605,191692,,,,
24874,157352,37597,191704,,,,
24883,157358,37580,191703,,,,
24893,157364,37591,191705,,,,
24904,157347,37570,191725,,,,
24914,157362,37566,191707,,,,
24923,157378,37563,191697,,,,
24934,157345,37562,191698,,,,
24944,157363,37539,191684,,,,
24954,157349,37560,191714,,,,
24963,157360,37541,191699,,,,
24973,157332,37541,191702,,,,
24983,157352,37541,191701,,,,
24994,157342,37545,191707,,,,
25003,157361,37533,191710,,,,
25013,157335,37541,191707,,,,
25023,157370,37528,191693,,,,
25033,157361,37538,191728,,,,
25043,157354,37522,191700,,,,
25052,157372,37539,191720,,,,
25063,157348,37531,191713,,,,
25074,157349,37540,191730,,,,
25083,157354,37529,191730,,,,
25093,157351,37527,191724,,,,
25103,157360,37539,191721,,,,
25113,157346,37552,191700,,,,
25123,157328,37537,191720,,,,
25133,157342,37538,191717,,,,
25143,157354,37535,191729,,,,
25153,157337,37536,191718,,,,
25163,157323,37554,191707,,,,
25173,157328,37535,191731,,,,
25183,157328,37551,191731,,,,
25193,157309,37549,191754,,,,
25204,157287,37546,191750,,,,
25213,157308,37544,191717,,,,
25223,157303,37547,191720,,,,
25233,157300,37551,191723,,,,
25243,157296,37537,191738,,,,
25253,157292,37565,191736,,,,
25263,157292,37548,191757,,,,
25273,157287,37546,191731,,,,
25283,157275,37545,191725,,,,
25293,157290,37531,191732,,,,
25303,157258,37555,191701,,,,
25313,157214,37566,191719,,,,
25323,157255,37560,191724,,,,
25333,157240,37540,191719,,,,
25343,157252,37562,191729,,,,
25353,157256,37576,191731,,,,
25363,157228,37578,191704,,,,
25373,157222,37562,191746,,,,
25382,157219,37571,191712,,,,
25393,157233,37550,191730,,,,
25403,157205,37575,191692,,,,
25413,157212,37564,191710,,,,
25422,157211,37588,191708,,,,
25433,157194,37586,191716,,,,
25443,157175,37562,191696,,,,
25453,157158,37586,191723,,,,
25462,157184,37586,191695,,,,
25473,157166,37593,191707,,,,
25483,157182,37596,191712,,,,
25493,157155,37596,191715,,,,
25502,157177,37588,191711,,,,
25513,157167,37586,191724,,,,
25523,157143,37593,191717,,,,
25533,157154,37605,191733,,,,
25542,157143,37598,191722,,,,
25552,157155,37588,191723,,,,
25562,157136,37599,191697,,,,
25573,157134,37590,191715,,,,
25583,157150,37605,191720,,,,
25592,157149,37602,191743,,,,
25602,157129,37611,191720,,,,
25613,157131,37612,191700,,,,
25624,157109,37617,191706,,,,
25632,157104,37613,191719,,,,
25643,157106,37615,191698,,,,
25653,157109,37618,191674,,,,
25663,157100,37621,191695,,,,
25673,157093,37623,191705,,,,
25683,157109,37622,191681,,,,
25693,157081,37628,191705,,,,
25703,157075,37643,191694,,,,
25712,157098,37617,191685,,,,
25722,157099,37621,191706,,,,
25732,157085,37618,191716,,,,
25742,157078,37612,191716,,,,
25752,157092,37596,191712,,,,
25763,157094,37599,191722,,,,
25772,157087,37590,191711,,,,
25783,157078,37593,191720,,,,
25792,157059,37581,191704,,,,
25803,157053,37576,191693,,,,
25812,157055,37564,191706,,,,
25823,157051,37555,191694,,,,
25833,157049,37558,191674,,,,
25842,157038,37543,191680,,,,
25853,157035,37536,191665,,,,
25863,157014,37543,191657,,,,
25873,157019,37528,191649,,,,
25882,157020,37545,191649,,,,
25892,157022,37539,191649,,,,
25902,157006,37528,191638,,,,
25913,156998,37520,191625,,,,
25922,156999,37527,191629,,,,
25932,157008,37508,191640,,,,
25943,156980,37520,191642,,,,
25952,157001,37522,191619,,,,
25962,156957,37526,191610,,,,
25973,156971,37519,191604,,,,
25983,156949,37526,191605,,,,
25993,156930,37527,191573,,,,
26002,156942,37522,191566,,,,
26013,156920,37522,191580,,,,
26023,156937,37516,191578,,,,
26033,156916,37524,191577,,,,
26042,156939,37528,191574,,,,
26052,156907,37525,191581,,,,
26063,156933,37526,191566,,,,
26073,156926,37529,191579,,,,
26083,156903,37519,191588,,,,
26092,156934,37533,191576,,,,
26102,156910,37543,191600,,,,
26113,156900,37519,191591,,,,
26123,156895,37528,191583,,,,
26132,156906,37526,191592,,,,
26142,156903,37525,191590,,,,
26152,156906,37541,191576,,,,
26162,156893,37523,191586,,,,
26172,156885,37537,191576,,,,
26182,156888,37533,191559,,,,
26192,156861,37536,191558,,,,
26202,156864,37538,191551,,,,
26212,156858,37517,191567,,,,
26222,156870,37540,191569,,,,
26232,156849,37537,191556,,,,
26243,156843,37546,191551,,,,
26252,156841,37536,191552,,,,
26262,156848,37545,191555,,,,
26272,156838,37528,191547,,,,
26282,156822,37541,191562,,,,
26292,156834,37554,191559,,,,
26302,156812,37547,191572,,,,
26312,156825,37553,191556,,,,
26322,156827,37556,191557,,,,
26333,156807,37545,191568,,,,
26342,156831,37557,191555,,,,
26352,156841,37555,191540,,,,
26362,156838,37548,191561,,,,
26372,156823,37557,191556,,,,
26382,156854,37562,191562,,,,
26392,156834,37559,191554,,,,
26402,156824,37560,191562,,,,
26413,156818,37558,191550,,,,
26422,156818,37568,191563,,,,
26432,156822,37569,191550,,,,
26442,156817,37566,191551,,,,
26452,156805,37564,191558,,,,
26461,156818,37581,191526,,,,
26472,156821,37573,191553,,,,
26482,156809,37582,191540,,,,
26492,156782,37576,191572,,,,
26501,156809,37586,191546,,,,
26512,156786,37586,191567,,,,
26522,156778,37584,191522,,,,
26532,156782,37589,191545,,,,
26541,156785,37598,191545,,,,
26552,156751,37595,191544,,,,
26562,156766,37590,191540,,,,
26572,156749,37597,191523,,,,
26582,156771,37594,191530,,,,
26592,156753,37608,191528,,,,
26602,156755,37611,191512,,,,
26612,156750,37596,191538,,,,
26622,156737,37603,191539,,,,
26631,156778,37599,191523,,,,
26642,156770,37579,191540,,,,
26652,156769,37586,191511,,,,
26668,156758,37578,191558,,,,
26671,156790,37578,191557,,,,
26681,156806,37565,191568,,,,
26692,156792,37571,191529,,,,
26702,156774,37554,191547,,,,
26711,156773,37542,191512,,,,
26721,156750,37542,191552,,,,
26732,156767,37543,191527,,,,
26742,156749,37531,191507,,,,
26751,156749,37518,191510,,,,
26762,156742,37519,191488,,,,
26772,156725,37534,191450,,,,
26782,156714,37523,191469,,,,
26791,156706,37516,191476,,,,
26801,156692,37524,191456,,,,
26812,156711,37524,191453,,,,
26822,156686,37517,191454,,,,
26832,156710,37515,191446,,,,
26841,156713,37510,191452,,,,
26851,156713,37513,191453,,,,
26861,156710,37498,191494,,,,
26872,156703,37494,191446,,,,
26882,156704,37508,191475,,,,
26892,156686,37513,191442,,,,
26902,156714,37502,191434,,,,
26912,156677,37502,191432,,,,
26921,156685,37486,191434,,,,
26931,156674,37517,191437,,,,
26941,156680,37509,191443,,,,
26952,156666,37511,191430,,,,
26961,156656,37502,191437,,,,
26971,156683,37497,191454,,,,
26982,156641,37504,191459,,,,
26991,156676,37522,191423,,,,
27001,156687,37513,191435,,,,
27012,156665,37504,191428,,,,
27022,156674,37515,191448,,,,
27032,156673,37510,191430,,,,
27041,156662,37522,191428,,,,
27051,156634,37530,191426,,,,
27061,156666,37518,191421,,,,
27072,156652,37520,191401,,,,
27082,156656,37528,191416,,,,
27091,156634,37521,191414,,,,
27102,156637,37525,191423,,,,
27112,156634,37527,191398,,,,
27122,156635,37522,191411,,,,
27131,156633,37515,191394,,,,
27141,156622,37506,191378,,,,
27152,156622,37525,191396,,,,
27162,156619,37522,191381,,,,
27171,156624,37518,191378,,,,
27181,156640,37526,191388,,,,
27191,156614,37531,191377,,,,
27201,156603,37531,191385,,,,
27211,156628,37534,191391,,,,
27221,156596,37515,191369,,,,
27231,156627,37542,191387,,,,
27241,156604,37534,191359,,,,
27250,156630,37513,191376,,,,
27261,156628,37523,191379,,,,
27271,156608,37537,191353,,,,
27282,156621,37542,191386,,,,
27291,156615,37543,191350,,,,
27301,156617,37551,191382,,,,
27311,156610,37533,191382,,,,
27321,156611,37550,191341,,,,
27332,156590,37562,191371,,,,
27341,156586,37544,191367,,,,
27351,156608,37550,191377,,,,
27362,156576,37551,191373,,,,
27372,156606,37547,191380,,,,
27381,156597,37566,191355,,,,
27391,156592,37556,191361,,,,
27401,156600,37544,191367,,,,
27412,156598,37554,191361,,,,
27421,156608,37557,191380,,,,
27431,156599,37573,191374,,,,
27441,156593,37560,191358,,,,
27451,156609,37569,191387,,,,
27460,156615,37574,191382,,,,
27471,156620,37554,191392,,,,
27481,156627,37558,191404,,,,
27492,156638,37569,191416,,,,
27501,156622,37577,191404,,,,
27511,156631,37596,191435,,,,
27521,156646,37589,191455,,,,
27531,156671,37583,191468,,,,
27541,156657,37587,191441,,,,
27551,156673,37585,191492,,,,
27561,156712,37577,191494,,,,
27571,156688,37563,191509,,,,
27581,156727,37561,191507,,,,
27591,156680,37548,191525,,,,
27601,156738,37551,191536,,,,
27611,156692,37552,191520,,,,
27621,156706,37560,191542,,,,
27631,156705,37537,191549,,,,
27641,156728,37532,191536,,,,
27651,156704,37540,191543,,,,
27661,156722,37529,191529,,,,
27670,156717,37538,191540,,,,
27681,156723,37521,191531,,,,
27691,156711,37541,191533,,,,
27701,156698,37520,191545,,,,
27710,156723,37538,191557,,,,
27721,156716,37537,191584,,,,
27731,156725,37534,191563,,,,
27741,156739,37515,191564,,,,
27750,156742,37524,191583,,,,
27760,156746,37527,191607,,,,
27770,156742,37543,191581,,,,
27781,156748,37530,191604,,,,
27791,156757,37540,191608,,,,
27801,156732,37530,191591,,,,
27811,156731,37548,191620,,,,
27821,156739,37548,191606,,,,
27831,156766,37535,191623,,,,
27840,156771,37556,191630,,,,
27850,156753,37564,191641,,,,
27861,156789,37553,191660,,,,
27871,156762,37561,191648,,,,
27881,156774,37555,191650,,,,
27891,156768,37557,191613,,,,
27901,156768,37558,191650,,,,
27911,156773,37568,191668,,,,
27920,156771,37570,191642,,,,
27930,156767,37565,191666,,,,
27940,156784,37568,191680,,,,
27951,156781,37536,191671,,,,
27960,156763,37564,191684,,,,
27970,156767,37565,191667,,,,
27981,156769,37566,191670,,,,
27991,156760,37583,191673,,,,
28000,156766,37560,191653,,,,
28011,156769,37585,191659,,,,
28021,156756,37584,191649,,,,
28031,156745,37593,191703,,,,
28041,156774,37586,191681,,,,
28051,156768,37597,191690,,,,
28061,156784,37601,191677,,,,
28071,156784,37591,191715,,,,
28081,156791,37619,191704,,,,
28091,156767,37610,191713,,,,
28101,156776,37606,191705,,,,
28111,156773,37614,191719,,,,
28121,156795,37617,191721,,,,
28131,156752,37620,191743,,,,
28141,156776,37624,191713,,,,
28151,156757,37622,191734,,,,
28161,156798,37612,191739,,,,
28170,156788,37621,191714,,,,
28180,156747,37639,191729,,,,
28190,156777,37608,191758,,,,
28201,156784,37625,191758,,,,
28210,156782,37648,191762,,,,
28220,156800,37629,191749,,,,
28230,156794,37649,191752,,,,
28241,156790,37640,191746,,,,
28250,156783,37647,191764,,,,
28260,156807,37636,191764,,,,
28270,156794,37669,191778,,,,
28281,156806,37642,191784,,,,
28291,156798,37656,191781,,,,
28300,156793,37678,191811,,,,
28310,156779,37664,191796,,,,
28320,156761,37649,191804,,,,
28331,156776,37667,191808,,,,
28340,156789,37676,191837,,,,
28350,156787,37672,191835,,,,
28361,156791,37689,191843,,,,
28371,156787,37676,191821,,,,
28380,156793,37680,191847,,,,
28390,156803,37664,191860,,,,
28400,156793,37664,191876,,,,
28411,156812,37683,191861,,,,
28420,156814,37664,191881,,,,
28430,156830,37660,191851,,,,
28440,156804,37650,191861,,,,
28450,156826,37640,191868,,,,
28459,156832,37642,191881,,,,
28470,156828,37646,191870,,,,
28480,156815,37640,191864,,,,
28490,156828,37621,191856,,,,
28500,156807,37647,191876,,,,
28510,156805,37614,191867,,,,
28520,156786,37626,191863,,,,
28530,156805,37615,191847,,,,
28541,156791,37627,191842,,,,
28550,156793,37624,191862,,,,
28560,156806,37629,191874,,,,
28571,156773,37633,191877,,,,
28581,156785,37632,191877,,,,
28590,156805,37615,191863,,,,
28600,156806,37628,191851,,,,
28610,156796,37646,191884,,,,
28620,156779,37632,191870,,,,
28630,156770,37626,191870,,,,
28640,156773,37629,191899,,,,
28650,156766,37638,191881,,,,
28660,156787,37648,191903,,,,
28670,156783,37638,191869,,,,
28680,156783,37630,191881,,,,
28690,156772,37653,191863,,,,
28700,156763,37632,191864,,,,
28709,156785,37642,191854,,,,
28720,156777,37621,191845,,,,
28730,156766,37635,191834,,,,
28741,156757,37630,191863,,,,
28750,156787,37649,191858,,,,
28760,156779,37645,191864,,,,
28770,156773,37646,191866,,,,
28780,156765,37647,191872,,,,
28791,156780,37643,191870,,,,
28800,156773,37628,191851,,,,
28810,156766,37641,191876,,,,
28820,156771,37654,191852,,,,
28830,156760,37668,191860,,,,
28839,156748,37656,191869,,,,
28849,156762,37639,191851,,,,
28860,156752,37661,191845,,,,
28871,156755,37654,191861,,,,
28880,156733,37666,191844,,,,
28890,156765,37663,191874,,,,
28900,156748,37679,191858,,,,
28910,156745,37663,191869,,,,
28920,156745,37671,191871,,,,
28930,156736,37681,191884,,,,
28940,156748,37681,191860,,,,
28950,156727,37683,191860,,,,
28959,156745,37681,191843,,,,
28969,156733,37663,191869,,,,
28979,156731,37684,191858,,,,
28990,156732,37664,191848,,,,
29000,156728,37703,191838,,,,
29009,156729,37680,191847,,,,
29020,156725,37688,191861,,,,
29030,156711,37695,191843,,,,
29041,156716,37685,191845,,,,
29050,156720,37690,191833,,,,
29060,156733,37709,191858,,,,
29070,156721,37693,191840,,,,
29080,156720,37696,191835,,,,
29090,156709,37698,191859,,,,
29100,156710,37703,191849,,,,
29110,156714,37711,191848,,,,
29120,156734,37699,191818,,,,
29130,156682,37727,191838,,,,
29140,156717,37715,191842,,,,
29150,156678,37712,191847,,,,
29160,156708,37716,191824,,,,
29170,156694,37715,191855,,,,
29180,156711,37732,191864,,,,
29190,156701,37705,191854,,,,
29200,156705,37692,191861,,,,
29209,156720,37714,191869,,,,
29219,156709,37703,191881,,,,
29230,156724,37732,191891,,,,
29240,156741,37737,191907,,,,
29250,156757,37710,191911,,,,
29259,156749,37713,191934,,,,
29269,156765,37703,191941,,,,
29279,156769,37702,191923,,,,
29290,156763,37692,191938,,,,
29299,156766,37693,191933,,,,
29309,156758,37670,191940,,,,
29320,156751,37689,191914,,,,
29330,156736,37679,191903,,,,
29339,156745,37675,191937,,,,
29350,156753,37673,191926,,,,
29360,156744,37679,191914,,,,
29370,156754,37663,191937,,,,
29379,156750,37647,191924,,,,
29389,156740,37666,191905,,,,
29399,156734,37660,191924,,,,
29410,156712,37670,191951,,,,
29419,156722,37656,191931,,,,
29429,156720,37642,191914,,,,
29439,156721,37635,191938,,,,
29449,156709,37635,191915,,,,
29459,156715,37623,191910,,,,
29469,156731,37646,191932,,,,
29479,156728,37647,191933,,,,
29489,156717,37637,191913,,,,
29500,156694,37665,191919,,,,
29509,156685,37651,191913,,,,
29519,156679,37649,191901,,,,
29530,156673,37654,191889,,,,
29540,156658,37628,191896,,,,
29549,156654,37639,191871,,,,
29559,156661,37609,191894,,,,
29570,156655,37661,191870,,,,
29580,156642,37671,191876,,,,
29589,156646,37644,191845,,,,
29599,156658,37669,191870,,,,
29609,156623,37659,191861,,,,
29619,156651,37647,191841,,,,
29629,156629,37653,191850,,,,
29639,156648,37643,191823,,,,
29649,156624,37657,191848,,,,
29659,156625,37654,191845,,,,
29669,156624,37652,191848,,,,
29679,156620,37651,191842,,,,
29689,156598,37661,191868,,,,
29700,156625,37639,191827,,,,
29708,156612,37651,191831,,,,
29719,156592,37665,191843,,,,
29730,156617,37665,191846,,,,
29740,156589,37665,191848,,,,
29750,156600,37673,191850,,,,
29759,156618,37656,191844,,,,
29769,156565,37682,191837,,,,
29779,156599,37668,191836,,,,
29790,156609,37667,191830,,,,
29799,156596,37658,191861,,,,
29809,156587,37662,191843,,,,
29819,156577,37670,191834,,,,
29829,156585,37673,191843,,,,
29839,156580,37685,191851,,,,
29850,156572,37684,191838,,,,
29859,156560,37682,191841,,,,
29870,156566,37668,191828,,,,
29879,156552,37678,191820,,,,
29889,156545,37679,191801,,,,
29899,156542,37680,191816,,,,
29909,156544,37673,191840,,,,
29918,156539,37693,191800,,,,
29929,156537,37682,191792,,,,
29939,156537,37690,191829,,,,
29949,156527,37687,191823,,,,
29959,156540,37691,191799,,,,
29969,156534,37695,191812,,,,
29979,156539,37685,191826,,,,
29989,156528,37685,191837,,,,
29999,156515,37687,191820,,,,
30008,156517,37692,191828,,,,
30018,156524,37689,191821,,,,
30029,156527,37686,191835,,,,
30039,156507,37700,191816,,,,
30049,156521,37695,191810,,,,
30059,156499,37692,191813,,,,
30069,156505,37707,191821,,,,
30079,156512,37704,191812,,,,
30089,156486,37701,191822,,,,
30099,156499,37699,191813,,,,
30109,156500,37710,191818,,,,
30119,156480,37707,191825,,,,
30128,156498,37708,191806,,,,
30139,156509,37702,191817,,,,
30149,156500,37709,191806,,,,
30159,156473,37713,191832,,,,
30169,156491,37699,191839,,,,
30179,156523,37712,191825,,,,
30189,156489,37704,191855,,,,
30199,156510,37652,191812,,,,
30209,156492,37680,191830,,,,
30219,156509,37661,191833,,,,
30229,156471,37672,191832,,,,
30239,156489,37657,191815,,,,
30249,156498,37657,191814,,,,
30258,156480,37668,191830,,,,
30269,156480,37643,191825,,,,
30279,156495,37622,191812,,,,
30289,156473,37633,191814,,,,
30298,156456,37616,191807,,,,
30308,156441,37624,191791,,,,
30319,156452,37627,191779,,,,
30330,156451,37629,191776,,,,
30339,156453,37609,191773,,,,
30349,156441,37635,191776,,,,
30359,156430,37597,191770,,,,
30369,156422,37613,191750,,,,
30378,156415,37597,191745,,,,
30388,156426,37603,191756,,,,
30399,156399,37602,191756,,,,
30409,156410,37611,191748,,,,
30418,156394,37596,191756,,,,
30428,156410,37618,191757,,,,
30438,156407,37617,191761,,,,
30449,156399,37600,191732,,,,
30458,156388,37615,191750,,,,
30468,156402,37620,191780,,,,
30479,156416,37603,191762,,,,
30489,156406,37603,191759,,,,
30499,156386,37618,191782,,,,
30508,156391,37609,191770,,,,
30518,156387,37608,191783,,,,
30529,156376,37606,191791,,,,
30538,156398,37614,191773,,,,
30549,156396,37602,191773,,,,
30559,156385,37605,191763,,,,
30568,156379,37602,191754,,,,
30579,156366,37610,191761,,,,
30588,156363,37612,191745,,,,
30598,156375,37595,191742,,,,
30609,156376,37600,191756,,,,
30619,156346,37612,191749,,,,
30628,156336,37603,191742,,,,
30638,156322,37612,191740,,,,
30649,156357,37600,191742,,,,
30658,156357,37614,191738,,,,
30669,156358,37585,191749,,,,
30678,156349,37611,191737,,,,
30689,156343,37604,191747,,,,
30698,156336,37623,191755,,,,
30708,156344,37603,191748,,,,
30718,156332,37606,191727,,,,
30729,156329,37614,191715,,,,
30738,156337,37606,191767,,,,
30749,156317,37627,191737,,,,
30758,156323,37616,191703,,,,
30768,156314,37628,191741,,,,
30778,156309,37622,191716,,,,
30788,156316,37617,191747,,,,
30797,156302,37628,191735,,,,
30808,156321,37617,191727,,,,
30818,156308,37613,191726,,,,
30829,156304,37614,191693,,,,
30838,156300,37628,191728,,,,
30848,156287,37635,191688,,,,
30858,156293,37613,191719,,,,
30868,156304,37618,191730,,,,
30878,156296,37631,191705,,,,
30888,156280,37625,191676,,,,
30898,156285,37628,191682,,,,
30908,156253,37630,191701,,,,
30917,156263,37632,191687,,,,
30929,156256,37643,191686,,,,
30938,156259,37636,191687,,,,
30949,156263,37621,191681,,,,
30958,156257,37636,191668,,,,
30968,156254,37637,191673,,,,
30978,156254,37635,191686,,,,
30989,156251,37641,191664,,,,
30999,156233,37638,191683,,,,
31008,156229,37645,191663,,,,
31018,156244,37648,191656,,,,
31028,156224,37644,191676,,,,
31039,156243,37653,191678,,,,
31048,156228,37648,191651,,,,
31058,156231,37631,191668,,,,
31068,156236,37641,191665,,,,
31078,156235,37655,191675,,,,
31087,156227,37656,191663,,,,
31098,156229,37654,191650,,,,
31108,156224,37649,191637,,,,
31118,156240,37647,191663,,,,
31127,156235,37656,191657,,,,
31138,156238,37635,191659,,,,
31148,156241,37637,191629,,,,
31158,156219,37648,191677,,,,
31169,156248,37641,191655,,,,
31177,156242,37622,191680,,,,
31188,156240,37613,191664,,,,
31198,156241,37596,191663,,,,
31208,156206,37598,191649,,,,
31218,156204,37590,191627,,,,
31228,156219,37586,191647,,,,
31238,156202,37571,191643,,,,
31248,156217,37586,191638,,,,
31257,156214,37569,191624,,,,
31268,156191,37562,191633,,,,
31278,156214,37567,191631,,,,
31288,156198,37558,191627,,,,
31297,156192,37553,191609,,,,
31307,156180,37550,191603,,,,
31318,156169,37552,191608,,,,
31329,156190,37547,191597,,,,
31338,156183,37551,191624,,,,
31348,156188,37550,191602,,,,
31358,156181,37538,191612,,,,
31368,156182,37539,191590,,,,
31377,156180,37540,191607,,,,
31388,156188,37526,191583,,,,
31410,156155,37544,191570,,,,
31418,156141,37551,191582,,,,
31428,156134,37546,191553,,,,
31438,156135,37525,191574,,,,
31448,156151,37537,191577,,,,
31458,156153,37535,191555,,,,
31468,156134,37539,191579,,,,
31478,156151,37549,191542,,,,
31488,156154,37538,191538,,,,
31498,156127,37534,191559,,,,
31507,156131,37530,191572,,,,
31517,156145,37530,191581,,,,
31527,156154,37534,191554,,,,
31538,156148,37529,191572,,,,
31548,156158,37528,191559,,,,
31558,156145,37531,191563,,,,
31568,156137,37535,191571,,,,
31578,156132,37533,191574,,,,
31587,156152,37529,191591,,,,
31597,156136,37525,191563,,,,
31608,156145,37528,191581,,,,
31618,156146,37542,191581,,,,
31627,156145,37533,191573,,,,
31637,156150,37534,191579,,,,
31647,156161,37549,191581,,,,
31657,156143,37538,191602,,,,
31667,156141,37534,191593,,,,
31677,156143,37556,191587,,,,
31687,156125,37563,191606,,,,
31698,156180,37536,191611,,,,
31708,156163,37555,191609,,,,
31717,156155,37526,191603,,,,
31728,156153,37541,191618,,,,
31738,156169,37568,191609,,,,
31748,156153,37552,191615,,,,
31757,156163,37554,191619,,,,
31767,156146,37553,191606,,,,
31777,156171,37565,191638,,,,
31787,156171,37577,191646,,,,
31797,156181,37570,191646,,,,
31808,156170,37566,191670,,,,
31818,156164,37567,191654,,,,
31828,156177,37566,191660,,,,
31837,156190,37580,191687,,,,
31847,156186,37565,191664,,,,
31857,156196,37572,191698,,,,
31867,156191,37575,191669,,,,
31877,156181,37581,191701,,,,
31889,156213,37577,191699,,,,
31897,156205,37596,191717,,,,
31907,156212,37589,191722,,,,
31916,156201,37568,191712,,,,
31927,156198,37579,191728,,,,
31938,156196,37594,191706,,,,
31948,156211,37605,191733,,,,
31958,156210,37603,191747,,,,
31967,156220,37591,191758,,,,
31977,156212,37595,191742,,,,
31989,156221,37609,191745,,,,
31998,156225,37608,191792,,,,
32007,156200,37617,191732,,,,
32017,156216,37613,191766,,,,
32028,156215,37614,191777,,,,
32038,156232,37612,191778,,,,
32047,156230,37623,191783,,,,
32057,156243,37628,191787,,,,
32067,156246,37631,191760,,,,
32077,156226,37623,191794,,,,
32087,156228,37627,191838,,,,
32097,156261,37615,191832,,,,
32107,156248,37628,191844,,,,
32117,156274,37633,191853,,,,
32126,156281,37607,191865,,,,
32137,156267,37594,191881,,,,
32147,156287,37598,191856,,,,
32157,156291,37573,191868,,,,
32167,156292,37572,191866,,,,
32177,156289,37592,191867,,,,
32187,156281,37585,191885,,,,
32197,156314,37576,191891,,,,
32207,156312,37585,191895,,,,
32217,156311,37574,191893,,,,
32227,156312,37560,191885,,,,
32237,156321,37547,191890,,,,
32248,156300,37579,191888,,,,
32257,156303,37572,191877,,,,
32267,156309,37565,191885,,,,
32277,156304,37553,191887,,,,
32287,156296,37562,191883,,,,
32297,156301,37544,191900,,,,
32307,156310,37553,191895,,,,
32317,156308,37566,191899,,,,
32327,156305,37555,191906,,,,
32336,156305,37573,191913,,,,
32347,156309,37550,191924,,,,
32357,156315,37561,191886,,,,
32367,156277,37572,191931,,,,
32376,156316,37574,191931,,,,
32389,156308,37573,191942,,,,
32397,156322,37573,191937,,,,
32407,156337,37573,191929,,,,
32416,156346,37555,191942,,,,
32426,156332,37579,191952,,,,
32437,156327,37563,191928,,,,
32447,156327,37576,191934,,,,
32457,156322,37577,191964,,,,
32466,156338,37573,191980,,,,
32477,156351,37577,191988,,,,
32487,156343,37579,191993,,,,
32497,156356,37559,191971,,,,
32507,156331,37590,191973,,,,
32517,156329,37574,191979,,,,
32527,156331,37580,191997,,,,
32537,156337,37588,191978,,,,
32546,156354,37590,191982,,,,
32556,156358,37592,192011,,,,
32566,156362,37587,192005,,,,
32577,156369,37586,192007,,,,
32586,156357,37608,192015,,,,
32596,156364,37597,192039,,,,
32606,156369,37600,192028,,,,
32617,156377,37610,192053,,,,
32626,156384,37600,192021,,,,
32636,156377,37612,192062,,,,
32646,156410,37617,192048,,,,
32657,156391,37616,192083,,,,
32666,156418,37612,192074,,,,
32676,156391,37628,192081,,,,
32686,156399,37618,192073,,,,
32697,156374,37624,192090,,,,
32707,156386,37638,192061,,,,
32716,156383,37633,192069,,,,
32726,156388,37624,192052,,,,
32737,156391,37629,192088,,,,
32747,156391,37631,192083,,,,
32756,156384,37637,192075,,,,
32767,156373,37616,192074,,,,
32777,156384,37632,192062,,,,
32787,156376,37643,192069,,,,
32796,156399,37639,192084,,,,
32806,156391,37639,192088,,,,
32817,156379,37653,192080,,,,
32827,156389,37649,192104,,,,
32836,156393,37652,192107,,,,
32846,156392,37660,192115,,,,
32856,156406,37646,192112,,,,
32867,156395,37649,192102,,,,
32876,156409,37654,192132,,,,
32887,156385,37670,192119,,,,
32896,156405,37663,192119,,,,
32907,156395,37674,192126,,,,
32916,156393,37682,192124,,,,
32926,156405,37682,192143,,,,
32937,156414,37682,192145,,,,
32947,156389,37690,192152,,,,
32957,156415,37687,192143,,,,
32966,156411,37703,192133,,,,
32976,156393,37686,192152,,,,
32987,156408,37676,192155,,,,
32996,156406,37691,192142,,,,
33006,156403,37677,192165,,,,
33017,156412,37694,192152,,,,
33027,156405,37695,192185,,,,
33037,156432,37705,192202,,,,
33046,156421,37705,192199,,,,
33056,156438,37696,192207,,,,
33066,156441,37694,192220,,,,
33077,156431,37686,192231,,,,
33086,156466,37683,192218,,,,
33096,156462,37680,192240,,,,
33106,156448,37675,192209,,,,
33117,156445,37671,192203,,,,
33126,156454,37647,192228,,,,
33136,156457,37655,192215,,,,
33146,156449,37647,192222,,,,
33157,156459,37646,192217,,,,
33166,156449,37647,192206,,,,
33176,156450,37636,192209,,,,
33186,156451,37639,192213,,,,
33197,156440,37617,192190,,,,
33207,156434,37629,192210,,,,
33216,156440,37619,192200,,,,
33226,156458,37613,192192,,,,
33237,156443,37632,192207,,,,
33247,156425,37637,192188,,,,
33256,156424,37630,192172,,,,
33266,156424,37621,192208,,,,
33276,156426,37619,192180,,,,
33286,156404,37624,192193,,,,
33296,156418,37621,192174,,,,
33306,156418,37617,192159,,,,
33316,156392,37621,192158,,,,
33326,156396,37630,192146,,,,
33336,156391,37615,192142,,,,
33346,156403,37603,192135,,,,
33356,156383,37621,192129,,,,
33367,156379,37614,192131,,,,
33376,156371,37605,192122,,,,
33386,156349,37620,192123,,,,
33396,156371,37624,192107,,,,
33406,156371,37636,192099,,,,
33416,156350,37604,192087,,,,
33426,156341,37622,192087,,,,
33436,156368,37607,192080,,,,
33446,156343,37603,192100,,,,
33457,156342,37606,192099,,,,
33466,156315,37619,192097,,,,
33476,156348,37613,192069,,,,
33486,156351,37605,192078,,,,
33496,156351,37630,192064,,,,
33506,156312,37621,192055,,,,
33516,156321,37624,192063,,,,
33526,156320,37617,192040,,,,
33537,156307,37623,192057,,,,
33546,156322,37625,192041,,,,
33556,156296,37624,192048,,,,
33566,156326,37623,192053,,,,
33577,156327,37620,192048,,,,
33586,156332,37622,192045,,,,
33596,156291,37624,192046,,,,
33606,156300,37622,192037,,,,
33616,156326,37638,192034,,,,
33626,156333,37628,192038,,,,
33636,156311,37626,192040,,,,
33646,156321,37631,192047,,,,
33656,156327,37643,192019,,,,
33669,156313,37640,192029,,,,
33676,156308,37632,192023,,,,
33686,156303,37637,192027,,,,
33696,156306,37647,192023,,,,
33707,156322,37625,192024,,,,
33716,156319,37630,192029,,,,
33726,156304,37637,192017,,,,
33736,156313,37648,192032,,,,
33746,156315,37652,192021,,,,
33755,156322,37648,192013,,,,
33765,156321,37649,192018,,,,
33776,156302,37657,192034,,,,
33786,156323,37654,192013,,,,
33795,156322,37664,192037,,,,
33805,156330,37668,192030,,,,
33816,156316,37653,192043,,,,
33826,156317,37653,192013,,,,
33835,156319,37646,192010,,,,
33845,156326,37653,192016,,,,
33855,156320,37648,192034,,,,
33866,156312,37671,192006,,,,
33875,156321,37658,192004,,,,
33885,156314,37673,191997,,,,
33896,156324,37661,192005,,,,
33906,156322,37654,192021,,,,
33916,156326,37664,192018,,,,
33925,156322,37661,192008,,,,
33936,156325,37669,191979,,,,
33946,156304,37665,191988,,,,
33956,156322,37684,191967,,,,
33965,156305,37683,191995,,,,
33976,156331,37680,191969,,,,
33986,156306,37687,191984,,,,
33996,156318,37691,191966,,,,
34005,156333,37681,191987,,,,
34015,156329,37669,191995,,,,
34026,156324,37686,191997,,,,
34035,156350,37679,192019,,,,
34045,156358,37654,192007,,,,
34056,156365,37666,192023,,,,
34066,156370,37662,192006,,,,
34076,156372,37659,192011,,,,
34085,156348,37643,191996,,,,
34095,156357,37624,191997,,,,
34106,156346,37647,191995,,,,
34115,156360,37622,191985,,,,
34125,156352,37615,191997,,,,
34136,156359,37601,191987,,,,
34146,156362,37612,191975,,,,
34156,156345,37614,191979,,,,
34166,156347,37587,191986,,,,
34175,156363,37600,191966,,,,
34185,156358,37569,191966,,,,
34195,156340,37594,191966,,,,
34205,156345,37592,191946,,,,
34215,156336,37583,191957,,,,
34226,156331,37584,191944,,,,
34236,156326,37587,191941,,,,
34246,156329,37576,191921,,,,
34255,156318,37586,191937,,,,
34265,156339,37571,191927,,,,
34276,156294,37578,191914,,,,
34286,156326,37584,191908,,,,
34295,156285,37582,191885,,,,
34305,156295,37564,191883,,,,
34316,156283,37563,191906,,,,
34326,156299,37581,191884,,,,
34335,156279,37584,191899,,,,
34345,156310,37572,191877,,,,
34356,156320,37580,191886,,,,
34366,156320,37576,191914,,,,
34375,156314,37578,191883,,,,
34385,156305,37570,191891,,,,
34395,156299,37586,191885,,,,
34405,156302,37553,191882,,,,
34416,156311,37567,191887,,,,
34425,156291,37569,191891,,,,
34435,156279,37582,191891,,,,
34445,156300,37574,191848,,,,
34456,156301,37565,191868,,,,
34465,156297,37574,191860,,,,
34475,156294,37584,191855,,,,
34486,156280,37575,191845,,,,
34496,156273,37575,191835,,,,
34505,156273,37580,191850,,,,
34515,156283,37585,191838,,,,
34525,156282,37573,191837,,,,
34536,156276,37575,191841,,,,
34545,156274,37580,191843,,,,
34555,156294,37567,191835,,,,
34565,156284,37577,191851,,,,
34575,156275,37576,191842,,,,
34584,156300,37584,191821,,,,
34595,156289,37586,191832,,,,
34605,156292,37589,191842,,,,
34616,156290,37580,191816,,,,
34625,156290,37593,191807,,,,
34635,156247,37597,191805,,,,
34645,156265,37588,191822,,,,
34655,156270,37587,191804,,,,
34665,156261,37589,191797,,,,
34675,156262,37588,191798,,,,
34685,156262,37576,191809,,,,
34695,156260,37603,191794,,,,
34705,156258,37590,191806,,,,
34715,156271,37598,191776,,,,
34725,156240,37602,191795,,,,
34735,156242,37597,191805,,,,
34746,156258,37593,191787,,,,
34755,156255,37594,191800,,,,
34765,156254,37613,191791,,,,
34775,156253,37601,191786,,,,
34785,156254,37612,191796,,,,
34794,156242,37609,191792,,,,
34804,156246,37610,191789,,,,
34815,156260,37617,191779,,,,
34825,156254,37628,191770,,,,
34834,156226,37606,191778,,,,
34844,156242,37628,191783,,,,
34855,156241,37620,191779,,,,
34865,156243,37622,191765,,,,
34875,156246,37613,191772,,,,
34884,156249,37607,191766,,,,
34895,156237,37622,191777,,,,
34905,156250,37633,191773,,,,
34915,156254,37611,191737,,,,
34925,156241,37627,191773,,,,
34934,156245,37629,191745,,,,
34945,156249,37620,191749,,,,
34955,156246,37638,191749,,,,
34965,156250,37637,191751,,,,
34975,156235,37635,191755,,,,
34985,156260,37627,191759,,,,
34995,156248,37640,191776,,,,
35005,156267,37640,191766,,,,
35015,156263,37633,191777,,,,
35025,156280,37628,191773,,,,
35035,156291,37633,191770,,,,
35044,156286,37631,191815,,,,
35054,156296,37601,191776,,,,
35065,156282,37595,191793,,,,
35075,156290,37595,191778,,,,
35085,156272,37581,191778,,,,
35095,156282,37588,191769,,,,
35105,156284,37573,191766,,,,
35114,156277,37581,191782,,,,
35125,156284,37577,191767,,,,
35135,156276,37566,191774,,,,
35145,156253,37569,191761,,,,
35155,156267,37568,191751,,,,
35165,156248,37549,191737,,,,
35174,156261,37553,191735,,,,
35184,156247,37547,191727,,,,
35195,156241,37541,191734,,,,
35205,156249,37555,191718,,,,
35214,156249,37531,191714,,,,
35225,156216,37537,191719,,,,
35234,156236,37546,191691,,,,
35245,156214,37529,191690,,,,
35255,156207,37536,191664,,,,
35265,156222,37537,191653,,,,
35275,156190,37542,191659,,,,
35285,156208,37530,191642,,,,
35294,156198,37545,191665,,,,
35304,156201,37540,191634,,,,
35315,156182,37550,191643,,,,
35325,156203,37538,191628,,,,
35334,156193,37540,191646,,,,
35344,156214,37537,191656,,,,
35355,156184,37540,191669,,,,
35365,156202,37543,191643,,,,
35375,156189,37533,191643,,,,
35384,156210,37533,191652,,,,
35395,156200,37543,191643,,,,
35405,156202,37529,191652,,,,
35415,156199,37529,191638,,,,
35424,156215,37538,191627,,,,
35434,156193,37537,191630,,,,
35444,156192,37535,191622,,,,
35455,156187,37534,191631,,,,
35464,156169,37544,191628,,,,
35474,156173,37535,191618,,,,
35484,156183,37535,191617,,,,
35495,156173,37536,191592,,,,
35504,156167,37530,191615,,,,
35514,156185,37524,191606,,,,
35525,156181,37521,191599,,,,
35535,156173,37533,191577,,,,
35544,156167,37548,191596,,,,
35554,156170,37550,191591,,,,
35564,156138,37534,191593,,,,
35574,156159,37539,191585,,,,
35583,156163,37544,191554,,,,
35594,156150,37541,191573,,,,
35605,156172,37545,191571,,,,
35615,156159,37550,191560,,,,
35625,156161,37545,191560,,,,
35634,156168,37535,191572,,,,
35644,156133,37551,191576,,,,
35655,156151,37556,191558,,,,
35665,156157,37538,191563,,,,
35674,156172,37553,191557,,,,
35684,156171,37555,191574,,,,
35694,156179,37549,191582,,,,
35704,156173,37563,191591,,,,
35714,156189,37555,191584,,,,
35724,156174,37573,191581,,,,
35750,156191,37563,191597,,,,
35754,156192,37570,191606,,,,
35764,156199,37570,191586,,,,
35774,156188,37583,191620,,,,
35785,156216,37566,191625,,,,
35793,156217,37561,191618,,,,
35804,156230,37579,191615,,,,
35815,156220,37583,191626,,,,
35825,156225,37592,191625,,,,
35834,156221,37581,191631,,,,
35844,156223,37585,191644,,,,
35854,156241,37599,191641,,,,
35864,156241,37579,191611,,,,
35874,156230,37581,191651,,,,
35883,156244,37595,191636,,,,
35894,156233,37608,191645,,,,
35905,156268,37563,191660,,,,
35915,156253,37587,191667,,,,
35924,156231,37609,191691,,,,
35934,156275,37609,191683,,,,
35944,156289,37608,191694,,,,
35954,156298,37602,191700,,,,
35963,156292,37611,191693,,,,
35973,156291,37599,191716,,,,
35990,156329,37593,191722,,,,
35994,156314,37587,191723,,,,
36004,156351,37593,191722,,,,
36014,156326,37574,191715,,,,
36024,156312,37580,191706,,,,
36035,156327,37579,191724,,,,
36044,156316,37569,191703,,,,
36054,156311,37555,191704,,,,
36064,156305,37567,191689,,,,
36074,156320,37565,191706,,,,
36083,156314,37546,191688,,,,
36094,156315,37544,191692,,,,
36104,156322,37547,191685,,,,
36114,156321,37542,191676,,,,
36124,156345,37538,191701,,,,
36133,156330,37546,191686,,,,
36144,156330,37550,191673,,,,
36154,156340,37537,191678,,,,
36165,156351,37530,191673,,,,
36174,156352,37552,191686,,,,
36184,156339,37540,191681,,,,
36194,156343,37529,191712,,,,
36204,156338,37541,191696,,,,
36214,156353,37548,191698,,,,
36224,156336,37550,191710,,,,
36234,156351,37554,191692,,,,
36244,156365,37552,191682,,,,
36253,156362,37557,191704,,,,
36264,156375,37547,191702,,,,
36274,156360,37552,191696,,,,
36284,156377,37553,191700,,,,
36294,156379,37549,191717,,,,
36304,156378,37562,191723,,,,
36314,156388,37563,191720,,,,
36324,156384,37553,191729,,,,
36333,156396,37541,191717,,,,
36343,156399,37561,191714,,,,
36354,156407,37541,191724,,,,
36364,156400,37560,191737,,,,
36374,156421,37556,191725,,,,
36383,156423,37561,191721,,,,
36394,156416,37552,191750,,,,
36404,156433,37560,191736,,,,
36414,156423,37565,191741,,,,
36423,156432,37579,191715,,,,
36433,156438,37573,191729,,,,
36443,156449,37573,191735,,,,
36454,156442,37593,191733,,,,
36463,156443,37572,191751,,,,
36473,156442,37569,191757,,,,
36484,156448,37578,191768,,,,
36494,156457,37590,191770,,,,
36504,156473,37582,191774,,,,
36514,156457,37576,191763,,,,
36524,156472,37595,191755,,,,
36534,156448,37592,191772,,,,
36543,156481,37592,191764,,,,
36553,156474,37598,191776,,,,
36564,156507,37594,191767,,,,
36574,156489,37597,191782,,,,
36583,156486,37610,191789,,,,
36593,156490,37610,191798,,,,
36603,156488,37626,191799,,,,
36614,156498,37629,191785,,,,
36624,156520,37615,191787,,,,
36633,156514,37613,191794,,,,
36643,156497,37616,191784,,,,
36653,156530,37608,191813,,,,
36663,156524,37632,191765,,,,
36673,156503,37633,191800,,,,
36684,156526,37612,191786,,,,
36694,156525,37626,191811,,,,
36704,156518,37641,191801,,,,
36713,156512,37631,191816,,,,
36723,156511,37644,191828,,,,
36734,156540,37643,191781,,,,
36744,156537,37643,191815,,,,
36753,156546,37637,191816,,,,
36763,156534,37657,191828,,,,
36773,156531,37653,191833,,,,
36784,156539,37663,191839,,,,
36793,156548,37656,191844,,,,
36804,156544,37674,191839,,,,
36814,156548,37665,191830,,,,
36824,156564,37661,191817,,,,
36833,156541,37672,191824,,,,
36843,156550,37672,191858,,,,
36854,156567,37675,191851,,,,
36864,156584,37668,191858,,,,
36874,156591,37659,191873,,,,
36883,156584,37653,191889,,,,
36893,156591,37665,191889,,,,
36903,156625,37661,191903,,,,
36913,156632,37630,191902,,,,
36922,156616,37665,191894,,,,
36933,156620,37630,191902,,,,
36944,156630,37643,191903,,,,
36954,156630,37639,191894,,,,
36963,156633,37640,191866,,,,
36973,156626,37631,191898,,,,
36983,156629,37632,191894,,,,
36993,156641,37617,191902,,,,
37002,156644,37632,191875,,,,
37013,156632,37624,191876,,,,
37023,156639,37613,191896,,,,
37033,156644,37617,191908,,,,
37043,156632,37617,191902,,,,
37053,156642,37613,191887,,,,
37063,156642,37602,191898,,,,
37074,156652,37616,191889,,,,
37083,156659,37604,191903,,,,
37093,156659,37622,191906,,,,
37103,156664,37615,191917,,,,
37113,156676,37619,191904,,,,
37123,156668,37620,191906,,,,
37133,156664,37608,191917,,,,
37143,156665,37614,191894,,,,
37153,156653,37623,191889,,,,
37164,156629,37630,191884,,,,
37172,156652,37623,191871,,,,
37183,156668,37614,191884,,,,
37194,156650,37624,191889,,,,
37204,156647,37615,191877,,,,
37213,156637,37625,191893,,,,
37223,156634,37640,191902,,,,
37233,156653,37618,191868,,,,
37243,156636,37619,191863,,,,
37252,156651,37604,191864,,,,
37263,156638,37621,191868,,,,
37273,156658,37621,191847,,,,
37284,156637,37627,191854,,,,
37292,156655,37620,191852,,,,
37303,156643,37609,191853,,,,
37313,156653,37632,191827,,,,
37323,156629,37620,191824,,,,
37333,156635,37624,191842,,,,
37343,156643,37626,191851,,,,
37353,156652,37634,191824,,,,
37363,156633,37634,191844,,,,
37374,156647,37633,191845,,,,
37383,156653,37624,191841,,,,
37393,156650,37635,191837,,,,
37403,156646,37623,191835,,,,
37414,156660,37633,191844,,,,
37423,156628,37638,191809,,,,
37433,156643,37634,191847,,,,
37443,156643,37647,191836,,,,
37453,156657,37632,191834,,,,
37462,156640,37646,191835,,,,
37473,156632,37629,191850,,,,
37483,156647,37642,191828,,,,
37493,156639,37646,191847,,,,
37502,156630,37653,191835,,,,
37512,156620,37659,191830,,,,
37522,156639,37654,191814,,,,
37533,156626,37652,191826,,,,
37542,156609,37654,191806,,,,
37552,156629,37653,191836,,,,
37563,156621,37660,191821,,,,
37573,156616,37659,191794,,,,
37583,156614,37669,191825,,,,
37593,156614,37655,191815,,,,
37603,156616,37653,191803,,,,
37613,156619,37660,191798,,,,
37623,156611,37656,191801,,,,
37632,156603,37663,191803,,,,
37642,156601,37672,191806,,,,
37653,156598,37669,191809,,,,
37663,156593,37692,191792,,,,
37672,156584,37678,191777,,,,
37682,156589,37683,191779,,,,
37693,156582,37661,191784,,,,
37703,156557,37675,191774,,,,
37712,156583,37666,191794,,,,
37723,156595,37675,191783,,,,
37733,156563,37696,191779,,,,
37743,156562,37680,191758,,,,
37752,156568,37669,191764,,,,
37762,156544,37693,191758,,,,
37773,156576,37706,191746,,,,
37783,156572,37683,191761,,,,
37792,156561,37698,191767,,,,
37802,156583,37692,191757,,,,
37812,156568,37690,191774,,,,
37822,156570,37689,191782,,,,
37833,156562,37669,191777,,,,
37843,156598,37678,191808,,,,
37852,156590,37651,191785,,,,
37863,156573,37657,191791,,,,
37873,156576,37649,191756,,,,
37883,156547,37656,191762,,,,
37892,156568,37635,191752,,,,
37903,156548,37618,191752,,,,
37913,156558,37617,191734,,,,
37922,156551,37625,191754,,,,
37932,156545,37610,191716,,,,
37942,156535,37617,191734,,,,
37953,156533,37615,191717,,,,
37962,156533,37614,191699,,,,
37972,156526,37592,191697,,,,
37983,156525,37590,191703,,,,
37993,156511,37602,191687,,,,
38002,156511,37588,191697,,,,
38012,156523,37609,191680,,,,
38022,156536,37592,191667,,,,
38033,156511,37571,191689,,,,
38042,156520,37583,191686,,,,
38052,156491,37573,191680,,,,
38062,156481,37590,191663,,,,
38073,156479,37583,191644,,,,
38083,156453,37593,191659,,,,
38092,156472,37585,191646,,,,
38102,156476,37594,191652,,,,
38112,156479,37588,191659,,,,
38123,156501,37576,191652,,,,
38131,156486,37588,191650,,,,
38142,156498,37548,191669,,,,
38153,156498,37567,191640,,,,
38163,156516,37586,191664,,,,
38172,156475,37592,191669,,,,
38182,156471,37578,191658,,,,
38192,156497,37578,191642,,,,
38202,156475,37592,191644,,,,
38212,156478,37590,191647,,,,
38222,156463,37577,191627,,,,
38232,156481,37580,191628,,,,
38243,156455,37569,191626,,,,
38252,156455,37591,191623,,,,
38262,156450,37589,191588,,,,
38272,156440,37586,191602,,,,
38282,156468,37569,191608,,,,
38292,156472,37580,191605,,,,
38302,156459,37577,191604,,,,
38312,156466,37597,191605,,,,
38322,156459,37577,191627,,,,
38333,156466,37596,191599,,,,
38342,156462,37599,191616,,,,
38352,156464,37581,191576,,,,
38362,156454,37596,191602,,,,
38373,156473,37583,191584,,,,
38382,156464,37601,191596,,,,
38392,156467,37592,191596,,,,
38402,156442,37600,191587,,,,
38455,156442,37601,191568,,,,
38462,156449,37600,191512,,,,
38472,156443,37608,191564,,,,
38482,156422,37600,191568,,,,
38492,156467,37610,191547,,,,
38502,156420,37605,191569,,,,
38512,156463,37608,191543,,,,
38522,156464,37593,191536,,,,
38532,156460,37610,191549,,,,
38542,156433,37621,191551,,,,
38551,156461,37602,191539,,,,
38562,156466,37596,191544,,,,
38572,156456,37608,191517,,,,
38583,156488,37619,191527,,,,
38592,156455,37604,191496,,,,
38602,156481,37630,191501,,,,
38612,156449,37621,191512,,,,
38622,156462,37617,191498,,,,
38632,156437,37638,191508,,,,
38642,156447,37628,191493,,,,
38652,156437,37626,191503,,,,
38662,156471,37624,191498,,,,
38671,156471,37619,191528,,,,
38681,156457,37637,191509,,,,
38692,156454,37622,191503,,,,
38702,156417,37630,191486,,,,
38711,156460,37633,191493,,,,
38721,156438,37639,191494,,,,
38731,156471,37643,191480,,,,
38742,156472,37632,191498,,,,
38751,156462,37630,191500,,,,
38761,156481,37637,191539,,,,
38772,156478,37635,191522,,,,
38782,156509,37631,191506,,,,
38791,156525,37596,191526,,,,
38802,156506,37603,191505,,,,
38811,156499,37610,191487,,,,
38822,156529,37594,191517,,,,
38832,156501,37597,191479,,,,
38842,156494,37575,191489,,,,
38852,156488,37573,191455,,,,
38862,156473,37587,191457,,,,
38872,156490,37577,191469,,,,
38881,156486,37562,191456,,,,
38891,156486,37566,191465,,,,
38901,156504,37565,191421,,,,
38912,156476,37569,191456,,,,
38922,156500,37558,191421,,,,
38931,156480,37557,191434,,,,
38942,156501,37555,191433,,,,
38952,156469,37551,191426,,,,
38962,156475,37535,191412,,,,
38971,156476,37545,191404,,,,
38981,156494,37538,191387,,,,
38992,156481,37543,191402,,,,
39001,156483,37531,191399,,,,
39011,156473,37534,191395,,,,
39022,156459,37521,191381,,,,
39032,156466,37529,191390,,,,
39041,156467,37528,191358,,,,
39051,156458,37523,191385,,,,
39061,156482,37532,191375,,,,
39072,156486,37515,191401,,,,
39082,156474,37523,191379,,,,
39111,156478,37538,191387,,,,
39113,156461,37543,191398,,,,
39122,156464,37534,191352,,,,
39131,156465,37539,191342,,,,
39142,156445,37508,191353,,,,
39152,156474,37532,191365,,,,
39162,156445,37534,191348,,,,
39171,156444,37529,191361,,,,
39181,156471,37530,191364,,,,
39192,156472,37527,191330,,,,
39202,156452,37532,191354,,,,
39211,156453,37510,191352,,,,
39221,156460,37535,191337,,,,
39232,156440,37537,191337,,,,
39242,156461,37544,191350,,,,
39251,156449,37536,191319,,,,
39261,156441,37546,191337,,,,
39271,156436,37537,191331,,,,
39281,156430,37534,191333,,,,
39291,156450,37536,191317,,,,
39301,156459,37526,191323,,,,
39311,156442,37530,191320,,,,
39322,156415,37540,191325,,,,
39332,156435,37537,191315,,,,
39341,156431,37545,191319,,,,
39351,156439,37540,191304,,,,
39361,156441,37548,191268,,,,
39372,156419,37554,191286,,,,
39381,156421,37551,191299,,,,
39391,156424,37548,191290,,,,
39401,156413,37553,191296,,,,
39411,156446,37533,191285,,,,
39421,156427,37556,191289,,,,
39431,156443,37547,191290,,,,
39442,156430,37557,191322,,,,
39451,156439,37561,191298,,,,
39461,156429,37550,191309,,,,
39471,156454,37561,191322,,,,
39481,156450,37569,191329,,,,
39492,156459,37571,191312,,,,
39501,156460,37560,191325,,,,
39511,156474,37578,191337,,,,
39521,156467,37586,191328,,,,
39531,156457,37577,191342,,,,
39541,156493,37569,191348,,,,
39551,156486,37556,191350,,,,
39561,156492,37581,191373,,,,
39571,156496,37570,191368,,,,
39582,156502,37557,191328,,,,
39590,156499,37581,191366,,,,
39601,156500,37567,191370,,,,
39611,156500,37586,191373,,,,
39622,156510,37592,191371,,,,
39631,156528,37598,191369,,,,
39641,156510,37593,191369,,,,
39651,156518,37605,191392,,,,
39661,156540,37608,191417,,,,
39671,156547,37601,191410,,,,
39681,156552,37581,191398,,,,
39691,156562,37604,191419,,,,
39701,156568,37611,191394,,,,
39710,156553,37618,191439,,,,
39721,156588,37608,191443,,,,
39731,156596,37596,191439,,,,
39741,156581,37600,191479,,,,
39750,156614,37593,191456,,,,
39761,156613,37571,191504,,,,
39771,156625,37591,191488,,,,
39781,156619,37584,191494,,,,
39791,156612,37581,191450,,,,
39800,156631,37568,191493,,,,
39811,156619,37572,191488,,,,
39821,156631,37551,191446,,,,
39831,156630,37569,191493,,,,
39840,156634,37566,191503,,,,
39851,156639,37544,191471,,,,
39861,156627,37555,191479,,,,
39871,156634,37546,191474,,,,
39881,156651,37553,191489,,,,
39891,156651,37560,191467,,,,
39901,156633,37558,191487,,,,
39911,156649,37567,191485,,,,
39920,156649,37545,191457,,,,
39930,156681,37554,191502,,,,
39941,156680,37561,191487,,,,
39951,156671,37564,191478,,,,
39961,156658,37561,191472,,,,
39970,156674,37558,191471,,,,
39981,156670,37555,191471,,,,
39991,156682,37554,191475,,,,
40001,156673,37559,191491,,,,
40010,156681,37564,191461,,,,
40020,156687,37562,191490,,,,
40031,156700,37562,191489,,,,
40041,156699,37552,191479,,,,
40050,156710,37553,191481,,,,
40061,156704,37541,191455,,,,
40071,156717,37572,191508,,,,
40081,156721,37561,191479,,,,
40091,156715,37570,191519,,,,
40101,156743,37566,191511,,,,
40111,156741,37550,191496,,,,
40121,156737,37570,191507,,,,
40130,156747,37563,191501,,,,
40140,156740,37575,191501,,,,
40151,156748,37559,191515,,,,
40168,156736,37571,191500,,,,
40171,156766,37572,191511,,,,
40180,156763,37580,191510,,,,
40190,156772,37589,191510,,,,
40201,156773,37583,191524,,,,
40210,156769,37576,191494,,,,
40220,156777,37601,191512,,,,
40231,156789,37599,191522,,,,
40241,156805,37598,191544,,,,
40250,156780,37592,191528,,,,
40260,156817,37596,191549,,,,
40271,156825,37613,191527,,,,
40281,156846,37600,191539,,,,
40291,156837,37603,191536,,,,
40300,156838,37604,191552,,,,
40310,156835,37599,191546,,,,
40320,156855,37619,191543,,,,
40331,156861,37602,191554,,,,
40340,156833,37619,191544,,,,
40350,156840,37630,191537,,,,
40360,156865,37601,191525,,,,
40371,156848,37622,191534,,,,
40380,156864,37614,191554,,,,
40390,156865,37631,191556,,,,
40400,156891,37608,191541,,,,
40411,156899,37623,191534,,,,
40420,156892,37641,191578,,,,
40430,156920,37640,191545,,,,
40440,156893,37640,191584,,,,
40451,156902,37651,191564,,,,
40460,156905,37658,191589,,,,
40470,156923,37646,191572,,,,
40480,156893,37659,191574,,,,
40491,156904,37651,191583,,,,
40500,156912,37651,191587,,,,
40510,156931,37654,191568,,,,
40520,156917,37657,191587,,,,
40531,156910,37653,191568,,,,
40541,156925,37666,191596,,,,
40550,156935,37664,191593,,,,
40560,156949,37684,191560,,,,
40570,156934,37653,191583,,,,
40580,156947,37680,191612,,,,
40590,156962,37667,191577,,,,
40600,156948,37701,191594,,,,
40610,156959,37677,191604,,,,
40620,156963,37708,191583,,,,
40630,156977,37686,191614,,,,
40640,156993,37675,191588,,,,
40650,157002,37660,191643,,,,
40660,157009,37716,191633,,,,
40669,157012,37648,191646,,,,
40680,157013,37643,191660,,,,
40690,157017,37658,191641,,,,
40700,157011,37646,191663,,,,
40710,157001,37650,191657,,,,
40720,157004,37652,191645,,,,
40730,157005,37654,191657,,,,
40740,157010,37631,191646,,,,
40750,157006,37643,191647,,,,
40760,157025,37614,191635,,,,
40770,157012,37628,191647,,,,
40781,157002,37610,191641,,,,
40791,157020,37630,191648,,,,
40800,157002,37615,191643,,,,
40810,157000,37620,191668,,,,
40820,157031,37609,191669,,,,
40830,157031,37625,191652,,,,
40839,157021,37603,191668,,,,
40850,157046,37617,191665,,,,
40860,157030,37632,191672,,,,
40870,157044,37607,191688,,,,
40879,157038,37647,191652,,,,
40890,157033,37621,191665,,,,
40900,157016,37610,191631,,,,
40910,157016,37615,191658,,,,
40920,157000,37601,191613,,,,
40930,157001,37618,191612,,,,
40940,157000,37626,191636,,,,
40950,156999,37630,191640,,,,
40959,157003,37609,191634,,,,
40969,157005,37618,191633,,,,
40980,157008,37607,191621,,,,
40990,157005,37627,191603,,,,
41000,156969,37597,191631,,,,
41009,156997,37610,191598,,,,
41020,156967,37597,191626,,,,
41030,156990,37622,191624,,,,
41041,156992,37605,191644,,,,
41049,157009,37634,191622,,,,
41060,156978,37604,191636,,,,
41070,157006,37638,191629,,,,
41081,156989,37621,191632,,,,
41089,157004,37608,191630,,,,
41100,156985,37632,191629,,,,
41110,156988,37629,191625,,,,
41120,156974,37642,191610,,,,
41130,156973,37620,191622,,,,
41140,156968,37604,191610,,,,
41150,156986,37630,191611,,,,
41160,156985,37652,191629,,,,
41169,156974,37625,191620,,,,
41179,156971,37660,191616,,,,
41190,156958,37624,191614,,,,
41200,156960,37614,191592,,,,
41209,156958,37621,191604,,,,
41219,156954,37626,191590,,,,
41230,156966,37630,191597,,,,
41240,156954,37643,191595,,,,
41250,156944,37646,191605,,,,
41259,156956,37646,191616,,,,
41269,156960,37637,191594,,,,
41280,156956,37648,191584,,,,
41290,156943,37663,191596,,,,
41299,156960,37674,191581,,,,
41310,156930,37658,191595,,,,
41320,156947,37658,191599,,,,
41330,156933,37665,191600,,,,
41339,156940,37664,191581,,,,
41349,156956,37646,191622,,,,
41359,156957,37654,191595,,,,
41369,156947,37651,191581,,,,
41379,156939,37655,191607,,,,
41390,156937,37666,191601,,,,
41400,156927,37652,191592,,,,
41410,156916,37662,191588,,,,
41419,156925,37632,191583,,,,
41430,156931,37668,191571,,,,
41440,156918,37656,191578,,,,
41450,156901,37664,191561,,,,
41459,156907,37699,191561,,,,
41469,156910,37674,191562,,,,
41479,156885,37705,191560,,,,
41489,156909,37673,191539,,,,
41500,156890,37686,191564,,,,
41510,156896,37686,191556,,,,
41520,156882,37684,191550,,,,
41529,156892,37675,191525,,,,
41540,156881,37690,191547,,,,
41549,156892,37681,191549,,,,
41559,156894,37680,191553,,,,
41570,156890,37692,191565,,,,
41580,156885,37700,191563,,,,
41589,156906,37689,191549,,,,
41599,156894,37673,191580,,,,
41609,156893,37674,191564,,,,
41619,156928,37639,191555,,,,
41628,156912,37645,191558,,,,
41639,156904,37659,191573,,,,
41650,156909,37648,191552,,,,
41660,156901,37640,191556,,,,
41669,156885,37652,191530,,,,
41679,156884,37592,191517,,,,
41690,156875,37625,191529,,,,
41700,156876,37609,191524,,,,
41709,156867,37595,191517,,,,
41719,156868,37637,191496,,,,
41729,156851,37601,191499,,,,
41739,156849,37597,191503,,,,
41750,156837,37608,191499,,,,
41759,156852,37582,191487,,,,
41769,156843,37589,191485,,,,
41779,156837,37564,191481,,,,
41789,156843,37573,191465,,,,
41799,156849,37578,191459,,,,
41810,156831,37571,191459,,,,
41820,156802,37592,191456,,,,
41830,156811,37576,191458,,,,
41839,156820,37576,191443,,,,
41849,156800,37575,191455,,,,
41859,156799,37565,191428,,,,
41869,156799,37587,191401,,,,
41878,156788,37590,191424,,,,
41888,156784,37580,191433,,,,
41899,156784,37566,191427,,,,
41910,156782,37573,191416,,,,
41919,156787,37546,191420,,,,
41929,156772,37572,191415,,,,
41939,156786,37554,191421,,,,
41950,156766,37572,191396,,,,
41959,156776,37570,191411,,,,
41969,156776,37553,191401,,,,
41979,156756,37557,191401,,,,
41989,156759,37580,191406,,,,
41999,156764,37570,191391,,,,
42009,156745,37568,191371,,,,
42019,156753,37576,191352,,,,
42030,156743,37565,191338,,,,
42040,156719,37572,191349,,,,
42049,156723,37571,191334,,,,
42059,156715,37564,191332,,,,
42069,156707,37573,191338,,,,
42079,156723,37572,191320,,,,
42088,156709,37578,191348,,,,
42099,156732,37548,191336,,,,
42110,156718,37565,191307,,,,
42120,156699,37591,191326,,,,
42129,156708,37571,191329,,,,
42139,156684,37581,191330,,,,
42149,156700,37564,191328,,,,
42159,156689,37554,191320,,,,
42169,156685,37582,191306,,,,
42179,156705,37580,191334,,,,
42189,156690,37569,191293,,,,
42199,156685,37581,191307,,,,
42209,156657,37588,191288,,,,
42219,156679,37594,191267,,,,
42229,156663,37572,191288,,,,
42239,156646,37593,191280,,,,
42249,156675,37575,191275,,,,
42258,156662,37574,191290,,,,
42268,156665,37590,191276,,,,
42279,156661,37571,191275,,,,
42290,156655,37595,191259,,,,
42299,156631,37593,191273,,,,
42309,156649,37597,191239,,,,
42319,156630,37594,191263,,,,
42329,156639,37597,191252,,,,
42338,156639,37603,191252,,,,
42348,156618,37599,191233,,,,
42359,156613,37593,191230,,,,
42369,156616,37600,191238,,,,
42378,156619,37607,191229,,,,
42389,156593,37609,191233,,,,
42399,156617,37607,191216,,,,
42409,156599,37612,191224,,,,
42418,156615,37602,191205,,,,
42428,156589,37613,191224,,,,
42438,156609,37593,191214,,,,
42449,156604,37597,191220,,,,
42458,156613,37609,191226,,,,
42469,156603,37608,191208,,,,
42479,156598,37591,191220,,,,
42489,156589,37609,191178,,,,
42499,156587,37606,191202,,,,
42508,156596,37621,191189,,,,
42518,156597,37611,191197,,,,
42529,156571,37597,191201,,,,
42539,156570,37605,191174,,,,
42548,156566,37614,191153,,,,
42559,156554,37621,191170,,,,
42569,156549,37618,191165,,,,
42579,156578,37621,191150,,,,
42590,156575,37630,191175,,,,
42611,156589,37614,191188,,,,
42619,156590,37617,191194,,,,
42628,156586,37587,191183,,,,
42638,156592,37610,191169,,,,
42648,156592,37601,191213,,,,
42659,156601,37597,191201,,,,
42669,156599,37583,191203,,,,
42679,156600,37586,191192,,,,
42689,156608,37567,191214,,,,
42699,156577,37579,191183,,,,
42708,156600,37568,191191,,,,
42718,156600,37558,191200,,,,
42729,156576,37569,191186,,,,
42738,156598,37555,191166,,,,
42749,156598,37544,191164,,,,
42758,156601,37546,191162,,,,
42768,156593,37539,191140,,,,
42778,156595,37546,191146,,,,
42788,156571,37529,191128,,,,
42798,156573,37528,191121,,,,
42808,156571,37540,191096,,,,
42818,156558,37537,191101,,,,
42828,156571,37522,191121,,,,
42838,156567,37518,191111,,,,
42849,156570,37526,191093,,,,
42859,156570,37521,191093,,,,
42869,156579,37522,191082,,,,
42878,156569,37514,191070,,,,
42888,156570,37511,191058,,,,
42898,156552,37516,191063,,,,
42909,156556,37504,191060,,,,
42917,156576,37520,191052,,,,
42928,156582,37492,191053,,,,
42938,156581,37512,191029,,,,
42949,156589,37504,191060,,,,
42958,156583,37511,191066,,,,
42968,156598,37509,191049,,,,
42978,156596,37519,191077,,,,
42988,156593,37522,191070,,,,
42999,156606,37499,191078,,,,
43008,156609,37512,191042,,,,
43018,156590,37529,191066,,,,
43028,156585,37509,191051,,,,
43038,156606,37505,191012,,,,
43048,156578,37513,191045,,,,
43058,156583,37511,191036,,,,
43068,156551,37514,191023,,,,
43078,156568,37504,191017,,,,
43088,156578,37507,191011,,,,
43098,156570,37517,191011,,,,
43108,156575,37495,191004,,,,
43118,156573,37511,191007,,,,
43127,156583,37519,191007,,,,
43137,156574,37499,191002,,,,
43149,156598,37511,190992,,,,
43159,156580,37512,191019,,,,
43168,156597,37511,190998,,,,
43178,156564,37510,190988,,,,
43188,156576,37528,190976,,,,
43198,156579,37525,190966,,,,
43208,156564,37518,190997,,,,
43217,156558,37510,190973,,,,
43229,156542,37518,190970,,,,
43238,156548,37512,190954,,,,
43249,156553,37520,190956,,,,
43257,156546,37532,190932,,,,
43268,156545,37518,190952,,,,
43278,156553,37526,190942,,,,
43288,156555,37528,190907,,,,
43297,156550,37525,190947,,,,
43307,156557,37538,190934,,,,
43318,156539,37539,190942,,,,
43329,156527,37539,190965,,,,
43338,156553,37534,190952,,,,
43348,156558,37543,190909,,,,
43358,156540,37532,190940,,,,
43368,156560,37526,190933,,,,
43377,156541,37539,190921,,,,
43388,156539,37536,190916,,,,
43398,156548,37532,190896,,,,
43408,156508,37548,190925,,,,
43417,156541,37544,190930,,,,
43427,156541,37535,190920,,,,
43437,156533,37541,190906,,,,
43448,156528,37538,190900,,,,
43458,156538,37549,190885,,,,
43467,156522,37537,190907,,,,
43478,156522,37549,190888,,,,
43488,156510,37553,190898,,,,
43498,156507,37533,190886,,,,
43507,156500,37551,190888,,,,
43517,156534,37555,190885,,,,
43528,156540,37549,190871,,,,
43538,156527,37552,190863,,,,
43547,156493,37536,190874,,,,
43557,156518,37567,190867,,,,
43567,156527,37558,190892,,,,
43578,156516,37537,190884,,,,
43588,156507,37569,190882,,,,
43598,156536,37557,190874,,,,
43608,156529,37558,190894,,,,
43618,156547,37565,190890,,,,
43627,156569,37558,190902,,,,
43637,156558,37554,190926,,,,
43647,156551,37553,190923,,,,
43658,156578,37541,190904,,,,
43668,156565,37536,190919,,,,
43678,156578,37529,190926,,,,
43688,156557,37529,190890,,,,
43698,156539,37518,190900,,,,
43708,156574,37491,190902,,,,
43717,156581,37523,190902,,,,
43727,156566,37511,190895,,,,
43737,156562,37506,190891,,,,
43747,156581,37503,190917,,,,
43757,156583,37482,190909,,,,
43768,156582,37502,190895,,,,
43778,156581,37499,190906,,,,
43788,156572,37496,190895,,,,
43797,156567,37475,190881,,,,
43807,156572,37476,190876,,,,
43817,156547,37485,190879,,,,
43828,156576,37473,190870,,,,
43837,156563,37476,190844,,,,
43847,156555,37475,190861,,,,
43857,156563,37473,190859,,,,
43867,156556,37472,190839,,,,
43877,156551,37470,190832,,,,
43887,156540,37467,190803,,,,
43897,156507,37475,190816,,,,
43908,156548,37468,190800,,,,
43917,156532,37464,190783,,,,
43927,156519,37476,190792,,,,
43937,156524,37473,190795,,,,
43947,156523,37466,190797,,,,
43958,156534,37470,190803,,,,
43967,156563,37475,190796,,,,
43977,156559,37471,190789,,,,
43988,156538,37478,190795,,,,
43998,156560,37469,190796,,,,
44007,156538,37477,190801,,,,
44017,156544,37466,190769,,,,
44027,156556,37469,190772,,,,
44037,156539,37481,190794,,,,
44046,156534,37475,190775,,,,
44057,156537,37464,190792,,,,
44067,156527,37479,190779,,,,
44077,156558,37436,190775,,,,
44086,156543,37471,190777,,,,
44097,156555,37461,190778,,,,
44110,156530,37459,190767,,,,
44118,156534,37458,190756,,,,
44127,156552,37470,190776,,,,
44137,156537,37465,190761,,,,
44147,156518,37473,190763,,,,
44158,156528,37481,190735,,,,
44167,156506,37477,190757,,,,
44177,156519,37476,190737,,,,
44187,156495,37487,190733,,,,
44197,156525,37487,190718,,,,
44207,156516,37480,190732,,,,
44217,156512,37491,190753,,,,
44227,156523,37481,190711,,,,
44238,156506,37493,190739,,,,
44248,156521,37491,190713,,,,
44257,156526,37469,190723,,,,
44267,156500,37481,190733,,,,
44277,156514,37495,190749,,,,
44288,156535,37495,190765,,,,
44297,156527,37498,190752,,,,
44307,156529,37502,190768,,,,
44317,156555,37493,190765,,,,
44327,156557,37487,190767,,,,
44337,156558,37513,190762,,,,
44347,156554,37495,190803,,,,
44357,156562,37514,190781,,,,
44367,156584,37510,190818,,,,
44376,156583,37498,190806,,,,
44387,156593,37514,190808,,,,
44397,156580,37512,190842,,,,
44407,156581,37509,190824,,,,
44416,156590,37528,190844,,,,
44429,156573,37527,190836,,,,
44437,156604,37512,190849,,,,
44447,156585,37523,190855,,,,
44457,156601,37544,190856,,,,
44467,156612,37515,190863,,,,
44477,156606,37525,190815,,,,
44487,156604,37546,190856,,,,
44497,156628,37543,190885,,,,
44506,156616,37541,190867,,,,
44517,156629,37534,190890,,,,
44527,156629,37546,190885,,,,
44537,156629,37542,190908,,,,
44546,156648,37551,190897,,,,
44557,156655,37566,190931,,,,
44567,156667,37543,190921,,,,
44577,156668,37552,190921,,,,
44586,156671,37564,190931,,,,
44597,156696,37541,190964,,,,
44607,156709,37542,190958,,,,
44617,156700,37545,190982,,,,
44626,156704,37543,190986,,,,
44637,156712,37530,190980,,,,
44646,156718,37513,190993,,,,
44657,156714,37531,190965,,,,
44666,156719,37520,190985,,,,
44676,156723,37515,190982,,,,
44686,156726,37509,190988,,,,
44697,156728,37514,190976,,,,
44707,156728,37520,190997,,,,
44716,156730,37513,190993,,,,
44726,156713,37517,191002,,,,
44737,156738,37512,191005,,,,
44747,156713,37509,190997,,,,
44756,156729,37495,191021,,,,
44766,156715,37510,191018,,,,
44777,156746,37510,191012,,,,
44787,156743,37504,191018,,,,
44796,156757,37513,191029,,,,
44806,156726,37492,191015,,,,
44817,156749,37512,191021,,,,
44827,156738,37504,191017,,,,
44836,156719,37514,191007,,,,
44846,156717,37504,191023,,,,
44857,156729,37495,191000,,,,
44867,156733,37516,191007,,,,
44876,156711,37518,190990,,,,
44886,156726,37512,191008,,,,
44897,156723,37517,191000,,,,
44907,156698,37517,191011,,,,
44916,156721,37519,191008,,,,
44926,156721,37515,191002,,,,
44937,156706,37502,191006,,,,
44947,156708,37510,191018,,,,
44957,156712,37522,191009,,,,
44966,156727,37517,191002,,,,
44977,156712,37527,191005,,,,
44987,156706,37524,191028,,,,
44997,156709,37516,191019,,,,
45006,156713,37521,190995,,,,
45016,156701,37529,191010,,,,
45026,156705,37522,191013,,,,
45037,156722,37513,191021,,,,
45046,156730,37524,191009,,,,
45056,156715,37531,191024,,,,
45066,156715,37531,191022,,,,
45077,156734,37538,191024,,,,
45086,156735,37539,191012,,,,
45096,156732,37552,191034,,,,
45106,156746,37545,191034,,,,
45116,156730,37512,191001,,,,
45125,156721,37557,191003,,,,
45136,156717,37540,191023,,,,
45146,156709,37541,190993,,,,
45156,156715,37539,191023,,,,
45166,156724,37562,190995,,,,
45176,156718,37558,191005,,,,
45186,156723,37569,190980,,,,
45196,156706,37572,190983,,,,
45206,156726,37564,190977,,,,
45216,156699,37567,190997,,,,
45227,156708,37556,190992,,,,
45236,156725,37568,190989,,,,
45247,156721,37555,190999,,,,
45256,156728,37571,190981,,,,
45266,156735,37580,190994,,,,
45276,156738,37569,190997,,,,
45286,156740,37574,190992,,,,
45296,156738,37572,191006,,,,
45306,156750,37585,191004,,,,
45316,156746,37584,190992,,,,
45326,156772,37580,190994,,,,
45336,156740,37580,190992,,,,
45346,156756,37581,191001,,,,
45356,156728,37578,191017,,,,
45366,156743,37592,191018,,,,
45375,156755,37594,190994,,,,
45386,156762,37583,191001,,,,
45396,156750,37596,191018,,,,
45406,156767,37596,190998,,,,
45416,156756,37591,191024,,,,
45425,156770,37609,191029,,,,
45436,156765,37591,191008,,,,
45446,156756,37602,191006,,,,
45456,156753,37597,191011,,,,
45466,156752,37607,191018,,,,
45476,156766,37609,190991,,,,
45486,156785,37606,191029,,,,
45496,156773,37619,191028,,,,
45509,156783,37595,191035,,,,
45516,156794,37617,191050,,,,
45526,156813,37605,191059,,,,
45536,156821,37600,191059,,,,
45546,156819,37591,191089,,,,
45555,156817,37602,191057,,,,
45566,156834,37601,191076,,,,
45576,156824,37594,191078,,,,
45585,156816,37590,191083,,,,
45596,156818,37562,191083,,,,
45606,156818,37583,191081,,,,
45616,156819,37574,191073,,,,
45626,156800,37576,191060,,,,
45636,156808,37577,191055,,,,
45646,156804,37566,191050,,,,
45656,156806,37554,191066,,,,
45666,156808,37542,191037,,,,
45676,156812,37552,191065,,,,
45686,156800,37549,191038,,,,
45696,156797,37551,191050,,,,
45706,156811,37548,191038,,,,
45715,156799,37554,191042,,,,
45725,156812,37534,191037,,,,
45736,156790,37539,191025,,,,
45746,156807,37544,191030,,,,
45756,156814,37509,191013,,,,
45766,156803,37526,191000,,,,
45776,156798,37533,191002,,,,
45786,156806,37529,190974,,,,
45795,156782,37536,190986,,,,
45806,156781,37525,190964,,,,
45815,156766,37542,190958,,,,
45826,156774,37536,190966,,,,
45835,156771,37553,190952,,,,
45846,156789,37518,190952,,,,
45856,156778,37546,190947,,,,
45866,156759,37533,190967,,,,
45875,156783,37524,190946,,,,
45885,156761,37528,190940,,,,
45896,156791,37547,190948,,,,
45906,156787,37519,190949,,,,
45916,156790,37549,190938,,,,
45925,156801,37535,190930,,,,
45935,156784,37530,190940,,,,
45945,156783,37537,190930,,,,
45956,156772,37542,190953,,,,
45966,156781,37530,190941,,,,
45976,156778,37534,190909,,,,
45986,156771,37533,190908,,,,
45996,156761,37523,190902,,,,
46005,156762,37532,190915,,,,
46015,156778,37543,190914,,,,
46025,156774,37545,190915,,,,
46036,156781,37531,190894,,,,
46045,156789,37534,190893,,,,
46055,156795,37539,190896,,,,
46065,156777,37534,190890,,,,
46076,156784,37551,190875,,,,
46085,156768,37540,190855,,,,
46096,156782,37530,190881,,,,
46106,156793,37547,190850,,,,
46116,156751,37542,190875,,,,
46125,156784,37532,190868,,,,
46135,156783,37534,190850,,,,
46145,156793,37543,190884,,,,
46156,156786,37547,190862,,,,
46166,156766,37551,190855,,,,
46175,156770,37542,190831,,,,
46185,156782,37545,190826,,,,
46195,156791,37555,190844,,,,
46205,156798,37552,190855,,,,
46215,156787,37554,190864,,,,
46226,156783,37548,190848,,,,
46235,156799,37552,190835,,,,
46246,156797,37551,190848,,,,
46254,156810,37555,190831,,,,
46265,156799,37549,190829,,,,
46275,156779,37553,190811,,,,
46286,156804,37557,190822,,,,
46295,156800,37555,190827,,,,
46305,156800,37557,190827,,,,
46316,156790,37556,190826,,,,
46326,156788,37556,190791,,,,
46335,156788,37555,190812,,,,
46345,156790,37562,190810,,,,
46355,156797,37572,190800,,,,
46366,156788,37575,190807,,,,
46375,156797,37554,190812,,,,
46385,156807,37551,190796,,,,
46395,156785,37576,190782,,,,
46406,156789,37577,190796,,,,
46415,156790,37585,190788,,,,
46425,156804,37570,190782,,,,
46435,156801,37576,190754,,,,
46446,156806,37564,190776,,,,
46456,156797,37590,190757,,,,
46465,156787,37591,190764,,,,
46475,156779,37578,190782,,,,
46485,156773,37591,190768,,,,
46495,156804,37587,190767,,,,
46504,156818,37588,190771,,,,
46515,156798,37574,190792,,,,
46530,156827,37577,190780,,,,
46535,156815,37583,190789,,,,
46544,156830,37580,190818,,,,
46555,156829,37563,190816,,,,
46565,156842,37558,190789,,,,
46575,156816,37544,190774,,,,
46584,156835,37543,190770,,,,
46595,156840,37530,190783,,,,
46605,156824,37518,190788,,,,
46615,156832,37534,190783,,,,
46625,156826,37538,190767,,,,
46634,156841,37526,190769,,,,
46645,156815,37519,190761,,,,
46656,156827,37521,190755,,,,
46666,156821,37521,190747,,,,
46675,156817,37496,190746,,,,
46685,156811,37492,190741,,,,
46695,156831,37491,190718,,,,
46705,156800,37494,190699,,,,
46715,156796,37487,190709,,,,
46725,156822,37483,190696,,,,
46735,156805,37487,190706,,,,
46745,156801,37491,190672,,,,
46755,156797,37491,190686,,,,
46765,156789,37485,190672,,,,
46775,156815,37482,190656,,,,
46785,156799,37468,190666,,,,
46794,156801,37469,190667,,,,
46804,156804,37478,190659,,,,
46815,156781,37481,190673,,,,
46825,156800,37487,190668,,,,
46834,156804,37484,190681,,,,
46844,156818,37482,190676,,,,
46855,156814,37471,190683,,,,
46865,156838,37474,190679,,,,
46875,156818,37474,190683,,,,
46884,156824,37484,190694,,,,
46894,156823,37464,190666,,,,
46905,156829,37463,190684,,,,
46915,156800,37478,190656,,,,
46925,156823,37472,190643,,,,
46935,156819,37481,190642,,,,
46945,156819,37485,190643,,,,
46955,156831,37468,190643,,,,
46964,156810,37469,190610,,,,
46975,156795,37477,190633,,,,
46985,156795,37481,190621,,,,
46995,156789,37481,190622,,,,
47004,156815,37483,190597,,,,
47015,156787,37472,190623,,,,
47025,156819,37465,190635,,,,
47035,156817,37472,190607,,,,
47044,156816,37468,190629,,,,
47055,156811,37468,190614,,,,
47065,156793,37477,190606,,,,
47075,156790,37495,190602,,,,
47084,156794,37493,190597,,,,
47095,156806,37483,190588,,,,
47105,156781,37482,190589,,,,
47115,156795,37477,190576,,,,
47125,156778,37485,190562,,,,
47134,156791,37485,190560,,,,
47144,156792,37483,190573,,,,
47155,156793,37502,190558,,,,
47165,156792,37488,190547,,,,
47174,156797,37480,190550,,,,
47184,156785,37500,190550,,,,
47194,156786,37468,190561,,,,
47204,156781,37492,190548,,,,
47214,156788,37467,190551,,,,
47224,156772,37489,190538,,,,
47234,156775,37490,190544,,,,
47245,156762,37499,190540,,,,
47254,156781,37504,190522,,,,
47270,156782,37499,190542,,,,
47274,156778,37487,190509,,,,
47285,156793,37512,190525,,,,
47294,156784,37500,190497,,,,
47305,156754,37509,190517,,,,
47314,156782,37502,190514,,,,
47325,156783,37510,190515,,,,
47334,156779,37508,190523,,,,
47344,156788,37509,190509,,,,
47355,156790,37510,190528,,,,
47365,156794,37518,190523,,,,
47375,156784,37516,190526,,,,
47384,156796,37527,190542,,,,
47394,156783,37512,190519,,,,
47404,156785,37510,190535,,,,
47415,156797,37518,190529,,,,
47424,156803,37504,190523,,,,
47434,156806,37510,190536,,,,
47445,156799,37525,190532,,,,
47455,156795,37528,190547,,,,
47464,156811,37522,190553,,,,
47474,156820,37521,190583,,,,
47484,156843,37538,190584,,,,
47495,156846,37525,190595,,,,
47504,156865,37534,190606,,,,
47514,156878,37520,190598,,,,
47524,156887,37522,190620,,,,
47534,156869,37506,190612,,,,
47544,156861,37515,190639,,,,
47554,156906,37499,190639,,,,
47565,156900,37498,190633,,,,
47574,156909,37500,190617,,,,
47584,156914,37490,190629,,,,
47594,156903,37494,190643,,,,
47604,156906,37481,190639,,,,
47615,156903,37488,190640,,,,
47625,156911,37480,190648,,,,
47634,156909,37479,190643,,,,
47644,156909,37459,190634,,,,
47654,156917,37455,190648,,,,
47665,156935,37462,190657,,,,
47674,156937,37466,190674,,,,
47684,156917,37463,190653,,,,
47694,156917,37471,190666,,,,
47704,156933,37463,190653,,,,
47714,156929,37454,190676,,,,
47724,156960,37453,190693,,,,
47734,156959,37453,190696,,,,
47744,156947,37442,190681,,,,
47754,156926,37473,190691,,,,
47764,156952,37473,190693,,,,
47774,156938,37463,190710,,,,
47784,156938,37474,190702,,,,
47794,156960,37474,190703,,,,
47804,156958,37474,190701,,,,
47814,156932,37474,190704,,,,
47824,156973,37470,190710,,,,
47834,156935,37477,190699,,,,
47844,156950,37471,190726,,,,
47854,156930,37472,190720,,,,
47864,156955,37475,190723,,,,
47874,156953,37475,190712,,,,
47884,156959,37461,190713,,,,
47893,156948,37475,190734,,,,
47904,156965,37476,190715,,,,
47915,156965,37474,190723,,,,
47924,156946,37474,190713,,,,
47934,156949,37469,190709,,,,
47944,156939,37494,190716,,,,
47954,156968,37479,190727,,,,
47963,156956,37496,190705,,,,
47973,156953,37470,190722,,,,
47984,156952,37483,190716,,,,
47994,156961,37489,190702,,,,
48004,156943,37495,190709,,,,
48014,156972,37494,190728,,,,
48024,156977,37486,190747,,,,
48034,156984,37489,190727,,,,
48043,156969,37498,190747,,,,
48053,156958,37516,190744,,,,
48063,156979,37503,190740,,,,
48074,156962,37500,190749,,,,
48083,156994,37507,190741,,,,
48093,156997,37504,190744,,,,
48103,156996,37502,190755,,,,
48114,157005,37522,190763,,,,
48124,157020,37506,190757,,,,
48133,157018,37507,190759,,,,
48143,157015,37518,190773,,,,
48154,157035,37501,190740,,,,
48164,157035,37538,190785,,,,
48174,157032,37516,190760,,,,
48184,157045,37529,190760,,,,
48194,157025,37527,190768,,,,
48204,157024,37526,190793,,,,
48213,157052,37527,190791,,,,
48223,157047,37534,190767,,,,
48234,157046,37535,190773,,,,
48244,157054,37534,190761,,,,
48253,157074,37549,190793,,,,
48263,157071,37537,190783,,,,
48273,157079,37545,190782,,,,
48283,157078,37550,190784,,,,
48293,157069,37561,190796,,,,
48304,157098,37554,190811,,,,
48314,157082,37563,190791,,,,
48324,157074,37541,190808,,,,
48333,157101,37584,190808,,,,
48343,157095,37581,190809,,,,
48353,157129,37557,190802,,,,
48364,157103,37565,190818,,,,
48374,157116,37578,190824,,,,
48384,157119,37577,190834,,,,
48393,157128,37577,190829,,,,
48404,157150,37570,190837,,,,
48414,157152,37585,190846,,,,
48423,157159,37575,190873,,,,
48433,157178,37559,190878,,,,
48443,157180,37557,190874,,,,
48454,157174,37561,190863,,,,
48463,157197,37562,190889,,,,
48473,157181,37562,190843,,,,
48483,157197,37546,190885,,,,
48493,157195,37543,190875,,,,
48503,157191,37553,190875,,,,
48513,157205,37541,190846,,,,
48524,157200,37522,190846,,,,
48534,157194,37539,190875,,,,
48543,157184,37525,190848,,,,
48553,157190,37539,190854,,,,
48563,157188,37536,190838,,,,
48573,157171,37506,190844,,,,
48583,157190,37534,190845,,,,
48593,157185,37523,190820,,,,
48604,157179,37521,190827,,,,
48614,157177,37501,190830,,,,
48624,157201,37510,190823,,,,
48633,157185,37516,190831,,,,
48643,157186,37518,190807,,,,
48654,157191,37498,190811,,,,
48664,157174,37524,190806,,,,
48673,157173,37499,190800,,,,
48683,157163,37514,190790,,,,
48693,157169,37520,190789,,,,
48703,157175,37513,190767,,,,
48713,157156,37517,190780,,,,
48723,157171,37519,190774,,,,
48733,157187,37503,190789,,,,
48743,157172,37524,190807,,,,
48753,157181,37508,190790,,,,
48763,157175,37530,190798,,,,
48773,157168,37535,190787,,,,
48783,157191,37524,190793,,,,
48792,157189,37528,190814,,,,
48802,157201,37523,190815,,,,
48813,157197,37524,190833,,,,
48823,157209,37524,190803,,,,
48833,157203,37517,190828,,,,
48843,157233,37525,190814,,,,
48853,157219,37531,190839,,,,
48863,157204,37527,190840,,,,
48874,157212,37542,190838,,,,
48883,157204,37534,190849,,,,
48893,157236,37542,190844,,,,
48903,157227,37543,190841,,,,
48913,157243,37542,190861,,,,
48922,157216,37551,190869,,,,
48933,157239,37539,190864,,,,
48943,157208,37540,190867,,,,
48953,157241,37542,190850,,,,
48963,157230,37555,190853,,,,
48973,157249,37552,190842,,,,
48983,157254,37566,190893,,,,
48993,157252,37559,190871,,,,
49002,157205,37567,190877,,,,
49013,157239,37575,190880,,,,
49023,157223,37568,190874,,,,
49033,157258,37577,190843,,,,
49042,157259,37576,190870,,,,
49052,157235,37564,190871,,,,
49062,157252,37579,190861,,,,
49073,157262,37590,190870,,,,
49083,157270,37584,190876,,,,
49093,157257,37572,190860,,,,
49103,157255,37576,190872,,,,
49113,157275,37570,190875,,,,
49123,157246,37582,190864,,,,
49132,157256,37594,190860,,,,
49142,157265,37586,190869,,,,
49152,157272,37577,190870,,,,
49163,157254,37590,190880,,,,
49173,157287,37600,190857,,,,
49183,157276,37590,190883,,,,
49193,157273,37603,190885,,,,
49203,157287,37607,190890,,,,
49212,157275,37604,190886,,,,
49222,157281,37612,190876,,,,
49233,157272,37610,190885,,,,
49243,157272,37618,190887,,,,
49252,157274,37619,190896,,,,
49263,157295,37619,190894,,,,
49273,157288,37619,190867,,,,
49283,157291,37624,190891,,,,
49293,157289,37629,190905,,,,
49303,157318,37627,190909,,,,
49312,157277,37620,190906,,,,
49323,157297,37619,190914,,,,
49333,157293,37628,190916,,,,
49342,157327,37641,190926,,,,
49353,157322,37634,190955,,,,
49363,157339,37627,190936,,,,
49373,157331,37632,190952,,,,
49382,157332,37607,190962,,,,
49392,157348,37629,190962,,,,
49402,157348,37595,190975,,,,
49413,157331,37605,190959,,,,
49422,157331,37589,190966,,,,
49432,157344,37596,190955,,,,
49442,157319,37593,190954,,,,
49453,157342,37600,190942,,,,
49462,157317,37579,190936,,,,
49472,157334,37575,190926,,,,
49482,157331,37579,190946,,,,
49492,157330,37566,190942,,,,
49502,157338,37566,190946,,,,
49512,157332,37573,190924,,,,
49523,157315,37562,190933,,,,
49533,157327,37551,190928,,,,
49542,157334,37550,190931,,,,
49552,157317,37552,190933,,,,
49563,157318,37540,190937,,,,
49573,157299,37540,190919,,,,
49583,157319,37538,190920,,,,
49592,157293,37516,190900,,,,
49602,157279,37544,190913,,,,
49612,157257,37540,190903,,,,
49622,157271,37537,190867,,,,
49632,157251,37527,190885,,,,
49642,157242,37529,190894,,,,
49652,157252,37520,190874,,,,
49663,157265,37528,190869,,,,
49671,157246,37540,190857,,,,
49682,157253,37541,190898,,,,
49692,157243,37537,190863,,,,
49703,157228,37531,190894,,,,
49712,157232,37546,190877,,,,
49722,157224,37546,190877,,,,
49733,157212,37532,190884,,,,
49743,157221,37530,190884,,,,
49752,157221,37525,190890,,,,
49762,157221,37545,190886,,,,
49772,157225,37528,190887,,,,
49783,157205,37536,190879,,,,
49792,157207,37540,190889,,,,
49802,157198,37547,190874,,,,
49812,157201,37528,190853,,,,
49822,157189,37548,190880,,,,
49832,157189,37535,190869,,,,
49842,157213,37530,190872,,,,
49852,157203,37549,190867,,,,
49862,157205,37527,190877,,,,
49873,157207,37547,190861,,,,
49882,157179,37551,190857,,,,
49892,157204,37539,190852,,,,
49902,157179,37547,190866,,,,
49912,157182,37544,190839,,,,
49921,157168,37554,190843,,,,
49932,157184,37548,190819,,,,
49942,157192,37562,190828,,,,
49952,157165,37560,190810,,,,
49961,157175,37561,190816,,,,
49972,157157,37558,190840,,,,
49982,157172,37558,190851,,,,
49992,157154,37556,190819,,,,
50002,157177,37570,190826,,,,
50012,157164,37561,190812,,,,
50022,157157,37547,190786,,,,
50032,157136,37551,190806,,,,
50041,157168,37561,190820,,,,
50051,157155,37563,190812,,,,
50069,157145,37562,190790,,,,
50072,157153,37560,190804,,,,
50082,157145,37561,190763,,,,
50091,157139,37548,190798,,,,
50102,157152,37561,190781,,,,
50112,157149,37580,190798,,,,
50122,157097,37580,190770,,,,
50132,157132,37571,190782,,,,
50142,157132,37569,190782,,,,
50152,157136,37581,190766,,,,
50162,157118,37586,190766,,,,
50171,157125,37590,190772,,,,
50181,157116,37563,190752,,,,
50192,157111,37582,190760,,,,
50202,157127,37595,190737,,,,
50211,157105,37578,190751,,,,
50222,157114,37586,190747,,,,
50232,157115,37585,190753,,,,
50242,157080,37590,190725,,,,
50251,157117,37581,190745,,,,
50261,157086,37583,190745,,,,
50272,157113,37594,190745,,,,
50282,157110,37597,190743,,,,
50291,157098,37584,190747,,,,
50302,157115,37591,190740,,,,
50312,157089,37589,190707,,,,
50322,157070,37602,190708,,,,
50332,157090,37602,190734,,,,
50341,157110,37583,190726,,,,
50352,157101,37587,190733,,,,
50362,157094,37553,190752,,,,
50372,157114,37572,190743,,,,
50381,157089,37558,190747,,,,
50391,157129,37542,190747,,,,
50402,157108,37554,190732,,,,
50412,157103,37543,190728,,,,
50421,157096,37550,190737,,,,
50431,157094,37533,190693,,,,
50442,157087,37533,190722,,,,
50452,157096,37533,190682,,,,
50461,157069,37525,190679,,,,
50471,157059,37517,190675,,,,
50482,157059,37505,190647,,,,
50492,157081,37507,190652,,,,
50501,157071,37500,190649,,,,
50511,157061,37498,190649,,,,
50521,157083,37488,190644,,,,
50532,157066,37486,190664,,,,
50541,157093,37500,190669,,,,
50551,157059,37508,190636,,,,
50561,157082,37479,190681,,,,
50571,157064,37480,190644,,,,
50582,157077,37459,190633,,,,
50591,157074,37468,190640,,,,
50601,157044,37473,190624,,,,
50611,157069,37483,190654,,,,
50621,157064,37467,190633,,,,
50631,157064,37481,190619,,,,
50642,157049,37482,190608,,,,
50652,157072,37487,190612,,,,
50662,157039,37481,190628,,,,
50671,157049,37468,190617,,,,
50681,157065,37476,190608,,,,
50691,157075,37483,190620,,,,
50702,157068,37467,190611,,,,
50711,157063,37488,190610,,,,
50721,157071,37485,190592,,,,
50732,157050,37486,190630,,,,
50742,157075,37489,190592,,,,
50751,157070,37477,190618,,,,
50761,157087,37476,190606,,,,
50771,157070,37498,190625,,,,
50781,157049,37474,190592,,,,
50791,157075,37474,190601,,,,
50801,157089,37483,190563,,,,
50811,157069,37481,190599,,,,
50821,157075,37478,190564,,,,
50831,157073,37487,190572,,,,
50841,157065,37472,190563,,,,
50851,157071,37482,190564,,,,
50862,157068,37465,190572,,,,
50872,157072,37478,190557,,,,
50881,157079,37493,190585,,,,
50891,157086,37489,190569,,,,
50901,157080,37493,190611,,,,
50912,157078,37496,190565,,,,
50921,157062,37504,190536,,,,
50931,157078,37487,190545,,,,
50941,157073,37501,190584,,,,
50951,157082,37501,190558,,,,
50961,157099,37495,190569,,,,
50971,157094,37507,190569,,,,
50981,157069,37500,190573,,,,
50991,157091,37500,190547,,,,
51000,157092,37496,190549,,,,
51011,157088,37503,190559,,,,
51021,157088,37505,190536,,,,
51031,157066,37507,190548,,,,
51041,157082,37512,190538,,,,
51051,157094,37496,190535,,,,
51061,157095,37515,190537,,,,
51071,157101,37507,190539,,,,
51081,157105,37499,190536,,,,
51090,157079,37519,190526,,,,
51100,157100,37522,190515,,,,
51111,157077,37509,190527,,,,
51121,157079,37530,190514,,,,
51131,157090,37524,190494,,,,
51141,157069,37527,190482,,,,
51151,157066,37517,190485,,,,
51161,157054,37506,190483,,,,
51170,157036,37526,190444,,,,
51181,157048,37524,190444,,,,
51191,157037,37535,190405,,,,
51201,157006,37539,190410,,,,
51211,157027,37526,190427,,,,
51221,157054,37524,190428,,,,
51231,157051,37532,190446,,,,
51241,157074,37536,190433,,,,
51251,157074,37545,190467,,,,
51261,157095,37538,190478,,,,
51271,157111,37531,190507,,,,
51281,157140,37523,190498,,,,
51291,157139,37553,190536,,,,
51300,157151,37531,190569,,,,
51311,157157,37543,190540,,,,
51321,157168,37558,190540,,,,
51331,157160,37548,190555,,,,
51340,157165,37540,190544,,,,
51351,157166,37541,190535,,,,
51361,157189,37531,190578,,,,
51371,157180,37529,190539,,,,
51380,157187,37531,190589,,,,
51391,157195,37528,190534,,,,
51401,157206,37525,190560,,,,
51411,157188,37512,190516,,,,
51420,157216,37512,190543,,,,
51431,157205,37504,190551,,,,
51441,157217,37494,190543,,,,
51451,157227,37491,190540,,,,
51460,157224,37509,190552,,,,
51470,157211,37501,190562,,,,
51481,157231,37484,190550,,,,
51491,157225,37481,190538,,,,
51500,157235,37487,190539,,,,
51511,157236,37480,190549,,,,
51521,157253,37486,190557,,,,
51531,157243,37478,190559,,,,
51541,157261,37476,190583,,,,
51551,157271,37468,190579,,,,
51561,157287,37469,190604,,,,
51571,157284,37466,190611,,,,
51581,157315,37480,190614,,,,
51590,157318,37465,190622,,,,
51600,157317,37489,190608,,,,
51610,157339,37491,190659,,,,
51620,157335,37479,190639,,,,
51630,157328,37487,190652,,,,
51640,157354,37503,190639,,,,
51651,157346,37485,190634,,,,
51661,157344,37489,190649,,,,
51670,157330,37498,190637,,,,
51680,157352,37485,190648,,,,
51691,157347,37506,190664,,,,
51701,157375,37497,190634,,,,
51710,157374,37506,190670,,,,
51720,157369,37486,190691,,,,
51730,157386,37501,190675,,,,
51740,157385,37507,190704,,,,
51750,157389,37502,190689,,,,
51760,157401,37515,190695,,,,
51770,157418,37513,190675,,,,
51780,157413,37514,190689,,,,
51791,157390,37506,190662,,,,
51800,157393,37506,190658,,,,
51810,157395,37502,190655,,,,
51821,157392,37515,190654,,,,
51830,157397,37520,190642,,,,
51840,157378,37512,190661,,,,
51850,157380,37525,190654,,,,
51861,157385,37501,190658,,,,
51870,157389,37518,190635,,,,
51880,157382,37507,190663,,,,
51890,157384,37532,190668,,,,
51901,157363,37521,190669,,,,
51911,157333,37534,190629,,,,
51920,157354,37534,190747,,,,
51930,157654,37552,191074,,,,
51940,157868,37553,191268,,,,
51951,158037,37585,191453,,,,
51960,158093,37579,191533,,,,
51970,158219,37620,191608,,,,
51980,158377,37631,191774,,,,
51990,158653,37671,191979,,,,
52000,158983,37714,192281,,,,
52010,159332,37769,192595,,,,
52020,159687,37823,192908,,,,
52030,160008,37860,193166,,,,
52040,160278,37928,193378,,,,
52050,160511,37928,193545,,,,
52060,160634,37987,193600,,,,
52071,160661,38017,193514,,,,
52081,160657,38045,193352,,,,
52090,160626,38073,193217,,,,
52100,160601,38053,193072,,,,
52110,160582,38080,192964,,,,
52120,160501,38083,192852,,,,
52130,160392,38102,192676,,,,
52140,160291,38108,192514,,,,
52150,160134,38094,192274,,,,
52160,159931,38119,192053,,,,
52169,159786,38103,191807,,,,
52180,159708,38082,191634,,,,
52190,159647,38097,191531,,,,
52200,159618,38113,191445,,,,
52210,159547,38087,191393,,,,
52220,159527,38078,191367,,,,
52230,159436,38080,191347,,,,
52240,159288,38039,191221,,,,
52250,159074,38049,191104,,,,
52260,158832,38022,190952,,,,
52270,158603,37983,190781,,,,
52280,158373,37997,190739,,,,
52290,158228,37965,190786,,,,
52300,158197,37931,191015,,,,
52310,158268,37931,191399,,,,
52320,158394,37927,191882,,,,
52330,158636,37923,192526,,,,
52339,159128,37962,193343,,,,
52350,159675,37985,194160,,,,
52360,160197,38003,194953,,,,
52370,160568,37996,195681,,,,
52380,160919,37984,196325,,,,
52390,161191,38007,196852,,,,
52400,161250,37996,197313,,,,
52410,161265,37997,197466,,,,
52419,161253,38001,197592,,,,
52430,161290,38014,197722,,,,
52440,161387,38033,197896,,,,
52450,161591,38030,198239,,,,
52459,162045,38069,198885,,,,
52469,162759,38082,199859,,,,
52479,163502,38116,200923,,,,
52491,164192,38151,201958,,,,
52500,165056,38175,203067,,,,
52510,165468,38170,203844,,,,
52520,165261,38113,203848,,,,
52530,164658,38025,203388,,,,
52540,163757,38010,202305,,,,
52550,163430,37989,201528,,,,
52560,163536,37955,201538,,,,
52570,163115,37884,200975,,,,
52580,162382,37784,199844,,,,
52589,161523,37733,198673,,,,
52599,160981,37689,197989,,,,
52609,160666,37634,197606,,,,
52620,160173,37550,196955,,,,
52630,159650,37511,196420,,,,
52640,159135,37470,195987,,,,
52650,158641,37437,195583,,,,
52660,158299,37408,195283,,,,
52669,158074,37386,195164,,,,
52679,157933,37360,195103,,,,
52689,157809,37369,195133,,,,
52699,157745,37338,195178,,,,
52709,157718,37363,195390,,,,
52719,157771,37364,195629,,,,
52730,157829,37380,195846,,,,
52779,157323,37428,194975,,,,
52790,157230,37437,194848,,,,
52799,157253,37429,194997,,,,
52810,157365,37450,195258,,,,
52820,157467,37489,195550,,,,
52852,157792,37574,195853,,,,
52871,158363,37686,196215,,,,
52879,158613,37733,196303,,,,
52912,158824,37861,195941,,,,
52919,158920,37898,195885,,,,
52930,159043,37926,195876,,,,
52940,159228,37952,195964,,,,
52950,159534,37977,196041,,,,
52959,159803,38002,196099,,,,
52969,160120,38047,196094,,,,
52979,160459,38095,196125,,,,
52989,160866,38140,196234,,,,
53000,161299,38177,196335,,,,
53010,161730,38218,196482,,,,
53019,162070,38245,196623,,,,
53030,162260,38261,196725,,,,
53039,162323,38304,196755,,,,
53050,162344,38318,196803,,,,
53059,162382,38347,196835,,,,
53070,162440,38349,196936,,,,
53079,162540,38378,197079,,,,
53089,162671,38400,197265,,,,
53099,162787,38422,197468,,,,
53110,162912,38462,197685,,,,
53120,163092,38469,197920,,,,
53129,163215,38495,198129,,,,
53139,163381,38516,198317,,,,
53149,163517,38513,198559,,,,
53159,163642,38539,198781,,,,
53169,163781,38569,198949,,,,
53179,163928,38553,199177,,,,
53189,164045,38589,199356,,,,
53200,164180,38610,199564,,,,
53209,164278,38600,199695,,,,
53219,164371,38598,199883,,,,
53229,164476,38633,200012,,,,
53239,164559,38625,200134,,,,
53249,164604,38629,200218,,,,
53259,164626,38621,200279,,,,
53269,164642,38620,200306,,,,
53279,164654,38591,200408,,,,
53289,164620,38614,200421,,,,
53298,164588,38618,200403,,,,
53308,164530,38601,200384,,,,
53319,164398,38587,200365,,,,
53330,164251,38570,200303,,,,
53339,164044,38569,200256,,,,
53349,163758,38576,200198,,,,
53359,163431,38547,200065,,,,
53369,162999,38511,199910,,,,
53378,162463,38483,199684,,,,
53390,161859,38457,199382,,,,
53399,161266,38448,199084,,,,
53409,160775,38440,198753,,,,
53418,160786,38461,198967,,,,
53429,161165,38475,199567,,,,
53439,161617,38474,200154,,,,
53450,161848,38447,200612,,,,
53459,162240,38407,201350,,,,
53469,162538,38376,201935,,,,
53479,162342,38369,201840,,,,
53489,162401,38359,201951,,,,
53499,161936,38304,201390,,,,
53510,161205,38256,200606,,,,
53519,160789,38214,200250,,,,
53529,160595,38182,200224,,,,
53539,160672,38180,200471,,,,
53548,160850,38180,200945,,,,
53558,161131,38172,201495,,,,
53568,161313,38177,201981,,,,
53579,161453,38151,202392,,,,
53589,161564,38160,202723,,,,
53598,161708,38141,203009,,,,
53609,161881,38137,203389,,,,
53619,162181,38148,203893,,,,
53628,162586,38176,204564,,,,
53638,163004,38181,205118,,,,
53650,163208,38190,205315,,,,
53659,163151,38195,205154,,,,
53668,162940,38188,204645,,,,
53678,162778,38191,204221,,,,
53689,162665,38212,203864,,,,
53699,162658,38209,203564,,,,
53708,162713,38213,203376,,,,
53718,162700,38191,203174,,,,
53728,162525,38192,202840,,,,
53738,162228,38198,202481,,,,
53750,161903,38194,202061,,,,
53798,160987,38273,200066,,,,
53808,160999,38295,199736,,,,
53819,161000,38320,199406,,,,
53829,160975,38349,199046,,,,
53838,160967,38349,198777,,,,
53848,160959,38370,198475,,,,
53859,161049,38370,198271,,,,
53869,161126,38378,198078,,,,
53878,161254,38382,197931,,,,
53888,161335,38377,197746,,,,
53898,161467,38388,197522,,,,
53909,161644,38416,197446,,,,
53918,161925,38424,197487,,,,
53952,162783,38503,197753,,,,
53958,163013,38524,197784,,,,
53968,163175,38551,197813,,,,
53978,163271,38536,197836,,,,
53990,163363,38558,197848,,,,
53999,163394,38547,197846,,,,
54008,163446,38561,197875,,,,
54018,163503,38579,197982,,,,
54028,163617,38589,198119,,,,
54038,163702,38596,198265,,,,
54048,163806,38610,198406,,,,
54058,163913,38604,198551,,,,
54069,163992,38629,198702,,,,
54079,164102,38623,198886,,,,
54088,164162,38654,199034,,,,
54098,164257,38668,199141,,,,
54108,164328,38677,199280,,,,
54118,164392,38669,199437,,,,
54128,164482,38659,199544,,,,
54138,164539,38687,199674,,,,
54148,164571,38682,199771,,,,
54158,164584,38685,199829,,,,
54168,164552,38689,199892,,,,
54178,164497,38678,199877,,,,
54188,164384,38669,199822,,,,
54199,164228,38649,199801,,,,
54208,164067,38641,199777,,,,
54218,163839,38614,199720,,,,
54228,163469,38615,199527,,,,
54239,163028,38583,199286,,,,
54250,162394,38546,198851,,,,
54298,159867,38500,196990,,,,
54308,159958,38521,197090,,,,
54318,160158,38527,197615,,,,
54328,160404,38500,198256,,,,
54337,160671,38472,198845,,,,
54348,160828,38446,199323,,,,
54358,160763,38403,199490,,,,
54369,161038,38390,200056,,,,
54378,161604,38384,200889,,,,
54388,162107,38388,201478,,,,
54398,162234,38335,201679,,,,
54408,162226,38335,201882,,,,
54417,162205,38305,202240,,,,
54428,162304,38284,202746,,,,
54438,162517,38294,203373,,,,
54450,162774,38295,204025,,,,
54458,163050,38303,204598,,,,
54467,163327,38297,205114,,,,
54588,163682,38240,205911,,,,
54612,162595,38193,204613,,,,
54728,162338,38411,201121,,,,
54731,162499,38451,200913,,,,
54794,162603,38521,199071,,,,
54797,162784,38533,198874,,,,
54811,163096,38554,198894,,,,
54818,163391,38565,198902,,,,
54828,163650,38588,198914,,,,
54837,163912,38609,198941,,,,
54847,164104,38619,198952,,,,
54857,164225,38636,198982,,,,
54870,164286,38638,198966,,,,
54878,164335,38657,198961,,,,
54888,164331,38647,198954,,,,
54898,164341,38662,198975,,,,
54908,164407,38671,198994,,,,
54917,164464,38678,199125,,,,
54927,164546,38693,199217,,,,
54938,164662,38692,199379,,,,
54948,164771,38703,199517,,,,
54958,164892,38732,199692,,,,
54967,165020,38742,199883,,,,
54977,165136,38745,200050,,,,
54987,165253,38777,200236,,,,
54998,165319,38779,200389,,,,
55007,165389,38798,200516,,,,
55018,165431,38799,200619,,,,
55028,165474,38814,200676,,,,
55038,165480,38812,200744,,,,
55047,165480,38815,200773,,,,
55057,165475,38799,200857,,,,
55067,165423,38799,200886,,,,
55077,165345,38796,200929,,,,
55087,165173,38790,200875,,,,
55098,164985,38761,200817,,,,
55108,164776,38743,200754,,,,
55118,164478,38724,200664,,,,
55127,164172,38711,200545,,,,
55137,163728,38696,200398,,,,
55147,163239,38672,200163,,,,
55158,162595,38636,199667,,,,
55170,161717,38578,198931,,,,
55177,160874,38566,198269,,,,
55187,160286,38567,197813,,,,
55197,160258,38579,197749,,,,
55208,160896,38618,198211,,,,
55217,161935,38639,199278,,,,
55228,163061,38655,200814,,,,
55238,163704,38659,202307,,,,
55250,163817,38652,203259,,,,
55257,163248,38592,203160,,,,
55270,162253,38526,202217,,,,
55277,161843,38468,201651,,,,
55287,161746,38457,201386,,,,
55297,161771,38422,201398,,,,
55307,161899,38416,201529,,,,
55318,162030,38417,201620,,,,
55328,162089,38393,201649,,,,
55337,162104,38376,201636,,,,
55347,162104,38366,201672,,,,
55357,162175,38353,201769,,,,
55367,162236,38340,201888,,,,
55377,162325,38337,202038,,,,
55412,162634,38309,202662,,,,
55417,162867,38322,203002,,,,
55427,163167,38309,203420,,,,
55437,163505,38335,203898,,,,
55471,164718,38349,205541,,,,
55477,165028,38343,205949,,,,
55487,165240,38330,206205,,,,
55498,165376,38325,206334,,,,
55507,165378,38310,206247,,,,
55517,165278,38307,206010,,,,
55527,165032,38298,205558,,,,
55537,164685,38305,204930,,,,
55616,163732,38527,201473,,,,
55631,163614,38544,200346,,,,
55651,163470,38582,199523,,,,
55657,163497,38579,199259,,,,
55666,163528,38611,199155,,,,
55677,163671,38612,199079,,,,
55687,163840,38631,199048,,,,
55697,163983,38648,198999,,,,
55707,164155,38673,198914,,,,
55716,164281,38670,198810,,,,
55727,164338,38668,198736,,,,
55737,164372,38688,198721,,,,
55772,164448,38700,198711,,,,
55777,164491,38721,198750,,,,
55787,164543,38735,198798,,,,
55797,164621,38737,198898,,,,
55807,164728,38744,199039,,,,
55817,164817,38752,199199,,,,
55827,164929,38767,199361,,,,
55837,165034,38794,199529,,,,
55847,165162,38800,199646,,,,
55857,165275,38800,199808,,,,
55867,165352,38812,199927,,,,
55877,165391,38829,200021,,,,
55887,165446,38824,200125,,,,
55897,165475,38837,200220,,,,
55907,165472,38837,200257,,,,
55917,165437,38808,200235,,,,
55927,165371,38808,200238,,,,
55937,165306,38799,200267,,,,
55947,165289,38783,200347,,,,
55958,165321,38783,200536,,,,
55967,165278,38772,200758,,,,
55977,165151,38763,200898,,,,
55987,164913,38761,200948,,,,
55997,164578,38749,200898,,,,
56006,164154,38705,200814,,,,
56017,163630,38690,200635,,,,
56027,163047,38672,200436,,,,
56037,162532,38647,200247,,,,
56046,162177,38628,200239,,,,
56057,162134,38636,200545,,,,
56067,162349,38642,201054,,,,
56077,162849,38662,201922,,,,
56086,163553,38676,202832,,,,
56096,164489,38679,203842,,,,
56106,165420,38684,204707,,,,
56117,165861,38642,205144,,,,
56126,165628,38602,204955,,,,
56136,165043,38547,204393,,,,
56146,164444,38510,203889,,,,
56157,164164,38482,203800,,,,
56166,164200,38496,204071,,,,
56176,164316,38464,204496,,,,
56186,164457,38448,204905,,,,
56197,164550,38443,205230,,,,
56207,164690,38455,205522,,,,
56216,164848,38444,205811,,,,
56226,165062,38427,206001,,,,
56237,165172,38400,206079,,,,
56247,165174,38393,206056,,,,
56256,165095,38400,205976,,,,
56266,164978,38387,205826,,,,
56276,164851,38353,205670,,,,
56287,164677,38352,205471,,,,
56296,164409,38334,205188,,,,
56306,164060,38321,204761,,,,
56316,163595,38303,204261,,,,
56326,163052,38291,203569,,,,
56336,162499,38256,202919,,,,
56347,161947,38251,202381,,,,
56357,161505,38243,201946,,,,
56367,161186,38243,201708,,,,
56376,160988,38242,201541,,,,
56386,160870,38248,201422,,,,
56396,160822,38237,201505,,,,
56407,160835,38205,201622,,,,
56416,160854,38232,201788,,,,
56426,160927,38205,202038,,,,
56436,161068,38210,202275,,,,
56450,161257,38207,202415,,,,
56457,161324,38231,202358,,,,
56470,161367,38248,202148,,,,
56492,161419,38312,201505,,,,
56496,161372,38331,201051,,,,
56597,162638,38493,197785,,,,
56599,162904,38526,197816,,,,
56606,163110,38506,197840,,,,
56616,163156,38546,197839,,,,
56625,163194,38560,197789,,,,
56636,163186,38533,197790,,,,
56646,163226,38578,197824,,,,
56656,163301,38570,197883,,,,
56666,163425,38587,197998,,,,
56676,163546,38601,198135,,,,
56686,163671,38608,198251,,,,
56697,163739,38621,198321,,,,
56707,163811,38631,198362,,,,
56716,163801,38613,198384,,,,
56726,163795,38617,198396,,,,
56736,163834,38623,198408,,,,
56746,163812,38609,198398,,,,
56755,163790,38603,198409,,,,
56765,163713,38592,198375,,,,
56776,163658,38572,198326,,,,
56790,163576,38567,198228,,,,
56796,163513,38556,198186,,,,
56854,163887,38522,198822,,,,
56856,164117,38524,199207,,,,
56866,164412,38586,199668,,,,
56876,164836,38587,200219,,,,
56886,165220,38605,200760,,,,
56896,165525,38636,201339,,,,
56906,165797,38663,201847,,,,
56916,165983,38692,202350,,,,
56925,166034,38697,202752,,,,
56936,165997,38688,203068,,,,
56946,165817,38687,203235,,,,
56957,165516,38652,203221,,,,
56966,164966,38648,203025,,,,
56976,164331,38609,202729,,,,
56986,163419,38588,202064,,,,
56996,162497,38554,201281,,,,
57005,161734,38531,200545,,,,
57015,161410,38515,200424,,,,
57025,161983,38578,201296,,,,
57036,163049,38588,202653,,,,
57046,164250,38569,204124,,,,
57056,165197,38584,205355,,,,
57066,165553,38530,206041,,,,
57076,165378,38470,206017,,,,
57085,164995,38413,205745,,,,
57095,164580,38357,205477,,,,
57105,164127,38318,205111,,,,
57116,163735,38273,204929,,,,
57126,163483,38254,204930,,,,
57135,163383,38239,205107,,,,
57146,163410,38228,205395,,,,
57156,163505,38236,205714,,,,
57166,163603,38248,206014,,,,
57176,163684,38247,206280,,,,
57186,163840,38265,206566,,,,
57196,164097,38283,206981,,,,
57206,164470,38309,207491,,,,
57215,164949,38337,208074,,,,
57226,165449,38353,208650,,,,
57235,165871,38362,209086,,,,
57246,166179,38373,209327,,,,
57255,166299,38381,209391,,,,
57265,166482,38381,209508,,,,
57276,166698,38396,209612,,,,
57286,166833,38410,209432,,,,
57295,166821,38457,208966,,,,
57305,166577,38503,208111,,,,
57315,165941,38515,206866,,,,
57325,165329,38520,205713,,,,
57335,164914,38513,204781,,,,
57345,164776,38515,204052,,,,
57355,164899,38511,203477,,,,
57366,165215,38587,203071,,,,
57375,165606,38600,202810,,,,
57385,165898,38645,202592,,,,
57396,166118,38660,202405,,,,
57406,166221,38673,202279,,,,
57416,166245,38674,202133,,,,
57425,166271,38708,201940,,,,
57436,166302,38748,201738,,,,
57446,166331,38748,201553,,,,
57456,166304,38766,201362,,,,
57465,166246,38765,201235,,,,
57475,166165,38769,201122,,,,
57486,166116,38773,201018,,,,
57496,166032,38781,200922,,,,
57505,165987,38786,200830,,,,
57515,165904,38785,200747,,,,
57526,165803,38772,200655,,,,
57536,165694,38758,200598,,,,
57545,165531,38759,200531,,,,
57555,165354,38742,200428,,,,
57565,165170,38709,200339,,,,
57576,164974,38707,200274,,,,
57585,164772,38673,200134,,,,
57595,164648,38667,200085,,,,
57605,164544,38639,199968,,,,
57615,164411,38610,199781,,,,
57625,164223,38595,199562,,,,
57635,164048,38561,199415,,,,
57645,163844,38548,199364,,,,
57656,163651,38533,199522,,,,
57666,163523,38523,199872,,,,
57674,163494,38508,200445,,,,
57685,163545,38527,201057,,,,
57696,163961,38560,202080,,,,
57706,164615,38594,203251,,,,
57715,165167,38584,204268,,,,
57725,165602,38592,205138,,,,
57735,165844,38539,205655,,,,
57745,165729,38486,205763,,,,
57755,165779,38432,205951,,,,
57765,165788,38426,206074,,,,
57775,165762,38371,206213,,,,
57786,165849,38355,206390,,,,
57795,165964,38329,206576,,,,
57805,166126,38310,206875,,,,
57815,166287,38263,207121,,,,
57825,166445,38259,207387,,,,
57835,166704,38256,207746,,,,
57845,167018,38245,208104,,,,
57855,167337,38238,208472,,,,
57865,167734,38256,208917,,,,
57875,168244,38277,209509,,,,
57884,168892,38289,210229,,,,
57895,169626,38314,211015,,,,
57906,170341,38334,211759,,,,
57916,170963,38347,212297,,,,
57925,171196,38345,212364,,,,
57935,171045,38333,211996,,,,
57945,170572,38283,211224,,,,
57956,169752,38252,210103,,,,
57965,168714,38241,208782,,,,
57975,167534,38216,207278,,,,
57985,166303,38200,205883,,,,
57995,165273,38196,204876,,,,
58004,164423,38174,204187,,,,
58014,163724,38127,203587,,,,
58024,163133,38131,202991,,,,
58035,162701,38148,202305,,,,
58044,162232,38162,201467,,,,
58054,161864,38184,200636,,,,
58064,161771,38219,199978,,,,
58075,161836,38237,199592,,,,
58084,161973,38242,199223,,,,
58095,162130,38271,198975,,,,
58110,162404,38298,198903,,,,
58115,162822,38338,199045,,,,
58125,163342,38387,199143,,,,
58135,163880,38441,199318,,,,
58145,164241,38487,199402,,,,
58155,164451,38511,199428,,,,
58165,164531,38537,199366,,,,
58174,164465,38557,199237,,,,
58184,164388,38565,199142,,,,
58195,164277,38581,199010,,,,
58205,164233,38586,198910,,,,
58214,164227,38595,198886,,,,
58224,164228,38590,198832,,,,
58235,164216,38612,198823,,,,
58245,164152,38598,198778,,,,
58254,164121,38587,198736,,,,
58265,164059,38569,198672,,,,
58275,163969,38566,198640,,,,
58285,163903,38548,198578,,,,
58294,163904,38539,198557,,,,
58304,163869,38544,198492,,,,
58315,163875,38543,198439,,,,
58325,163819,38531,198412,,,,
58334,163755,38549,198401,,,,
58344,163706,38537,198445,,,,
58354,163687,38511,198519,,,,
58365,163582,38550,198621,,,,
58375,163423,38559,198631,,,,
58384,163155,38527,198571,,,,
58395,162879,38545,198616,,,,
58405,162626,38520,198713,,,,
58415,162340,38514,198898,,,,
58424,162265,38530,199288,,,,
58434,162439,38564,199971,,,,
58444,162843,38577,200808,,,,
58455,163141,38576,201501,,,,
58464,163158,38573,201934,,,,
58474,162981,38527,202207,,,,
58485,163033,38513,202567,,,,
58494,163340,38486,203052,,,,
58504,163633,38457,203472,,,,
58515,163864,38458,203797,,,,
58525,164003,38455,204046,,,,
58535,164135,38434,204302,,,,
58544,164379,38405,204639,,,,
58554,164609,38386,204967,,,,
58564,164773,38369,205250,,,,
58574,164810,38333,205494,,,,
58584,164973,38308,205777,,,,
58594,165259,38280,206093,,,,
58605,165565,38262,206514,,,,
58615,166019,38276,207060,,,,
58625,166581,38280,207674,,,,
58634,167130,38275,208258,,,,
58644,167605,38280,208750,,,,
58655,167953,38292,209160,,,,
58665,168259,38309,209481,,,,
58674,168602,38323,209799,,,,
58684,169032,38315,210221,,,,
58694,169613,38341,210803,,,,
58704,170318,38371,211474,,,,
58714,170777,38385,211809,,,,
58724,170732,38368,211544,,,,
58734,170312,38340,210875,,,,
58745,169618,38326,209891,,,,
58753,168742,38307,208781,,,,
58764,167879,38294,207765,,,,
58774,167093,38296,206790,,,,
58785,166360,38279,205934,,,,
58794,165646,38292,205092,,,,
58804,165017,38300,204467,,,,
58814,164589,38274,204058,,,,
58824,164341,38269,203793,,,,
58834,164123,38261,203500,,,,
58844,163897,38275,203179,,,,
58854,163726,38280,202880,,,,
58870,163545,38315,202568,,,,
58875,163390,38317,202255,,,,
58884,163240,38332,201949,,,,
58894,163172,38343,201743,,,,
58904,163215,38354,201646,,,,
58915,163497,38380,201658,,,,
58924,163842,38408,201556,,,,
58934,164157,38446,201399,,,,
58944,164408,38493,201290,,,,
58954,164525,38514,201080,,,,
58963,164497,38530,200769,,,,
58974,164477,38538,200438,,,,
58984,164575,38598,200112,,,,
58995,164755,38610,199876,,,,
59004,164817,38659,199618,,,,
59014,164794,38666,199430,,,,
59024,164807,38664,199288,,,,
59034,164768,38669,199170,,,,
59043,164740,38665,199098,,,,
59054,164712,38649,199095,,,,
59064,164671,38659,199091,,,,
59074,164666,38655,199148,,,,
59083,164734,38668,199245,,,,
59094,164814,38685,199327,,,,
59104,164851,38681,199329,,,,
59114,164858,38682,199325,,,,
59124,164766,38660,199223,,,,
59133,164646,38650,199161,,,,
59143,164540,38660,199089,,,,
59154,164367,38642,199030,,,,
59164,164098,38610,198902,,,,
59173,163708,38585,198754,,,,
59184,163163,38540,198512,,,,
59193,162509,38517,198189,,,,
59204,161826,38458,197846,,,,
59213,161221,38448,197563,,,,
59224,160713,38394,197312,,,,
59234,160256,38417,197118,,,,
59244,159893,38411,197047,,,,
59253,159896,38438,197347,,,,
59263,160377,38426,198150,,,,
59274,161282,38439,199136,,,,
59284,161837,38439,199763,,,,
59293,162280,38429,200332,,,,
59303,162562,38427,200803,,,,
59314,162622,38376,201024,,,,
59324,162606,38382,201203,,,,
59333,162879,38376,201620,,,,
59343,163385,38348,202311,,,,
59353,164038,38343,203190,,,,
