timestamp,Green1 Count,Green2 Count
1,107241,106997
2,203632,121883
3,185157,106441
4,173937,100692
5,167585,97288
6,164530,96417
7,163966,98922
8,164187,99696
9,165346,99694
10,165178,99455
11,164349,99107
12,163231,99184
13,162924,99637
14,162628,99670
15,162315,99598
16,162792,99669
17,163139,99779
18,164435,100481
19,163965,100898
20,162038,101622
21,158688,101933
22,159670,101924
23,161104,103462
24,161811,103298
25,162178,102709
26,161962,102623
27,161099,102666
28,160716,102478
29,161268,102519
30,161872,102670
31,162472,102616
32,163204,102658
33,163413,102781
34,163784,102763
35,164287,102764
36,164733,102833
37,165151,102891
38,165421,102914
39,165643,102979
40,165793,103044
41,166029,103074
42,166228,103124
43,166466,103159
44,166526,103174
45,166497,103185
46,166670,103274
47,166740,103324
48,166790,103284
49,166495,103176
50,166825,103152
51,166994,103102
52,166879,103057
53,166351,103022
54,165655,102959
55,165392,102899
56,165565,102871
57,166348,102834
58,166822,102796
59,167110,102781
60,167162,102778
61,167273,102786
62,167390,102725
63,167368,102641
64,167409,102559
65,167372,102491
66,167128,102416
67,167110,102399
68,167266,102387
69,167317,102346
70,167345,102322
71,167518,102373
72,167539,102356
73,167780,102286
74,167838,102282
75,167846,102343
76,167632,102286
77,167395,102186
78,167228,102082
79,167202,101966
80,166973,101887
81,166805,101855
82,166685,101820
83,166467,101767
84,166347,101731
85,166317,101703
86,166309,101677
87,166317,101670
88,166333,101675
89,166615,101664
90,166683,101633
91,166464,101517
92,166201,101362
93,166135,101225
94,167025,100817
95,167251,99259
96,166266,98999
97,166221,98498
98,166698,97878
99,166964,97348
100,167019,96861
101,167307,96468
102,167847,96177
103,168427,95927
104,169032,95772
105,169200,95663
106,169041,95625
107,168783,95616
108,168312,95661
109,167912,95731
110,167589,95776
111,167074,95744
112,166454,95687
113,166193,95625
114,166086,95625
115,166068,95662
116,165757,95436
117,165302,95114
118,165087,94867
119,164963,94591
120,164756,94277
121,164602,94033
122,164536,93870
123,164455,93705
124,164449,93570
125,164497,93484
126,164617,93400
127,164666,93340
128,164771,93293
129,164910,93289
130,164948,93247
131,164960,93229
132,165079,93241
133,165241,93236
134,165283,93224
135,165425,93246
136,165714,93341
137,166007,93547
138,166152,93759
139,166010,93932
140,165766,94124
141,165531,94311
142,165197,94442
143,165002,94594
144,164936,94747
145,164691,94852
146,164483,94955
147,164262,95008
148,163777,94954
149,163312,94920
150,162884,94918
151,162604,94938
152,162408,94971
153,162187,95012
154,161986,95060
155,161894,95146
156,161898,95243
157,161724,95323
158,161718,95423
159,161757,95517
160,161852,95621
161,161893,95649
162,161729,95619
163,161705,95643
164,161852,95719
165,161863,95767
166,161790,95842
167,161855,95892
168,161786,95931
169,161717,95984
170,161800,96061
171,161993,96153
172,162274,96244
173,162401,96329
174,162443,96419
175,162355,96470
176,162244,96452
177,162040,96399
178,161874,96414
179,161741,96416
180,161817,96445
181,161905,96517
182,161812,96536
183,161852,96580
184,161866,96629
185,161940,96699
186,162034,96766
187,162036,96812
188,162088,96864
189,162191,96937
190,162165,96970
191,161995,96953
192,161770,96924
193,161651,96926
194,161510,96931
195,161605,96996
196,161728,97045
197,161949,97095
198,162116,97201
199,162071,97267
200,162084,97296
201,162140,97357
202,162184,97407
203,162217,97436
204,162264,97497
205,162386,97560
206,162387,97566
207,162205,97499
208,162104,97493
209,162100,97509
210,162062,97509
211,162040,97547
212,162084,97571
213,162105,97581
214,162062,97633
215,161935,97629
216,161917,97677
217,162041,97732
218,162218,97803
219,162338,97865
220,162517,97886
221,162669,97869
222,162732,97838
223,162529,97792
224,162353,97801
225,162274,97830
226,162138,97865
227,162042,97957
228,161890,98013
229,161750,98055
230,161873,98103
231,162036,98128
232,161983,98139
233,162033,98199
234,162001,98258
235,161809,98307
236,161716,98373
237,161566,98444
238,161179,98387
239,160936,98357
240,160914,98340
241,161033,98367
242,161180,98421
243,161308,98467
244,161467,98512
245,161711,98583
246,161778,98616
247,161882,98663
248,162026,98728
249,162113,98765
250,162304,98836
251,162434,98882
252,162614,98933
253,162762,98922
254,162666,98890
255,162518,98882
256,162521,98893
257,162577,98932
258,162642,98966
259,162652,98984
260,162672,99012
261,162681,99040
262,162902,99089
263,163129,99147
264,163154,99181
265,163102,99223
266,163115,99249
267,163099,99287
268,163055,99245
269,163148,99193
270,163568,99191
271,163542,99129
272,163290,99116
273,163133,99122
274,163030,99125
275,163061,99167
276,163090,99194
277,163142,99230
278,163261,99259
279,163589,99318
280,163671,99335
281,163655,99353
282,163684,99387
283,163530,99296
284,163441,99238
285,163624,99270
286,163739,99284
287,163741,99310
288,163596,99318
289,163366,99277
290,163224,99273
291,163173,99272
292,162932,99250
293,162702,99251
294,162482,99259
295,162349,99281
296,162370,99314
297,162299,99294
298,162266,99219
299,162245,99165
300,162440,99166
301,162350,99127
302,162144,99097
303,162213,99062
304,162196,99002
305,162100,98946
306,162220,98930
307,161956,98904
308,161783,98891
309,161700,98883
310,161775,98911
311,161797,98943
312,161593,98919
313,161369,98802
314,161208,98663
315,160834,98544
316,160560,98455
317,160363,98410
318,160031,98341
319,159775,98288
320,159342,98244
321,158969,98204
322,158653,98166
323,158599,98173
324,158396,98156
325,158262,98150
326,158512,98198
327,158628,98198
328,158604,98142
329,158459,98079
330,158530,98052
331,158773,98052
332,158942,98065
333,159160,98078
334,159321,98063
335,159397,98078
336,159261,98091
337,158171,98103
338,157677,98180
339,157814,98216
340,158579,98255
341,159047,98280
342,159185,98245
343,158826,98118
344,157872,97998
345,157390,97931
346,157468,97907
347,157852,97896
348,158241,97900
349,158416,97875
350,158587,97875
351,158783,97871
352,158984,97841
353,156591,98163
354,161501,98947
355,164906,99507
356,164234,98977
357,162330,97094
358,161050,95929
359,163634,95823
360,168517,96369
361,173127,98631
362,165976,103819
363,159143,113179
364,172957,118836
365,192875,115201
366,204340,113578
367,211276,112196
368,207514,111926
369,205698,113002
370,207753,113770
371,209472,113568
372,210620,113360
373,211279,112873
374,208770,112369
375,205956,111703
376,198784,111078
377,191897,110646
378,193151,109888
379,194538,107428
380,181036,109252
381,177937,127258
382,201247,171215
383,173369,167100
384,150605,101447
385,158550,108864
386,185983,113112
387,245922,116449
388,279525,118279
389,256747,119350
390,243067,119803
391,245399,119518
392,230485,119433
393,220509,120114
394,225287,120676
395,204654,120202
396,186675,116656
397,199068,110072
398,217552,107548
399,220919,105699
400,232837,105383
401,238735,106452
402,240243,110445
403,235571,111539
404,240845,110177
405,252635,106787
406,256171,104685
407,250366,103784
408,242851,105490
409,240123,106456
410,240084,106718
411,239206,106897
412,232487,106548
413,218919,105842
414,214244,105707
415,222006,105787
416,230414,106854
417,204996,110981
418,192058,125975
419,271113,148935
420,402292,102780
421,470763,93240
422,380249,101544
423,369092,104675
424,383189,106991
425,386836,108914
426,397534,109257
427,415083,108908
428,427127,108688
429,444442,108571
430,470047,109125
431,423391,109698
432,295492,107951
433,266037,105696
434,266925,104363
435,245016,103013
436,241161,102236
437,244626,101902
438,239131,101215
439,231214,101577
440,231803,101004
441,243184,100628
442,257903,101184
443,266730,102554
444,268068,103392
445,268947,103761
446,269505,104073
447,270042,104200
448,270071,104042
449,262831,103022
450,244699,101384
451,230541,101949
452,229156,106273
453,200759,115275
454,202461,137710
455,196078,153337
456,219111,88035
457,210242,98004
458,205590,104317
459,225738,106442
460,241270,106543
461,245809,106340
462,247739,105958
463,239135,105659
464,235029,105450
465,228170,105204
466,217771,104972
467,216012,105449
468,221821,106448
469,223272,106869
470,240214,106374
471,270426,106757
472,268742,105577
473,248626,103601
474,246173,101905
475,247156,99868
476,243156,98756
477,249453,98417
478,255735,98406
479,258398,97833
480,258991,97765
481,259384,98493
482,260770,98981
483,261645,99490
484,263625,99732
485,265584,99586
486,266651,98978
487,247563,98392
488,216348,98323
489,207197,102205
490,220626,110221
491,336571,97779
492,467823,100087
493,487423,112026
494,437834,104072
495,506107,99725
496,520080,100118
497,504828,100385
498,524287,101690
499,524287,102257
500,522730,101855
501,458752,101097
502,327680,105169
503,250493,107180
504,225528,101353
505,215623,100311
506,239055,102525
507,254805,102489
508,261021,104199
509,247622,103921
510,233535,104186
511,239591,105128
512,254108,108133
513,253233,109233
514,252714,111246
515,250874,112375
516,251008,112585
517,252511,112529
518,254948,111999
519,259361,112000
520,271440,112128
521,282942,110198
522,291996,108926
523,357708,110385
524,415043,115822
525,299080,116619
526,239384,117520
527,190124,112644
528,161405,102279
529,176075,83618
530,179954,86139
531,176649,93325
532,176248,97540
533,174400,99964
534,173149,101463
535,173582,102947
536,172624,104272
537,172534,105528
538,170777,106355
539,173286,106395
540,180184,106926
541,192809,108427
542,203311,109165
543,198491,108322
544,203906,110389
545,229044,110840
546,254042,106018
547,272106,104165
548,283915,102998
549,293681,102501
550,306128,104742
551,312521,105173
552,318292,105289
553,324933,105440
554,321021,104754
555,314756,103937
556,307940,103196
557,303871,102444
558,299281,101793
559,295455,100934
560,273129,101346
561,249521,105520
562,220476,100918
563,205709,98215
564,192153,94161
565,188505,86916
566,190164,87054
567,190931,89436
568,189307,90804
569,189667,93018
570,194921,96665
571,201345,99292
572,206087,100013
573,216850,100832
574,224416,100902
575,229360,101900
576,234207,103467
577,242747,104844
578,250674,105337
579,256252,104673
580,262238,104211
581,266140,104172
582,269364,104184
583,272770,103980
584,273672,103614
585,273873,103243
586,274177,102777
587,268918,102230
588,260572,101489
589,258230,100463
590,261007,100173
591,265085,101153
592,248795,103515
593,232920,105068
594,227958,100301
595,204231,92111
596,202000,89399
597,199949,88208
598,197534,89249
599,196680,90838
600,196422,91301
601,197534,91994
602,201474,93211
603,208894,95406
604,216575,97690
605,221692,98036
606,223622,97420
607,222848,97352
608,225654,97417
609,231601,97838
610,238335,98071
611,244065,97185
612,248847,97243
613,249777,97289
614,250356,97154
615,252743,96988
616,254028,96960
617,254143,96766
618,254324,96437
619,255584,96068
620,258098,95686
621,262371,95959
622,271691,97001
623,263218,96564
624,248894,93111
625,230165,89430
626,215270,87953
627,210130,87035
628,212162,86758
629,213211,86831
630,214955,87275
631,219233,88666
632,224162,91235
633,229305,93611
634,234353,95414
635,237116,96467
636,238247,96685
637,238627,96211
638,237183,94989
639,237427,93461
640,240116,93257
641,242555,95798
642,239733,99412
643,239821,97654
644,246577,97198
645,249120,98538
646,247071,97565
647,250291,97836
648,253162,97712
649,254917,97322
650,262424,97651
651,270502,97762
652,258136,98229
653,228661,96393
654,211203,93689
655,204385,90172
656,195203,87591
657,193013,90973
658,192224,94740
659,192674,97351
660,197109,100558
661,204324,103725
662,213273,103702
663,222449,101699
664,226576,100146
665,227907,99979
666,232933,98087
667,252625,99964
668,263072,101893
669,263044,103768
670,265921,101729
671,273509,101817
672,276215,102782
673,276126,102066
674,283253,102092
675,282914,101217
676,277049,99847
677,277203,98990
678,276716,98137
679,280843,97908
680,283713,98617
681,248766,100839
682,232655,97983
683,211056,91907
684,200612,89045
685,191867,87087
686,186692,87898
687,187339,89930
688,188116,90981
689,189461,91623
690,191047,92122
691,194057,92619
692,199503,93154
693,203348,93751
694,205249,94440
695,210153,95569
696,216457,96186
697,219545,95365
698,219768,94845
699,221913,94083
700,226279,92952
701,234088,93197
702,237313,94031
703,238590,93968
704,236210,94789
705,233316,94909
706,230452,94205
707,232870,94197
708,238510,94555
709,247749,94890
710,257027,95356
711,256037,95061
712,243371,95488
713,237777,95773
714,239908,96165
715,235939,96138
716,233365,97048
717,229350,100255
718,223919,104445
719,230601,107360
720,227175,104258
721,215304,97307
722,205600,93666
723,198038,94149
724,192888,98579
725,189470,101626
726,186422,103614
727,183826,104230
728,181348,104107
729,182376,104781
730,198384,108971
731,225249,112560
732,217116,112048
733,216039,111549
734,216776,101501
735,212893,96158
736,211020,94265
737,209567,92845
738,211703,92933
739,217315,93625
740,223516,93866
741,229706,94198
742,236573,94597
743,246428,94903
744,258436,95501
745,247638,95352
746,232106,93539
747,227473,92154
748,229910,91823
749,227894,91708
750,224428,91847
751,218394,93877
752,220136,95137
753,216951,93872
754,209223,93480
755,203971,90105
756,202512,90961
757,202306,92527
758,205844,97471
759,208809,103201
760,200496,95253
761,185439,83629
762,185753,82005
763,192249,84058
764,200554,90531
765,200493,101398
766,197863,110871
767,208823,109474
768,264928,115164
769,290711,112630
770,290911,111951
771,287016,112827
772,259734,108388
773,247871,104349
774,237524,101289
775,233737,99863
776,234120,99611
777,234417,98565
778,237821,98383
779,247332,99323
780,257744,99762
781,264119,99901
782,266096,99442
783,260183,98545
784,251359,98401
785,244839,99369
786,235878,99836
787,224679,99905
788,224681,100371
789,225626,102809
790,227223,104371
791,226933,104716
792,230257,105421
793,234112,104478
794,226526,101302
795,207829,94160
796,199807,92572
797,198653,94546
798,200991,96931
799,214190,101537
800,252073,109603
801,290000,112680
802,297644,115583
803,321096,117738
804,298335,114112
805,256269,108859
806,241034,104976
807,237324,102737
808,236265,101380
809,236803,100896
810,239624,100739
811,243799,100314
812,253487,100389
813,262143,100056
814,259653,99127
815,243007,98463
816,235463,100021
817,231351,103058
818,234494,104336
819,238549,105376
820,232645,103956
821,222719,105143
822,211588,110544
823,205229,111150
824,205141,106526
825,193365,100587
826,184510,91903
827,177009,87078
828,178897,82100
829,193912,82832
830,214050,85515
831,224361,88902
832,208782,94259
833,253793,107335
834,303229,115452
835,350422,115840
836,349829,112992
837,310156,107955
838,278898,105188
839,260743,104104
840,253318,102944
841,249595,102096
842,250090,101665
843,252402,101222
844,253806,100688
845,248893,100200
846,243463,100145
847,241846,101731
848,237657,103527
849,248010,103930
850,255463,102607
851,249079,100536
852,251256,101455
853,255721,104767
854,256873,106370
855,255983,107065
856,249202,106813
857,234643,102405
858,223938,95475
859,217579,87532
860,251807,82867
861,355487,83431
862,481713,85814
863,524287,90472
864,520191,96681
865,425984,103055
866,313640,113345
867,333928,118780
868,358186,121781
869,319272,118197
870,270623,111062
871,247187,105714
872,234775,103695
873,226999,101976
874,223032,101149
875,218959,101147
876,216396,100847
877,220451,100017
878,219118,98928
879,210295,97854
880,197418,96517
881,194414,95738
882,191465,97727
883,186733,97448
884,185819,101054
885,185853,106970
886,183961,112309
887,173889,110638
888,160909,104914
889,154160,102910
890,164027,98955
891,215334,91435
892,294380,90445
893,369730,93562
894,308394,94211
895,274925,95354
896,303637,110088
897,301419,120709
898,310957,120435
899,310463,117127
900,282296,115624
901,256694,109800
902,245497,104137
903,240972,101618
904,237218,101138
905,237478,100659
906,239080,100325
907,241351,99943
908,242799,99587
909,242866,99543
910,231154,100520
911,229701,100947
912,232610,100533
913,231243,98961
914,220997,96051
915,214053,93752
916,212712,93486
917,212456,93534
918,210574,91681
919,212996,91409
920,205480,87448
921,197437,82902
922,200910,86797
923,210960,99767
924,222560,113160
925,229011,110689
926,247760,105879
927,279411,110648
928,273631,115281
929,262346,114448
930,256759,113715
931,245550,112401
932,236718,107954
933,233182,104199
934,230746,102641
935,230521,101734
936,232281,100915
937,235682,100332
938,240968,100247
939,239174,100634
940,228816,104195
941,226571,111028
942,246132,114292
943,280032,115603
944,301139,118820
945,317017,122296
946,335959,125757
947,328280,123887
948,288221,116454
949,254232,107843
950,249268,102898
951,247008,100027
952,254369,100324
953,320261,101292
954,386647,104457
955,349943,114393
956,303447,119979
957,283674,123394
958,279062,125782
959,272309,122850
960,259413,117737
961,249809,111371
962,244517,107789
963,239028,106771
964,238032,105397
965,240150,104461
966,241999,104120
967,244431,103881
968,247815,104074
969,251364,104754
970,259755,103466
971,267900,100411
972,257179,98742
973,252121,98552
974,246441,99651
975,254570,101421
976,295027,108099
977,341781,114180
978,321209,112698
979,276716,104665
980,232904,100109
981,219428,96681
982,216519,97035
983,221258,99000
984,256909,99841
985,304755,105043
986,321382,110532
987,341649,112679
988,348514,115378
989,359440,119249
990,374783,120649
991,353724,118327
992,337478,115939
993,324547,113660
994,310479,110653
995,302298,107795
996,297938,105264
997,299428,103785
998,283590,101238
999,264144,99733
1000,256015,98984
1001,246675,100128
1002,254186,104550
1003,286807,109609
1004,281138,111639
1005,274060,111797
1006,278342,110380
1007,278873,107712
1008,277655,107157
1009,279511,106600
1010,287324,107133
1011,294698,107074
1012,279051,108514
1013,238524,111278
1014,239787,105948
1015,271979,97826
1016,300776,100539
1017,287907,103147
1018,281496,108261
1019,286096,114689
1020,289189,119255
1021,282695,122030
1022,268331,123378
1023,259386,123659
1024,256300,123311
1025,252813,124450
1026,253131,125421
1027,253836,125537
1028,253306,125976
1029,252676,125839
1030,250517,125189
1031,248469,124292
1032,246959,123913
1033,244153,123555
1034,200399,96412
1035,168875,85861
1036,157899,81114
1037,163473,84110
1038,160997,81473
1039,158516,79109
1040,155791,77885
1041,152051,76921
1042,149512,75572
1043,146583,75466
1044,143868,75609
1045,142471,75621
1046,139536,76299
1047,136987,76620
1048,135386,77053
1049,134293,77818
1050,132765,78910
1051,129615,79780
1052,126907,81168
1053,125432,82316
1054,125033,83000
1055,125493,83000
1056,126070,83351
1057,126860,83538
1058,128585,82199
1059,129887,81368
1060,129724,82219
1061,130363,82229
1062,131823,81217
1063,132611,80609
1064,130716,81935
1065,127320,85056
1066,130009,81757
1067,136811,73350
1068,139370,71129
1069,137392,73495
1070,137222,73995
1071,138647,72669
1072,140159,72270
1073,141078,72858
1074,141749,72876
1075,142968,71374
1076,143505,70117
1077,145285,68232
1078,145981,67158
1079,147004,65899
1080,148776,63701
1081,149446,62606
1082,149430,62089
1083,148694,61654
1084,147855,61249
1085,146455,61447
1086,143887,62585
1087,144938,61963
1088,145957,60770
1089,144671,61069
1090,140141,63543
1091,136608,66646
1092,133830,69275
1093,129156,74645
1094,124406,82155
1095,124127,84544
1096,125262,83213
1097,126516,81294
1098,128818,78363
1099,130561,76408
1100,132584,74718
1101,134296,73207
1102,133934,73642
1103,132682,75246
1104,131147,77594
1105,130229,80675
1106,130542,87533
1107,136113,92672
1108,142926,90356
1109,147778,88232
1110,147371,89375
1111,142964,89079
1112,143332,85960
1113,144772,81722
1114,143986,78503
1115,143094,75802
1116,143383,73936
1117,141588,74219
1118,137933,76915
1119,135482,78584
1120,137943,75721
1121,142013,71028
1122,144039,68550
1123,143425,67619
1124,142213,66836
1125,140476,66282
1126,137376,66847
1127,135853,67113
1128,135187,66564
1129,133884,66897
1130,134322,66216
1131,134820,65765
1132,131649,69569
1133,129532,72883
1134,126719,74883
1135,123643,79307
1136,122889,82786
1137,123669,82263
1138,124966,79794
1139,127591,76184
1140,129661,73512
1141,131082,72160
1142,133356,70686
1143,133948,70609
1144,132875,72253
1145,131787,73862
1146,129759,76486
1147,128274,78818
1148,131774,74968
1149,138927,67105
1150,143778,63572
1151,144128,63716
1152,143749,64195
1153,146193,62935
1154,147383,62292
1155,147500,63045
1156,147760,63080
1157,149807,63629
1158,150135,63525
1159,147517,63417
1160,146676,65599
1161,148616,65396
1162,149529,64329
1163,148481,64120
1164,147425,64426
1165,147474,64105
1166,148498,63669
1167,148294,62926
1168,147190,62260
1169,146832,61759
1170,146976,61587
1171,147132,61497
1172,146716,61791
1173,145949,62003
1174,145755,60117
1175,146037,57548
1176,142862,57228
1177,137696,59294
1178,136769,60173
1179,139177,59835
1180,141047,59781
1181,143447,59589
1182,146785,58921
1183,146429,59145
1184,142618,60594
1185,139711,61744
1186,136423,63979
1187,133787,67371
1188,137002,66751
1189,144283,63418
1190,146925,62490
1191,145322,63398
1192,140634,66996
1193,140543,68491
1194,144614,66654
1195,148659,65210
1196,149670,65025
1197,149038,65403
1198,148368,65634
1199,148648,66021
1200,149363,66348
1201,149881,66330
1202,149887,66263
1203,149726,66238
1204,149325,65799
1205,148672,65881
1206,147643,65923
1207,147589,65186
1208,148058,64263
1209,148706,63716
1210,149366,63485
1211,147723,63998
1212,145223,64505
1213,144785,63788
1214,143978,63119
1215,142101,63318
1216,139986,64126
1217,139450,64504
1218,141784,63795
1219,145332,62490
1220,146346,61862
1221,144877,62588
1222,143810,63441
1223,144722,63285
1224,145367,63227
1225,143340,64798
1226,140307,67561
1227,142051,67517
1228,148548,65000
1229,153940,63473
1230,155893,63237
1231,154755,64436
1232,153944,65956
1233,155459,66259
1234,157488,66250
1235,157748,66350
1236,155815,67251
1237,155879,67166
1238,157087,66623
1239,155049,66754
1240,148069,68916
1241,144386,69907
1242,146079,68329
1243,147077,67528
1244,147279,67504
1245,148212,66823
1246,149207,66316
1247,149803,66452
1248,151381,66861
1249,152566,67260
1250,153279,67539
1251,153908,67211
1252,153951,66364
1253,153149,65293
1254,151201,65517
1255,149389,66246
1256,146364,67161
1257,139323,71560
1258,132905,77150
1259,131236,78165
1260,133062,74232
1261,134806,70437
1262,137668,67298
1263,142593,63457
1264,142566,61587
1265,131830,74879
1266,130524,86742
1267,135982,86992
1268,141916,78388
1269,141909,75754
1270,139121,78041
1271,138901,77164
1272,138890,75060
1273,137884,74853
1274,137778,73534
1275,137435,71628
1276,135106,71495
1277,133818,71561
1278,134260,69529
1279,133671,69511
1280,130964,71427
1281,127397,73706
1282,126266,74382
1283,125775,73116
1284,127347,68846
1285,130788,65019
1286,134862,61824
1287,137487,60827
1288,138433,60443
1289,137938,60296
1290,137988,59922
1291,138093,59903
1292,137039,59907
1293,134941,61265
1294,134378,62277
1295,133570,63136
1296,131781,65113
1297,129379,67229
1298,127633,67738
1299,128454,67163
1300,129611,65769
1301,130712,64613
1302,131408,62150
1303,131233,60457
1304,127640,67783
1305,127737,80537
1306,133405,85683
1307,138928,85661
1308,141907,84191
1309,141195,82294
1310,137398,80086
1311,136369,76661
1312,136667,72997
1313,138057,70196
1314,139936,68222
1315,141439,67740
1316,144820,67730
1317,151253,67124
1318,152447,69332
1319,149507,71568
1320,150830,71727
1321,156097,70025
1322,156524,69125
1323,157617,67820
1324,157536,65946
1325,158416,65081
1326,156663,64833
1327,154102,64066
1328,153086,63238
1329,150620,62759
1330,148383,62402
1331,145864,61602
1332,144226,62428
1333,141254,62566
1334,138774,60876
1335,136635,60775
1336,129790,63267
1337,124612,66556
1338,123382,66727
1339,124936,64505
1340,127542,61224
1341,129608,60270
1342,130444,59735
1343,133908,57583
1344,129906,59816
1345,127061,65700
1346,131818,64419
1347,135577,60196
1348,130744,64260
1349,126256,70050
1350,128436,67897
1351,130878,64464
1352,131153,64413
1353,131198,64637
1354,132583,64030
1355,132686,63306
1356,132879,63333
1357,133690,63146
1358,132289,65427
1359,128273,70758
1360,128616,74820
1361,133043,75624
1362,136170,78260
1363,136223,78622
1364,136099,77127
1365,138706,73178
1366,139749,70356
1367,139449,67239
1368,140122,64765
1369,140850,62350
1370,139912,60816
1371,138326,60297
1372,139700,60939
1373,140460,60711
1374,140313,60426
1375,136797,62647
1376,133769,65960
1377,133904,66732
1378,133872,66470
1379,134947,65240
1380,137591,62406
1381,139209,60264
1382,138473,59984
1383,138131,60340
1384,139455,60888
1385,141189,62803
1386,147455,67660
1387,166605,69392
1388,170424,70125
1389,166005,73262
1390,160482,73180
1391,155689,71908
1392,151141,70695
1393,147485,69123
1394,143636,66999
1395,143573,65561
1396,143088,66483
1397,143123,66906
1398,146243,66530
1399,144707,70944
1400,136330,76256
1401,135220,79196
1402,137862,79622
1403,141770,78172
1404,150531,73995
1405,155335,69081
1406,157882,66153
1407,158589,65269
1408,156898,64306
1409,155335,62640
1410,151160,61634
1411,148713,61512
1412,147834,61352
1413,150097,61323
1414,150180,60987
1415,145845,66379
1416,141122,71738
1417,138540,74338
1418,139926,74479
1419,141037,74048
1420,139245,73933
1421,139839,73675
1422,141030,71901
1423,140801,68845
1424,141572,64537
1425,147681,68955
1426,131891,81182
1427,133560,80698
1428,144584,80693
1429,153702,77656
1430,147660,76596
1431,145113,75167
1432,145657,71992
1433,144832,68452
1434,144466,64933
1435,143573,63018
1436,141494,62719
1437,138611,62792
1438,140290,62081
1439,142457,61207
1440,142021,60405
1441,140657,61134
1442,139834,63788
1443,140897,64405
1444,141142,61262
1445,141969,59003
1446,142618,58872
1447,142830,59087
1448,143451,59733
1449,143151,60041
1450,143966,60124
1451,145447,60073
1452,146225,60046
1453,147314,60004
1454,148297,60156
1455,148452,60285
1456,148577,59900
1457,147015,60104
1458,144767,61488
1459,144983,62407
1460,146021,62963
1461,147030,63879
1462,146935,64525
1463,148421,64690
1464,150002,65482
1465,150854,66991
1466,150427,67637
1467,148157,67067
1468,147677,66662
1469,146084,65548
1470,143190,63693
1471,137090,59687
1472,133086,55968
1473,133598,53520
1474,137194,53274
1475,136018,53014
1476,134656,52322
1477,135015,52082
1478,135390,52966
1479,136202,54318
1480,136879,55720
1481,138697,57964
1482,142608,62389
1483,145570,67315
1484,143966,70491
1485,144611,71026
1486,147197,72263
1487,150931,73317
1488,154927,72082
1489,151302,68020
1490,143090,68822
1491,129348,77073
1492,123511,83367
1493,126157,81271
1494,128474,79502
1495,130926,79939
1496,134857,81962
1497,137149,83027
1498,140190,84852
1499,142306,86554
1500,144731,88688
1501,146987,91372
1502,147107,94508
1503,146892,96564
1504,146906,98897
1505,146960,101793
1506,148006,104311
1507,149449,106126
1508,150850,107324
1509,152211,108104
1510,152867,108880
1511,153682,109758
1512,154348,110930
1513,154852,112916
1514,154564,114998
1515,154630,115812
1516,154642,116891
1517,155359,118268
1518,155945,119664
1519,156717,120427
1520,158671,120732
1521,160817,120997
1522,159840,121339
1523,157830,121815
1524,154087,122348
1525,150596,123230
1526,148986,123929
1527,148824,124689
1528,149141,125416
1529,149317,125977
1530,149378,126450
1531,149770,126878
1532,150953,127153
1533,152803,127224
1534,153869,127200
1535,153814,127283
1536,153888,127247
1537,154353,127113
1538,155753,126966
1539,157659,126808
1540,159576,126673
1541,160960,126468
1542,162462,125947
1543,161584,125562
1544,157841,125429
1545,152073,125120
1546,148222,123747
1547,147583,120495
1548,148583,119618
1549,150543,121394
1550,152282,121781
1551,154636,120475
1552,155988,117967
1553,158533,114302
1554,160841,108848
1555,163415,103103
1556,161415,98472
1557,157261,94839
1558,151134,91582
1559,143343,87606
1560,144653,84091
1561,150353,81838
1562,148696,78735
1563,146401,76644
1564,145195,75482
1565,145838,74578
1566,148755,74460
1567,151442,72592
1568,152107,70092
1569,150374,68804
1570,148307,67797
1571,146436,66717
1572,144522,66247
1573,143937,66914
1574,142812,67329
1575,141551,66920
1576,140984,66539
1577,140445,65967
1578,140327,65571
1579,140529,65419
1580,140470,65240
1581,140392,65019
1582,140405,64940
1583,140325,64867
1584,140177,64690
1585,140120,64506
1586,140085,64492
1587,139931,64467
1588,139689,64285
1589,139359,64136
1590,139049,63931
1591,138735,63749
1592,138362,63506
1593,138118,63177
1594,137809,62965
1595,137472,62731
1596,137071,62513
1597,136694,62254
1598,136378,62058
1599,136041,61850
1600,135376,61440
1601,135093,61292
1602,134599,61097
1603,133993,60680
1604,133917,60573
1605,133908,60556
1606,134171,60730
1607,134395,60874
1608,134508,60946
1609,134431,60892
1610,134201,60672
1611,133857,60365
1612,133446,59992
1613,133090,59662
1614,132774,59303
1615,132406,58904
1616,132034,58521
1617,131647,58174
1618,131311,57889
1619,131147,57710
1620,130983,57527
1621,130796,57319
1622,130533,57033
1623,130236,56820
1624,129750,56576
1625,129148,56251
1626,128680,55993
1627,128287,55750
1628,128037,55564
1629,127810,55386
1630,127503,55177
1631,127132,54959
1632,127020,54824
1633,127062,54763
1634,127232,54772
1635,127384,54791
1636,127350,54755
1637,127139,54648
1638,126862,54492
1639,126672,54366
1640,126573,54275
1641,126589,54211
1642,126601,54140
1643,126589,54068
1644,126557,53995
1645,126599,53947
1646,126727,53929
1647,126815,53924
1648,126856,53905
1649,126914,53902
1650,126814,53858
1651,126547,53742
1652,126364,53634
1653,126233,53536
1654,126113,53455
1655,126007,53368
1656,125862,53257
1657,125697,53123
1658,125618,53034
1659,125565,52962
1660,125464,52874
1661,125434,52810
1662,125356,52741
1663,125252,52686
1664,125055,52588
1665,124773,52444
1666,124550,52331
1667,124407,52235
1668,124314,52144
1669,124187,52033
1670,124057,51923
1671,123985,51856
1672,123995,51810
1673,123973,51774
1674,123932,51718
1675,123873,51681
1676,123750,51603
1677,123673,51546
1678,123570,51501
1679,123377,51392
1680,123182,51293
1681,123112,51242
1682,123016,51185
1683,122964,51129
1684,122909,51079
1685,122961,51030
1686,123050,51030
1687,123069,50985
1688,123066,50948
1689,123011,50895
1690,122986,50846
1691,122947,50807
1692,122894,50762
1693,122928,50764
1694,122877,50738
1695,122678,50644
1696,122599,50609
1697,122573,50573
1698,122542,50555
1699,122476,50506
1700,122419,50480
1701,122396,50469
1702,122432,50503
1703,122490,50549
1704,122484,50552
1705,122462,50567
1706,122432,50563
1707,122350,50535
1708,122350,50517
1709,122372,50520
1710,122272,50454
1711,122142,50368
1712,122042,50308
1713,121974,50270
1714,121964,50250
1715,121932,50226
1716,121911,50230
1717,121932,50250
1718,121900,50254
1719,121855,50238
1720,121802,50227
1721,121709,50186
1722,121586,50162
1723,121448,50127
1724,121377,50100
1725,121391,50102
1726,121274,50046
1727,121141,50013
1728,121088,50019
1729,121056,50023
1730,120996,49994
1731,120888,49940
1732,120796,49901
1733,120791,49897
1734,120773,49888
1735,120756,49871
1736,120704,49851
1737,120619,49830
1738,120514,49828
1739,120458,49805
1740,120460,49813
1741,120406,49806
1742,120258,49769
1743,120196,49767
1744,120155,49765
1745,120100,49750
1746,120056,49718
1747,119956,49689
1748,119948,49698
1749,119902,49701
1750,119865,49682
1751,119893,49686
1752,119892,49669
1753,119826,49657
1754,119803,49654
1755,119773,49637
1756,119807,49675
1757,119749,49668
1758,119603,49621
1759,119541,49631
1760,119495,49611
1761,119494,49608
1762,119464,49596
1763,119412,49583
1764,119436,49601
1765,119443,49601
1766,119391,49565
1767,119337,49534
1768,119256,49501
1769,119167,49501
1770,119120,49490
1771,119150,49504
1772,119154,49522
1773,118964,49442
1774,118867,49420
1775,118836,49409
1776,118799,49387
1777,118775,49360
1778,118719,49328
1779,118738,49333
1780,118777,49337
1781,118706,49306
1782,118695,49288
1783,118640,49262
1784,118568,49253
1785,118515,49217
1786,118488,49223
1787,118427,49224
1788,118288,49173
1789,118170,49141
1790,118110,49136
1791,118056,49120
1792,117980,49084
1793,117915,49075
1794,117939,49089
1795,117952,49091
1796,117877,49043
1797,117833,49000
1798,117768,48940
1799,117693,48928
1800,117682,48897
1801,117748,48910
1802,117721,48906
1803,117575,48851
1804,117477,48828
1805,117409,48805
1806,117370,48780
1807,117274,48742
1808,117170,48698
1809,117169,48709
1810,117171,48713
1811,117106,48669
1812,117086,48647
1813,116992,48607
1814,116953,48605
1815,116927,48582
1816,116915,48577
1817,116910,48589
1818,116782,48536
1819,116643,48507
1820,116551,48470
1821,116400,48417
1822,116322,48369
1823,116278,48336
1824,116287,48367
1825,116311,48378
1826,116231,48342
1827,116065,48263
1828,115876,48187
1829,115781,48145
1830,115707,48114
1831,115700,48118
1832,115693,48127
1833,115561,48066
1834,115466,48042
1835,115418,48029
1836,115403,48000
1837,115402,47982
1838,115350,47959
1839,115376,47968
1840,115461,47978
1841,115457,47956
1842,115457,47943
1843,115432,47927
1844,115411,47941
1845,115361,47926
1846,115351,47936
1847,115228,47901
1848,114926,47774
1849,114717,47687
1850,114728,47673
1851,114757,47673
1852,114739,47668
1853,114718,47656
1854,114814,47683
1855,114910,47709
1856,114937,47706
1857,115009,47712
1858,114995,47695
1859,114940,47684
1860,114864,47668
1861,114880,47675
1862,114877,47688
1863,114731,47641
1864,114624,47604
1865,114586,47591
1866,114530,47555
1867,114515,47542
1868,114488,47531
1869,114484,47522
1870,114524,47522
1871,114518,47507
1872,114568,47516
1873,114572,47493
1874,114547,47497
1875,114540,47512
1876,114530,47510
1877,114561,47549
1878,114453,47521
1879,114313,47470
1880,114278,47456
1881,114278,47449
1882,114328,47465
1883,114320,47452
1884,114280,47445
1885,114280,47440
1886,114326,47447
1887,114326,47434
1888,114276,47417
1889,114198,47400
1890,114125,47387
1891,114033,47374
1892,113988,47388
1893,113872,47369
1894,113700,47310
1895,113574,47274
1896,113500,47258
1897,113456,47248
1898,113368,47221
1899,113287,47185
1900,113252,47169
1901,113229,47158
1902,113150,47130
1903,113113,47118
1904,113063,47094
1905,112979,47083
1906,112947,47085
1907,112928,47104
1908,112863,47089
1909,112755,47047
1910,112726,47030
1911,112726,47023
1912,112694,47009
1913,112662,47004
1914,112620,46984
1915,112658,46984
1916,112691,46993
1917,112686,46978
1918,112644,46958
1919,112624,46931
1920,112604,46927
1921,112566,46915
1922,112569,46913
1923,112581,46937
1924,112473,46911
1925,112376,46859
1926,112338,46854
1927,112294,46830
1928,112247,46819
1929,112227,46807
1930,112213,46804
1931,112236,46803
1932,112244,46801
1933,112228,46784
1934,112202,46758
1935,112133,46738
1936,112098,46719
1937,112026,46704
1938,111972,46656
1939,112005,46703
1940,111913,46691
1941,111806,46658
1942,111719,46651
1943,111657,46623
1944,111615,46601
1945,111594,46583
1946,111579,46566
1947,111594,46592
1948,111571,46568
1949,111540,46551
1950,111539,46546
1951,111499,46534
1952,111483,46533
1953,111481,46520
1954,111417,46502
1955,111399,46486
1956,111425,46526
1957,111393,46533
1958,111305,46499
1959,111224,46465
1960,111156,46463
1961,111145,46441
1962,111086,46444
1963,111026,46426
1964,111022,46433
1965,111023,46436
1966,111003,46425
1967,111013,46425
1968,110983,46416
1969,110984,46417
1970,110983,46410
1971,110918,46405
1972,110869,46378
1973,110894,46415
1974,110879,46422
1975,110755,46391
1976,110664,46352
1977,110617,46348
1978,110565,46332
1979,110553,46342
1980,110496,46331
1981,110437,46329
1982,110423,46344
1983,110401,46340
1984,110378,46329
1985,110314,46319
1986,110257,46294
1987,110258,46311
1988,110228,46304
1989,110184,46293
1990,110170,46283
1991,110220,46328
1992,110159,46328
1993,110037,46281
1994,109994,46280
1995,109930,46265
1996,109886,46259
1997,109820,46245
1998,109781,46242
1999,109774,46244
2000,109759,46256
2001,109747,46229
2002,109736,46232
2003,109690,46203
2004,109704,46196
2005,109723,46201
2006,109690,46190
2007,109739,46200
2008,109823,46245
2009,109780,46257
2010,109668,46225
2011,109531,46200
2012,109430,46189
2013,109443,46219
2014,109448,46250
2015,109419,46269
2016,109456,46306
2017,109446,46329
2018,109454,46340
2019,109469,46361
2020,109431,46364
2021,109361,46355
2022,109314,46362
2023,109243,46351
2024,109226,46366
2025,109198,46386
2026,109068,46356
2027,108965,46328
2028,108860,46309
2029,108797,46282
2030,108758,46258
2031,108660,46212
2032,108601,46188
2033,108614,46196
2034,108563,46170
2035,108535,46147
2036,108509,46125
2037,108392,46101
2038,108265,46056
2039,108221,46019
2040,108221,46023
2041,108166,46007
2042,108108,45962
2043,108078,45954
2044,108029,45952
2045,108034,45961
2046,107995,45948
2047,108004,45943
2048,108023,45935
2049,108059,45940
2050,108077,45918
2051,108091,45898
2052,108053,45867
2053,108003,45843
2054,108005,45829
2055,108026,45840
2056,108016,45845
2057,107935,45806
2058,107888,45799
2059,107856,45808
2060,107831,45811
2061,107835,45802
2062,107788,45792
2063,107809,45800
2064,107842,45821
2065,107839,45814
2066,107853,45807
2067,107832,45795
2068,107779,45787
2069,107770,45778
2070,107794,45796
2071,107789,45812
2072,107703,45782
2073,107615,45766
2074,107584,45781
2075,107537,45777
2076,107511,45782
2077,107487,45782
2078,107463,45787
2079,107436,45791
2080,107400,45765
2081,107359,45733
2082,107315,45717
2083,107269,45722
2084,107228,45721
2085,107221,45743
2086,107226,45746
2087,107179,45738
2088,107076,45703
2089,107026,45705
2090,107010,45695
2091,106958,45688
2092,106904,45679
2093,106856,45669
2094,106861,45676
2095,106829,45663
2096,106805,45644
2097,106802,45627
2098,106755,45622
2099,106716,45612
2100,106697,45589
2101,106722,45600
2102,106712,45610
2103,106618,45562
2104,106554,45547
2105,106523,45535
2106,106607,45509
2107,106587,45514
2108,106527,45485
2109,106534,45502
2110,106535,45515
2111,106502,45489
2112,106493,45485
2113,106462,45474
2114,106413,45461
2115,106379,45457
2116,106358,45417
2117,106376,45429
2118,106357,45431
2119,106278,45392
2120,106310,45428
2121,106314,45447
2122,106326,45459
2123,106377,45490
2124,106356,45511
2125,106360,45527
2126,106352,45531
2127,106328,45510
2128,106313,45502
2129,106288,45483
2130,106224,45444
2131,106169,45403
2132,106053,45332
2133,106034,45297
2134,106048,45291
2135,105943,45231
2136,105892,45182
2137,105850,45160
2138,105852,45139
2139,105858,45131
2140,105810,45100
2141,105812,45075
2142,105759,45052
2143,105716,45024
2144,105683,44993
2145,105643,44950
2146,105502,44892
2147,105299,44844
2148,105118,44728
2149,105098,44709
2150,105088,44696
2151,105012,44654
2152,105023,44650
2153,105054,44653
2154,105080,44654
2155,105113,44662
2156,105107,44652
2157,105135,44649
2158,105105,44640
2159,105080,44606
2160,105069,44600
2161,105052,44561
2162,105007,44547
2163,104955,44520
2164,104926,44499
2165,104969,44520
2166,104948,44504
2167,104860,44454
2168,104854,44458
2169,104807,44450
2170,104823,44445
2171,104839,44443
2172,104839,44458
2173,104862,44436
2174,104850,44436
2175,104841,44435
2176,104833,44420
2177,104807,44401
2178,104763,44401
2179,104710,44399
2180,104687,44387
2181,104686,44412
2182,104591,44384
2183,104494,44345
2184,104475,44347
2185,104416,44336
2186,104400,44318
2187,104393,44336
2188,104349,44329
2189,104365,44338
2190,104370,44343
2191,104363,44337
2192,104311,44332
2193,104263,44314
2194,104249,44323
2195,104177,44300
2196,104144,44278
2197,104133,44305
2198,104083,44300
2199,103973,44256
2200,103921,44256
2201,103881,44229
2202,103838,44209
2203,103832,44200
2204,103818,44188
2205,103860,44196
2206,103889,44198
2207,103881,44193
2208,103900,44199
2209,103911,44202
2210,103899,44212
2211,103847,44206
2212,103800,44209
2213,103810,44228
2214,103810,44255
2215,103746,44232
2216,103716,44213
2217,103702,44223
2218,103705,44220
2219,103696,44222
2220,103675,44202
2221,103651,44182
2222,103628,44187
2223,103598,44182
2224,103562,44165
2225,103514,44143
2226,103478,44128
2227,103396,44122
2228,103313,44093
2229,103281,44076
2230,103238,44083
2231,103087,44036
2232,102979,43995
2233,102948,43976
2234,102913,43958
2235,102922,43949
2236,102910,43928
2237,102889,43902
2238,102894,43903
2239,102901,43893
2240,102889,43875
2241,102853,43845
2242,102838,43817
2243,102775,43808
2244,102684,43772
2245,102659,43748
2246,102700,43758
2247,102633,43735
2248,102569,43697
2249,102550,43693
2250,102541,43674
2251,102561,43672
2252,102572,43660
2253,102638,43632
2254,102729,43624
2255,102789,43634
2256,102829,43647
2257,102818,43652
2258,102819,43646
2259,102784,43645
2260,102719,43653
2261,102654,43630
2262,102602,43652
2263,102512,43635
2264,102393,43590
2265,102350,43584
2266,102275,43573
2267,102205,43560
2268,102178,43555
2269,102128,43537
2270,102103,43519
2271,102074,43501
2272,102062,43502
2273,102018,43494
2274,102017,43495
2275,101987,43497
2276,101964,43501
2277,101907,43484
2278,101938,43504
2279,101911,43517
2280,101826,43468
2281,101764,43449
2282,101714,43454
2283,101682,43436
2284,101621,43418
2285,101581,43426
2286,101563,43397
2287,101585,43415
2288,101597,43429
2289,101597,43435
2290,101586,43446
2291,101553,43453
2292,101525,43472
2293,101450,43472
2294,101376,43473
2295,101308,43495
2296,101238,43506
2297,101120,43462
2298,101049,43453
2299,101007,43454
2300,100985,43465
2301,100979,43467
2302,100956,43463
2303,100934,43454
2304,100956,43460
2305,100941,43458
2306,100905,43455
2307,100883,43450
2308,100860,43442
2309,100790,43428
2310,100707,43411
2311,100697,43420
2312,100704,43409
2313,100703,43368
2314,100714,43347
2315,100668,43333
2316,100632,43318
2317,100607,43308
2318,100560,43284
2319,100598,43281
2320,100602,43272
2321,100592,43248
2322,100593,43243
2323,100611,43215
2324,100596,43203
2325,100598,43193
2326,100634,43190
2327,100683,43218
2328,100720,43224
2329,100704,43201
2330,100729,43208
2331,100736,43210
2332,100798,43221
2333,100883,43222
2334,100949,43230
2335,101029,43235
2336,101076,43253
2337,101091,43246
2338,101117,43247
2339,101114,43246
2340,101106,43248
2341,101064,43250
2342,101060,43261
2343,101058,43276
2344,101005,43249
2345,100917,43229
2346,100881,43230
2347,100841,43252
2348,100830,43213
2349,100798,43201
2350,100775,43183
2351,100775,43173
2352,100794,43166
2353,100786,43157
2354,100752,43144
2355,100728,43133
2356,100685,43127
2357,100639,43104
2358,100657,43110
2359,100677,43129
2360,100585,43097
2361,100516,43072
2362,100458,43076
2363,100428,43053
2364,100408,43040
2365,100360,43015
2366,100339,42999
2367,100324,42989
2368,100325,42983
2369,100297,42969
2370,100280,42950
2371,100233,42944
2372,100206,42949
2373,100226,42957
2374,100195,42951
2375,100216,42981
2376,100199,42986
2377,100171,42960
2378,100144,42957
2379,100102,42939
2380,100105,42940
2381,100104,42933
2382,100047,42903
2383,100003,42885
2384,99920,42868
2385,99859,42820
2386,99816,42799
2387,99763,42772
2388,99742,42772
2389,99690,42764
2390,99670,42764
2391,99710,42803
2392,99665,42786
2393,99571,42750
2394,99460,42725
2395,99409,42709
2396,99432,42709
2397,99454,42691
2398,99461,42690
2399,99487,42679
2400,99535,42671
2401,99571,42670
2402,99610,42663
2403,99616,42655
2404,99628,42642
2405,99606,42616
2406,99625,42613
2407,99673,42630
2408,99590,42585
2409,99491,42555
2410,99451,42555
2411,99389,42547
2412,99384,42546
2413,99404,42532
2414,99469,42526
2415,99551,42546
2416,99631,42566
2417,99710,42576
2418,99797,42586
2419,99841,42587
2420,99857,42601
2421,99916,42609
2422,100011,42652
2423,100044,42683
2424,100037,42681
2425,100001,42696
2426,99964,42708
2427,99939,42706
2428,99934,42709
2429,99887,42695
2430,99860,42691
2431,99885,42699
2432,99851,42680
2433,99836,42689
2434,99827,42652
2435,99801,42664
2436,99761,42660
2437,99740,42647
2438,99778,42667
2439,99769,42681
2440,99691,42649
2441,99602,42635
2442,99558,42637
2443,99487,42610
2444,99450,42594
2445,99398,42568
2446,99370,42573
2447,99354,42557
2448,99332,42553
2449,99328,42533
2450,99292,42530
2451,99259,42518
2452,99191,42516
2453,99148,42502
2454,99152,42509
2455,99152,42541
2456,99083,42521
2457,98967,42487
2458,98901,42483
2459,98837,42475
2460,98854,42480
2461,98864,42475
2462,98843,42456
2463,98808,42446
2464,98801,42423
2465,98740,42388
2466,98685,42352
2467,98661,42329
2468,98596,42304
2469,98487,42253
2470,98451,42224
2471,98469,42231
2472,98468,42226
2473,98413,42192
2474,98369,42190
2475,98290,42182
2476,113914,48779
2477,133757,57226
2478,148686,63498
2479,153425,65485
2480,158211,67535
2481,158153,67520
2482,162812,69474
2483,162780,69440
2484,162692,69428
2485,162596,69397
2486,162578,69386
2487,162657,69439
2488,162582,69409
2489,162522,69372
2490,162499,69372
2491,162442,69352
2492,162492,69351
2493,162492,69347
2494,162542,69320
2495,162647,69352
2496,162729,69359
2497,162801,69400
2498,162902,69421
2499,162955,69429
2500,162975,69452
2501,162946,69445
2502,163015,69470
2503,163086,69535
2504,163055,69532
2505,162982,69514
2506,162959,69535
2507,162930,69548
2508,162952,69568
2509,162951,69572
2510,162962,69574
2511,163021,69595
2512,163039,69611
2513,163082,69614
2514,163138,69620
2515,163138,69643
2516,163109,69664
2517,163111,69656
2518,163170,69705
2519,163192,69772
2520,163070,69707
2521,163055,69714
2522,163033,69721
2523,163017,69708
2524,163023,69707
2525,163022,69691
2526,163057,69695
2527,163142,69710
2528,163161,69717
2529,163217,69726
2530,163229,69732
2531,163200,69732
2532,163206,69736
2533,163199,69729
2534,163290,69761
2535,163291,69789
2536,163179,69733
2537,163060,69693
2538,162941,69667
2539,162889,69629
2540,162838,69608
2541,162747,69565
2542,162706,69527
2543,162689,69521
2544,162692,69514
2545,162681,69511
2546,162637,69500
2547,162561,69489
2548,162509,69497
2549,162438,69460
2550,162460,69462
2551,162506,69506
2552,162392,69456
2553,162257,69405
2554,162145,69404
2555,162084,69392
2556,162051,69396
2557,161981,69373
2558,161965,69374
2559,161946,69389
2560,161935,69392
2561,161898,69386
2562,161933,69394
2563,161866,69379
2564,161780,69374
2565,161704,69348
2566,161714,69342
2567,161762,69388
2568,161801,69389
2569,161739,69343
2570,161704,69326
2571,161668,69318
2572,161767,69330
2573,161810,69335
2574,161841,69321
2575,161875,69331
2576,161868,69331
2577,161845,69317
2578,161834,69289
2579,161805,69265
2580,161773,69256
2581,161718,69252
2582,161775,69229
2583,161855,69280
2584,161852,69269
2585,161776,69231
2586,161751,69254
2587,161731,69234
2588,161779,69241
2589,161785,69240
2590,161826,69218
2591,161913,69229
2592,161928,69221
2593,161992,69213
2594,162017,69208
2595,162023,69181
2596,162044,69193
2597,161989,69177
2598,162076,69179
2599,162254,69236
2600,162312,69237
2601,162304,69189
2602,162374,69206
2603,162412,69214
2604,162465,69219
2605,162481,69234
2606,162475,69222
2607,162492,69255
2608,162480,69271
2609,162450,69269
2610,162459,69286
2611,162413,69294
2612,162354,69289
2613,162293,69300
2614,162258,69279
2615,162316,69328
2616,162336,69354
2617,162215,69307
2618,162133,69305
2619,162053,69301
2620,162008,69283
2621,162028,69284
2622,161982,69275
2623,161897,69264
2624,161863,69248
2625,161755,69257
2626,161794,69375
2627,161630,69468
2628,161254,69481
2629,160605,69351
2630,159970,69176
2631,159857,69156
2632,160130,69352
2633,160424,69519
2634,160699,69690
2635,160879,69729
2636,161043,69849
2637,161092,69941
2638,160696,69697
2639,160112,69446
2640,159610,69316
2641,159625,69515
2642,159990,69767
2643,160259,69904
2644,160215,69746
2645,159659,69485
2646,158845,69223
2647,158561,69269
2648,159276,69635
2649,160371,70036