timestamp,Green1 Count,Green2 Count
1,107309,107015
2,193538,172239
3,176219,155679
4,171434,151493
5,166364,147070
6,166265,147011
7,166180,146957
8,166120,146910
9,166075,146853
10,166034,146818
11,165994,146759
12,165979,146708
13,165956,146651
14,165965,146602
15,165982,146534
16,166001,146495
17,166005,146453
18,166006,146398
19,165912,146289
20,165751,146150
21,165624,146019
22,165541,145907
23,165456,145809
24,165415,145708
25,165387,145639
26,165345,145543
27,165285,145522
28,165222,145472
29,165189,145432
30,165167,145381
31,165160,145334
32,165159,145291
33,165157,145262
34,165156,145218
35,165125,145115
36,165045,144985
37,164955,144879
38,164860,144716
39,164788,144614
40,164749,144542
41,164726,144443
42,164737,144360
43,164746,144270
44,164758,144207
45,164761,144137
46,164787,144068
47,164823,144010
48,164843,143950
49,164869,143909
50,164878,143873
51,164838,143850
52,164692,143750
53,164542,143640
54,164428,143502
55,164322,143370
56,164289,143268
57,164269,143189
58,164258,143119
59,164246,143043
60,164234,142975
61,164238,142908
62,164246,142829
63,164250,142764
64,164268,142743
65,164292,142690
66,164313,142652
67,164360,142597
68,164383,142520
69,164317,142373
70,164208,142212
71,164101,142076
72,163984,141959
73,163902,141867
74,163850,141793
75,163803,141725
76,163776,141683
77,163747,141602
78,163722,141534
79,163686,141458
80,163666,141415
81,163661,141364
82,163654,141315
83,163658,141268
84,163668,141215
85,163654,141163
86,163579,141056
87,163452,140906
88,163317,140763
89,163221,140639
90,163132,140577
91,163066,140413
92,163019,140342
93,162988,140267
94,162941,140187
95,162895,140122
96,162855,140045
97,162836,139985
98,162778,139922
99,162790,139865
100,162779,139812
101,162776,139752
102,162778,139683
103,162748,139617
104,162613,139477
105,162489,139308
106,162367,139234
107,162264,139101
108,162184,138994
109,162153,138908
110,162115,138828
111,162057,138746
112,161997,138674
113,161960,138605
114,161915,138544
115,161869,138498
116,161846,138453
117,161819,138409
118,161786,138342
119,161784,138330
120,161770,138294
121,161735,138243
122,161603,138118
123,161435,137996
124,161263,137877
125,161124,137795
126,160987,137716
127,160890,137655
128,160791,137606
129,160677,137588
130,160590,137517
131,160513,137476
132,160449,137431
133,160431,137368
134,160429,137300
135,160428,137229
136,160430,137196
137,160422,137166
138,160402,137133
139,160307,137059
140,160150,136947
141,159976,136832
142,159814,136742
143,159704,136677
144,159610,136598
145,159549,136564
146,159500,136498
147,159448,136428
148,159412,136373
149,159384,136315
150,159381,136276
151,159374,136239
152,159378,136200
153,159399,136167
154,159427,136112
155,159458,136085
156,159425,136021
157,159315,135881
158,159198,135764
159,159094,135653
160,159007,135565
161,158960,135497
162,158931,135444
163,158911,135394
164,158903,135345
165,158897,135302
166,158908,135273
167,158941,135247
168,158985,135231
169,159033,135210
170,159087,135183
171,159151,135183
172,159210,135168
173,159234,135137
174,159192,135088
175,159110,134996
176,159021,134906
177,158930,134818
178,158850,134785
179,158796,134746
180,158781,134727
181,158777,134704
182,158774,134726
183,158786,134686
184,158822,134693
185,158853,134683
186,158900,134695
187,158956,134718
188,159018,134727
189,159082,134734
190,159143,134740
191,159181,134754
192,159136,134746
193,159054,134707
194,158979,134672
195,158893,134632
196,158832,134606
197,158800,134571
198,158798,134568
199,158800,134562
200,158805,134580
201,158805,134597
202,158844,134620
203,158887,134642
204,158949,134673
205,159016,134702
206,159077,134719
207,159153,134739
208,159215,134752
209,159287,134731
210,159332,134773
211,159297,134751
212,159224,134680
213,159172,134645
214,159110,134597
215,159092,134561
216,159119,134536
217,159147,134535
218,159168,134534
219,159182,134544
220,159208,134556
221,159247,134596
222,159306,134597
223,159359,134640
224,159406,134664
225,159467,134686
226,159531,134710
227,159598,134720
228,159658,134722
229,159699,134741
230,159688,134735
231,159646,134711
232,159570,134660
233,159544,134631
234,159532,134612
235,159536,134613
236,159567,134601
237,159570,134615
238,159588,134632
239,159609,134652
240,159652,134662
241,159701,134681
242,159747,134710
243,159794,134735
244,159847,134753
245,159912,134775
246,159965,134774
247,160021,134804
248,160060,134814
249,160037,134804
250,160004,134775
251,159955,134708
252,159930,134707
253,159914,134689
254,159938,134690
255,159962,134705
256,159983,134735
257,160014,134774
258,160047,134808
259,160072,134832
260,160110,134884
261,160147,134903
262,160185,134930
263,160228,134965
264,160272,134997
265,160323,135028
266,160363,135043
267,160378,135057
268,160337,135059
269,160282,135022
270,160237,135006
271,160195,134984
272,160171,134967
273,160172,134958
274,160179,134964
275,160166,134950
276,160164,134972
277,160170,134969
278,160182,134983
279,160200,134968
280,160230,134970
281,160252,134976
282,160280,134969
283,160318,134966
284,160366,134947
285,160322,134907
286,160284,134868
287,160222,134761
288,160165,134731
289,160111,134669
290,160081,134624
291,160082,134584
292,160071,134549
293,160079,134550
294,160061,134536
295,160081,134539
296,160133,134537
297,160161,134546
298,160208,134558
299,160257,134577
300,160310,134582
301,160365,134594
302,160431,134612
303,160484,134628
304,160434,134619
305,160406,134583
306,160390,134538
307,160345,134505
308,160336,134470
309,160348,134443
310,160365,134428
311,160377,134438
312,160397,134449
313,160416,134465
314,160435,134448
315,160452,134459
316,160483,134466
317,160502,134476
318,160529,134476
319,160562,134480
320,160591,134472
321,160609,134465
322,160558,134452
323,160483,134408
324,160398,134336
325,160320,134325
326,160228,134272
327,160180,134264
328,160181,134257
329,160165,134248
330,160149,134245
331,160142,134239
332,160145,134216
333,160132,134177
334,160126,134155
335,160124,134149
336,160112,134141
337,160113,134128
338,160119,134107
339,160136,134088
340,160126,134062
341,160066,134045
342,159939,133981
343,159826,133910
344,159739,133843
345,159661,133776
346,159609,133717
347,159574,133675
348,159514,133637
349,159498,133581
350,159444,133528
351,159420,133493
352,159400,133495
353,159383,133449
354,159377,133455
355,159364,133458
356,159347,133456
357,159374,133461
358,159410,133483
359,159405,133448
360,159323,133415
361,159204,133340
362,159095,133265
363,158984,133182
364,158875,133160
365,158808,133115
366,158752,133097
367,158681,133063
368,158625,133044
369,158570,133038
370,158529,133040
371,158508,133054
372,158476,133050
373,158460,133063
374,158450,133086
375,158441,133109
376,158453,133135
377,158479,133166
378,158471,133209
379,158415,133195
380,158324,133213
381,158241,133185
382,158174,133184
383,158119,133177
384,158096,133187
385,158087,133208
386,158058,133237
387,158035,133277
388,158033,133313
389,158040,133345
390,158069,133378
391,158098,133431
392,158120,133428
393,158151,133452
394,158187,133463
395,158231,133467
396,158253,133475
397,158199,133460
398,158113,133412
399,158023,133363
400,157957,133324
401,157911,133285
402,157900,133246
403,157907,133249
404,157916,133255
405,157920,133265
406,157933,133274
407,157978,133298
408,158017,133309
409,158065,133339
410,158125,133370
411,158174,133402
412,158241,133439
413,158331,133465
414,158394,133501
415,158375,133494
416,158332,133475
417,158282,133464
418,158242,133404
419,158239,133447
420,158256,133448
421,158288,133470
422,158315,133498
423,158357,133539
424,158401,133584
425,158451,133618
426,158517,133663
427,158567,133713
428,158626,133766
429,158677,133824
430,158727,133923
431,158745,134015
432,158677,134128
433,158544,134266
434,158366,134424
435,158124,134676
436,157629,134950
437,156796,134998
438,156118,134748
439,155500,134734
440,154841,135228
441,154658,135744
442,154785,136140
443,154670,136999
444,154548,138489
445,154832,140629
446,154919,142101
447,154500,144146
448,154394,146909
449,154895,148567
450,155646,149489
451,156950,150076
452,159535,149642
453,161757,149130
454,161380,149041
455,161602,148044
456,163066,143707
457,160003,152550
458,155341,156821
459,152789,155303
460,151421,152235
461,150633,146085
462,151887,135397
463,156330,128656
464,159008,127713
465,160446,127588
466,161000,127817
467,161861,127913
468,161357,130385
469,160651,134524
470,161124,138396
471,161093,139564
472,160862,139461
473,160866,139855
474,160878,138136
475,160761,135373
476,161513,132478
477,164313,130828
478,167378,130243
479,168672,132465
480,169773,142546
481,168342,155001
482,160797,161412
483,156426,161122
484,154656,160808
485,153794,159154
486,153800,152690
487,155516,143600
488,161871,137934
489,165101,136519
490,166466,136650
491,166422,137408
492,165770,142101
493,166045,150119
494,167887,158420
495,168171,158844
496,166710,154728
497,164219,152422
498,162870,146337
499,162783,140467
500,164022,137878
501,167978,135992
502,172333,135333
503,173397,136247
504,172563,144049
505,174512,160666
506,169623,168304
507,166291,167409
508,164073,165546
509,163918,158646
510,165218,148570
511,169205,142751
512,170694,139803
513,170843,138659
514,169875,137922
515,169111,142134
516,169824,150830
517,171788,163855
518,171465,174284
519,169800,174182
520,168858,170888
521,168234,167023
522,167719,163076
523,167028,157397
524,166733,152526
525,168063,148765
526,172734,145142
527,177670,142939
528,181112,142986
529,183260,155404
530,179169,169944
531,170625,176062
532,165534,175817
533,163248,176636
534,162710,174338
535,163274,165284
536,168096,155447
537,174781,152474
538,176220,149589
539,175961,146945
540,174407,146522
541,173073,149333
542,173764,156490
543,175887,162837
544,177062,168119
545,176778,169344
546,176275,169503
547,175187,166527
548,173860,160388
549,173558,156498
550,174455,151864
551,176319,148449
552,179455,146116
553,180329,148520
554,179455,163652
555,171835,177779
556,164431,180040
557,161051,177516
558,159940,177304
559,159648,175651
560,160063,167059
561,163945,157851
562,172626,153068
563,175901,152522
564,177200,155091
565,177254,153446
566,176321,150663
567,175167,153933
568,175359,159663
569,176332,164597
570,177223,167870
571,177411,167882
572,177011,167059
573,176892,167441
574,176649,166472
575,176338,165328
576,176062,164440
577,176014,165392
578,175977,167071
579,175779,166827
580,175551,164864
581,174818,160635
582,173286,155442
583,172249,154980
584,171444,151612
585,171601,145654
586,175625,144519
587,177592,148332
588,175475,147782
589,174430,152830
590,175063,161242
591,174660,164378
592,173762,164347
593,172408,166078
594,171792,168470
595,172137,168901
596,173495,167651
597,174906,161304
598,177654,152491
599,178674,149773
600,178592,144482
601,176220,143213
602,175686,147125
603,178623,159002
604,183702,177936
605,185888,195294
606,184887,206164
607,183245,203745
608,182462,189090
609,181283,167664
610,180192,156499
611,178273,146670
612,177537,144155
613,178338,145619
614,179083,144052
615,179186,141252
616,179856,144925
617,180716,154301
618,180175,162497
619,178572,164417
620,177415,162378
621,177092,160784
622,177376,156823
623,178044,153058
624,178605,151692
625,177750,148993
626,178330,154004
627,180155,161297
628,181785,167265
629,182654,177552
630,183121,185852
631,182836,187181
632,182377,184560
633,180700,174481
634,177696,166878
635,175408,159764
636,174417,151791
637,175534,145847
638,179039,146588
639,179348,146751
640,179373,148773
641,180135,153660
642,180092,158567
643,178949,161542
644,177365,164444
645,175803,166108
646,173917,162342
647,173577,157818
648,175357,157034
649,177843,156567
650,177807,152211
651,177655,153694
652,177671,158000
653,179112,166766
654,180758,175228
655,180916,178943
656,179653,179336
657,178892,176359
658,177601,167821
659,175486,159785
660,173454,149357
661,173905,144886
662,176510,145125
663,176699,146101
664,176465,147258
665,176882,150704
666,177381,155917
667,177185,159814
668,176344,161341
669,175338,162002
670,174602,161127
671,174190,157652
672,174135,153871
673,174795,151562
674,176203,151469
675,176856,150378
676,175645,149478
677,176073,153920
678,177983,161953
679,179977,167422
680,180127,169103
681,179499,169264
682,179598,169097
683,179017,166813
684,176967,162198
685,175102,155277
686,175237,149392
687,177943,148531
688,178427,148365
689,177569,148472
690,177667,150976
691,178046,154651
692,178123,157477
693,177549,160058
694,176914,162240
695,176523,162312
696,175983,159523
697,176020,157408
698,176685,156165
699,176752,152860
700,176285,149517
701,175189,148259
702,174460,149497
703,174950,153815
704,175750,158473
705,177200,163683
706,177978,166030
707,177950,165967
708,177125,163614
709,175613,158978
710,174311,153707
711,174522,149168
712,177103,148878
713,176834,148577
714,176535,150267
715,177154,153795
716,177227,156021
717,176720,157228
718,176409,157097
719,176348,157614
720,175876,155813
721,175798,153148
722,176232,152862
723,176849,152873
724,177750,153447
725,177918,152329
726,177018,151783
727,176738,153767
728,177653,159390
729,179673,168330
730,180899,173919
731,180378,174130
732,179202,169360
733,178417,165543
734,176883,160346
735,174996,153951
736,174715,149188
737,176644,146991
738,178703,147744
739,178683,148175
740,178933,151393
741,179087,155520
742,178551,158529
743,177648,158515
744,177466,157618
745,177747,155175
746,178118,153538
747,178959,154004
748,179935,155238
749,179444,153108
750,178820,154876
751,180067,160785
752,182732,171621
753,185427,182322
754,186321,185497
755,185007,181304
756,183494,172325
757,181391,162075
758,179180,155664
759,178461,150325
760,180492,149417
761,182361,149102
762,182241,149308
763,182398,151237
764,182257,152376
765,182102,153125
766,182287,155591
767,182517,156718
768,183148,156710
769,184025,156715
770,184556,156764
771,183628,154106
772,182563,153695
773,183354,158398
774,186537,171058
775,189113,182877
776,188924,184778
777,187005,180830
778,186138,172179
779,183416,161314
780,180939,153433
781,180552,148012
782,182372,146448
783,183685,147309
784,183980,147925
785,183852,148954
786,183635,151478
787,182985,153672
788,182389,156154
789,181685,157057
790,181111,154756
791,181501,152195
792,182808,153301
793,182219,151467
794,181374,151878
795,183652,157857
796,186532,164861
797,186320,167290
798,186932,170556
799,187319,171687
800,187201,170891
801,186221,167318
802,184146,161759
803,182653,155475
804,183333,152273
805,185770,151120
806,186033,152077
807,185907,152960
808,185821,152728
809,185709,152220
810,185727,152537
811,185730,152683
812,185811,153053
813,185787,153529
814,184839,148874
815,182961,143195
816,181995,144827
817,181322,145893
818,181516,146178
819,182047,146082
820,182048,150643
821,181461,153517
822,181040,154784
823,180995,155835
824,180647,156294
825,180184,156287
826,180036,155809
827,180410,154671
828,180122,154450
829,179895,152962
830,179556,150794
831,179884,149711
832,179970,149272
833,179924,151151
834,179526,152152
835,178905,152085
836,178725,152871
837,179130,153050
838,179749,153268
839,180309,153264
840,180601,151739
841,180795,149954
842,180957,148118
843,180683,146710
844,180320,148597
845,180041,151451
846,179952,153081
847,179691,154103
848,179379,154894
849,178935,156423
850,178383,157959
851,178166,159272
852,178085,160331
853,178077,160762
854,177958,161093
855,177749,161757
856,177645,162620
857,177619,163082
858,177552,163305
859,177670,163402
860,177720,163205
861,177840,162402
862,178109,160932
863,178593,157034
864,178856,155360
865,179089,157362
866,179186,157561
867,179279,157063
868,179364,156295
869,179417,155219
870,179368,154473
871,179356,154493
872,179571,154931
873,179535,153242
874,179252,150667
875,178720,149176
876,178192,147669
877,177795,152140
878,177711,156883
879,177680,159553
880,177576,161528
881,177664,162331
882,177588,163217
883,177803,164025
884,177861,164450
885,178151,164716
886,178630,164860
887,178930,164710
888,178964,164553
889,178815,164596
890,178558,164893
891,178229,165202
892,178043,165282
893,177945,165324
894,177743,165435
895,177679,165688
896,177798,165865
897,177944,165941
898,178040,165566
899,178034,164561
900,178067,163753
901,178509,161331
902,178886,156720
903,179272,158639
904,179240,158528
905,179107,157512
906,178930,157148
907,178612,156101
908,178323,155052
909,178227,155796
910,177998,156450
911,177002,153409
912,176624,150483
913,176591,149395
914,176520,151699
915,176356,158802
916,175879,160948
917,175753,162207
918,176394,164398
919,176409,165762
920,176683,167479
921,176470,168101
922,176445,168184
923,176200,168352
924,175937,168873
925,175725,169779
926,175407,170968
927,175160,171667
928,175104,172152
929,175113,172548
930,175183,172823
931,175295,173113
932,175510,173372
933,175713,173253
934,175912,172794
935,176315,171746
936,176911,169368
937,177480,166567
938,177872,160449
939,177660,158490
940,177464,158218
941,177335,157674
942,177258,156667
943,177154,155731
944,177171,155737
945,177272,155785
946,177425,156058
947,177611,154888
948,178071,152690
949,178496,151644
950,178956,151979
951,178654,150848
952,178891,154642
953,179666,156956
954,179552,158765
955,179587,164996
956,179503,168360
957,179292,169337
958,179008,170091
959,178706,171010
960,178283,171626
961,178131,172347
962,177860,173154
963,177773,173687
964,177737,174089
965,177697,174577
966,177675,175113
967,177964,175650
968,178406,175891
969,178672,175770
970,178661,175425
971,178774,174251
972,179110,171283
973,179399,167589
974,179486,161578
975,179369,158992
976,179385,159125
977,179349,158630
978,179265,157680
979,179122,157149
980,179162,157129
981,179449,158192
982,179736,157958
983,179652,154831
984,179769,153192
985,179796,152323
986,179529,153846
987,179425,158366
988,179296,160240
989,179427,164396
990,179514,167705
991,179381,169788
992,179344,172133
993,179237,173646
994,179230,174366
995,179273,174836
996,179136,175204
997,179002,175535
998,178963,175769
999,179167,176059
1000,179524,176371
1001,179716,176646
1002,179637,177143
1003,179483,177847
1004,179247,178522
1005,179246,178554
1006,179167,178150
1007,179556,177313
1008,180681,175366
1009,181733,171586
1010,182672,166355
1011,183579,162331
1012,184489,163950
1013,185031,164454
1014,185707,166468
1015,186232,168655
1016,186698,170376
1017,187087,171941
1018,187624,174129
1019,187417,175331
1020,187384,175613
1021,187541,175014
1022,187721,174253
1023,187944,172641
1024,187806,167402
1025,187340,163051
1026,186457,159336
1027,185070,155970
1028,183082,154199
1029,181596,161805
1030,181041,165090
1031,180940,166278
1032,180912,166665
1033,180884,166903
1034,180807,167003
1035,180658,166840
1036,180636,166783
1037,180684,166887
1038,180750,167079
1039,180805,167192
1040,180850,167354
1041,180851,167860
1042,180841,168100
1043,180839,168344
1044,180879,168562
1045,181026,168654
1046,181179,168664
1047,181348,168709
1048,181482,168705
1049,181568,168779
1050,181582,168780
1051,181580,168660
1052,181579,168440
1053,181585,168219
1054,181570,168111
1055,181510,168106
1056,181436,168103
1057,181376,168021
1058,181363,167988
1059,181369,167922
1060,181393,167818
1061,181447,167790
1062,181467,167821
1063,181470,167787
1064,181495,167714
1065,181475,167567
1066,181395,167422
1067,181277,167272
1068,181158,167111
1069,181065,166958
1070,181000,166812
1071,180950,166687
1072,180918,166619
1073,180900,166533
1074,180869,166421
1075,180867,166306
1076,180895,166133
1077,180945,166075
1078,180982,166014
1079,181031,165982
1080,181013,165877
1081,180906,165674
1082,180760,165465
1083,180607,165217
1084,180457,165041
1085,180345,164875
1086,180280,164770
1087,180200,164635
1088,180148,164524
1089,180087,164437
1090,180043,164323
1091,180033,164273
1092,180028,164225
1093,180033,164186
1094,180037,164206
1095,179981,164142
1096,179804,163928
1097,179583,163688
1098,179351,163437
1099,179102,163211
1100,178945,163053
1101,178820,162954
1102,178696,162884
1103,178573,162812
1104,178456,162734
1105,178365,162667
1106,178309,162598
1107,178263,162592
1108,178223,162571
1109,178193,162539
1110,178149,162482
1111,177969,162292
1112,177697,162073
1113,177395,161844
1114,177109,161633
1115,176872,161496
1116,176708,161417
1117,176569,161293
1118,176438,161203
1119,176294,161112
1120,176182,161058
1121,176083,161004
1122,176005,160983
1123,175955,160986
1124,175921,160978
1125,175919,160955
1126,175889,160918
1127,175701,160715
1128,175411,160524
1129,175099,160342
1130,174830,160180
1131,174612,160047
1132,174460,159969
1133,174334,159938
1134,174198,159906
1135,174077,159864
1136,173996,159822
1137,173926,159818
1138,173893,159832
1139,173885,159880
1140,173879,159916
1141,173893,159964
1142,173907,160001
1143,173816,159996
1144,173561,159901
1145,173233,159812
1146,172962,159745
1147,172719,159730
1148,172510,159728
1149,172379,159749
1150,172251,159753
1151,172128,159840
1152,171956,159976
1153,171803,160102
1154,171729,160215
1155,171673,160361
1156,171634,160415
1157,171614,160528
1158,171593,160601
1159,171505,160664
1160,171299,160618
1161,170987,160583
1162,170668,160540
1163,170393,160517
1164,170162,160518
1165,170004,160525
1166,169870,160509
1167,169720,160504
1168,169618,160526
1169,169504,160538
1170,169454,160537
1171,169415,160528
1172,169409,160548
1173,169422,160579
1174,169459,160568
1175,169467,160597
1176,169334,160518
1177,169096,160395
1178,168849,160245
1179,168667,160121
1180,168534,160071
1181,168474,160079
1182,168449,160037
1183,168426,160056
1184,168400,160090
1185,168395,160116
1186,168421,160180
1187,168448,160237
1188,168515,160313
1189,168600,160383
1190,168677,160429
1191,168735,160458
1192,168652,160404
1193,168439,160271
1194,168216,160234
1195,168026,160164
1196,167880,160145
1197,167806,160215
1198,167754,160288
1199,167683,160316
1200,167638,160356
1201,167619,160379
1202,167625,160439
1203,167661,160526
1204,167704,160591
1205,167778,160670
1206,167863,160738
1207,167945,160815
1208,167929,160807
1209,167764,160725
1210,167547,160664
1211,167350,160598
1212,167193,160562
1213,167092,160546
1214,167017,160559
1215,167025,160571
1216,166978,160603
1217,167001,160654
1218,167019,160699
1219,167058,160740
1220,167097,160825
1221,167163,160928
1222,167238,161026
1223,167331,161107
1224,167430,161155
1225,167412,161157
1226,167257,161095
1227,167070,161069
1228,166861,161006
1229,166740,160986
1230,166671,160987
1231,166652,161008
1232,166625,161042
1233,166603,161073
1234,166609,161122
1235,166637,161165
1236,166682,161246
1237,166742,161324
1238,166820,161413
1239,166915,161516
1240,167004,161563
1241,167112,161608
1242,167189,161652
1243,167156,161621
1244,166985,161495
1245,166818,161443
1246,166692,161409
1247,166599,161344
1248,166574,161337
1249,166591,161393
1250,166591,161398
1251,166612,161443
1252,166631,161449
1253,166698,161479
1254,166779,161532
1255,166885,161633
1256,166992,161745
1257,167110,161840
1258,167193,161876
1259,167341,161928
1260,167486,162012
1261,167523,162047
1262,167391,161983
1263,167258,161905
1264,167138,161836
1265,167067,161827
1266,167024,161828
1267,167032,161872
1268,167038,161911
1269,167060,161967
1270,167087,162013
1271,167127,162088
1272,167194,162184
1273,167273,162289
1274,167354,162407
1275,167424,162529
1276,167499,162650
1277,167571,162747
1278,167663,162820
1279,167738,162891
1280,167677,162907
1281,167511,162852
1282,167343,162774
1283,167212,162719
1284,167130,162701
1285,167079,162712
1286,167065,162725
1287,167055,162753
1288,167050,162789
1289,167049,162813
1290,167087,162873
1291,167135,162944
1292,167201,163029
1293,167285,163121
1294,167350,163195
1295,167444,163237
1296,167543,163232
1297,167641,163249
1298,167672,163234
1299,167552,163133
1300,167459,163006
1301,167384,162906
1302,167335,162853
1303,167351,162831
1304,167413,162831
1305,167468,162841
1306,167498,162862
1307,167558,162877
1308,167635,162905
1309,167727,162940
1310,167848,162986
1311,167958,163046
1312,168097,163116
1313,168214,163159
1314,168353,163185
1315,168475,163202
1316,168515,163204
1317,168440,163105
1318,168292,163003
1319,168237,162897
1320,168193,162818
1321,168188,162764
1322,168206,162751
1323,168252,162753
1324,168322,162771
1325,168360,162788
1326,168425,162798
1327,168508,162841
1328,168611,162886
1329,168724,162930
1330,168828,162988
1331,168940,163031
1332,169068,163047
1333,169192,163068
1334,169251,163062
1335,169144,162938
1336,169010,162788
1337,168918,162647
1338,168828,162495
1339,168785,162432
1340,168788,162376
1341,168771,162342
1342,168808,162311
1343,168785,162274
1344,168862,162265
1345,168889,162260
1346,168960,162279
1347,169047,162300
1348,169124,162338
1349,169207,162345
1350,169301,162376
1351,169365,162350
1352,169442,162350
1353,169421,162267
1354,169275,162077
1355,169104,161874
1356,168948,161684
1357,168830,161537
1358,168744,161421
1359,168687,161346
1360,168619,161260
1361,168540,161179
1362,168475,161131
1363,168428,161056
1364,168398,161023
1365,168382,160993
1366,168373,160977
1367,168374,160975
1368,168366,160924
1369,168388,160881
1370,168416,160842
1371,168424,160816
1372,168294,160674
1373,168100,160452
1374,167891,160229
1375,167702,160073
1376,167553,159915
1377,167441,159790
1378,167344,159692
1379,167261,159615
1380,167167,159567
1381,167086,159522
1382,167027,159490
1383,166978,159483
1384,166928,159483
1385,166905,159515
1386,166901,159534
1387,166868,159526
1388,166862,159484
1389,166854,159482
1390,166757,159412
1391,166543,159260
1392,166276,159054
1393,166051,158925
1394,165817,158798
1395,165632,158677
1396,165500,158595
1397,165364,158510
1398,165217,158404
1399,165101,158276
1400,165009,158149
1401,164946,158076
1402,164923,157987
1403,164926,157932
1404,164951,157875
1405,165006,157802
1406,165073,157692
1407,165132,157582
1408,165082,157365
1409,164968,157094
1410,164863,156863
1411,164784,156693
1412,164716,156551
1413,164714,156420
1414,164741,156317
1415,164773,156238
1416,164780,156181
1417,164812,156143
1418,164843,156096
1419,164901,156041
1420,164970,156002
1421,165049,155999
1422,165114,156002
1423,165178,155967
1424,165253,155921
1425,165254,155840
1426,165121,155602
1427,164941,155334
1428,164743,155113
1429,164532,154883
1430,164370,154705
1431,164257,154534
1432,164177,154379
1433,164132,154229
1434,164086,154125
1435,164064,154041
1436,164060,153983
1437,164051,153910
1438,164042,153835
1439,163858,153833
1440,163748,154120
1441,164066,154266
1442,164499,154357
1443,164887,154264
1444,164917,154019
1445,164759,153968
1446,164548,153639
1447,164389,153294
1448,164346,153150
1449,164426,153072
1450,164512,152904
1451,164643,152723
1452,164757,152601
1453,164833,152578
1454,164844,152588
1455,164839,152571
1456,164906,152631
1457,164953,152549
1458,165045,152410
1459,165148,152287
1460,165224,152136
1461,165240,151978
1462,165148,151773
1463,164968,151528
1464,164753,151239