timestamp,ch1,ch2,ch3
653329271494157824,-43121,-66372,-56776
653329271501596160,-43271,-66553,-56759
653329271509034496,-42088,-65456,-55741
653329271516472832,-42731,-66091,-56324
653329271523911168,-43133,-66396,-56687
653329271531349504,-43172,-66621,-56873
653329271538787840,-42178,-66656,-56787
653329271546226176,-42691,-66626,-56840
653329271553664512,-43100,-66629,-57014
653329271561102848,-43288,-66660,-57038
653329271568541184,-43282,-66735,-56899
653329271575979520,-43261,-66730,-57034
653329271583417856,-43351,-66768,-57084
653329271590856192,-43291,-66680,-56929
653329271598294528,-43293,-66751,-57010
653329271605732864,-43249,-66756,-57123
653329271613171200,-43298,-66742,-57204
653329271620609536,-43283,-66626,-57120
653329271628109769,-43576,-66463,-56881
653329271635544464,-43472,-66715,-57150
653329271642979159,-43529,-66770,-57190
653329271650413854,-43410,-66763,-57272
653329271657848549,-43310,-66667,-57006
653329271665283244,-43299,-66749,-57102
653329271672717939,-43428,-66742,-57200
653329271680152634,-43386,-66787,-57124
653329271687587329,-43383,-66701,-57234
653329271695022024,-43406,-66863,-57353
653329271702456719,-43362,-66847,-57382
653329271709891414,-43265,-66658,-57367
653329271717326109,-43372,-66647,-57215
653329271724760804,-43480,-66783,-57296
653329271732195499,-43387,-66803,-57149
653329271739630194,-43404,-66702,-57298
653329271747064889,-43464,-66823,-57214
653329271754499584,-43405,-66786,-57235
653329271761934281,-43325,-66470,-57224
653329271769368976,-43358,-66627,-57292
653329271776803671,-43285,-66703,-57217
653329271784238366,-43295,-66661,-57214
653329271791673061,-43216,-66719,-57181
653329271799107756,-43206,-65540,-56051
653329271806542451,-43342,-66130,-56662
653329271813977146,-43270,-66442,-57000
653329271821411841,-43328,-66577,-57120
653329271828846536,-42151,-65528,-56004
653329271836281231,-42793,-66174,-56690
653329271843715926,-43258,-66564,-57020
653329271851150621,-43193,-66679,-57202
653329271858585316,-42087,-66571,-57222
653329271866020011,-42789,-66652,-57277
653329271873454706,-43012,-66806,-57216
653329271880889401,-43186,-66659,-57264
653329271888324096,-43192,-66666,-57226
653329271895758793,-43429,-66618,-57479
653329271903193488,-43302,-66704,-57321
653329271910628183,-43423,-66673,-57213
653329271918062878,-43227,-66759,-57140
653329271925497573,-43261,-66739,-57239
653329271932932268,-43186,-66761,-57338
653329271940366963,-43240,-66697,-57240
653329271947801658,-43159,-66369,-57154
653329271955236353,-43199,-66529,-57223
653329271962671048,-43167,-66509,-57226
653329271970105743,-43190,-66473,-57289
653329271977540438,-43044,-66378,-57100
653329271984975133,-43197,-66518,-57215
653329271992409828,-43241,-66520,-57284
653329271999844523,-43149,-66707,-57291
653329272007279218,-43293,-66620,-57242
653329272014713913,-43283,-66674,-57320
653329272022148608,-43217,-66679,-57367
653329272029583305,-43104,-66330,-57181
6.53329E+17,-43175,-66553,-57241
653329272044452695,-43196,-66691,-57438
653329272051887390,-43278,-66726,-57592
653329272059322085,-43368,-66738,-57379
653329272066756780,-43492,-66844,-57499
653329272074191475,-43415,-66912,-57528
653329272081626170,-43488,-66905,-57638
653329272089060865,-43441,-67020,-57505
653329272096495560,-43538,-66992,-57603
653329272103930255,-43501,-67138,-57659
653329272111364950,-43453,-66990,-57684
653329272118799645,-43513,-65981,-56612
653329272126234340,-43403,-66627,-57192
653329272133669035,-43514,-66922,-57396
653329272141103730,-43519,-67005,-57469
653329272148538425,-42562,-66019,-56592
653329272155973120,-43148,-66642,-57224
653329272163469714,-43479,-66865,-57472
653329272170900768,-43503,-66959,-57683
653329272178331822,-42547,-67024,-57720
653329272185762876,-43141,-67248,-57899
653329272193193930,-43464,-67256,-57836
653329272200624984,-43643,-67351,-57917
653329272208056038,-43611,-67169,-57944
653329272215487092,-43669,-67284,-57952
653329272222918146,-43796,-67333,-57934
653329272230349200,-43617,-67252,-58008
653329272237780254,-43592,-67233,-57995
653329272245211308,-43703,-67256,-57943
653329272252642362,-43814,-67195,-57984
653329272260073416,-43890,-67272,-58053
653329272267504470,-43723,-67127,-57874
653329272274935524,-43770,-67455,-58015
653329272282366578,-43830,-67559,-58005
653329272289797632,-43800,-67449,-58029
653329272297043016,-43790,-67490,-57967
653329272304484992,-43775,-67558,-58114
653329272311926968,-43899,-67604,-58286
653329272319368944,-43863,-67487,-58240
653329272326810920,-43964,-67638,-58332
653329272334252896,-44080,-67631,-58327
653329272341694872,-44059,-67584,-58366
653329272349136848,-43980,-67682,-58246
653329272356578824,-44080,-67634,-58415
653329272364020800,-44056,-67628,-58516
653329272371462776,-44046,-67715,-58350
653329272378904752,-44031,-67624,-58329
653329272386346728,-44111,-67609,-58339
653329272393788704,-44185,-67652,-58486
653329272401230680,-44178,-67605,-58448
653329272408672656,-44106,-67650,-58320
653329272416114632,-44140,-67691,-58315
653329272423556608,-44109,-67865,-58450
653329272431122377,-44297,-67759,-58137
653329272438557072,-44153,-66722,-57103
653329272445991767,-44007,-67383,-57911
653329272453426462,-44005,-67701,-58271
653329272460861157,-43812,-67593,-58268
653329272468295852,-42844,-66589,-57179
653329272475730547,-43491,-67264,-57903
653329272483165242,-43815,-67502,-58032
653329272490599937,-43765,-67521,-58167
653329272498034632,-43132,-67581,-58156
653329272505469327,-43568,-67612,-58129
653329272512904022,-43854,-67578,-58286
653329272520338717,-43749,-67595,-58246
653329272527773412,-43764,-67557,-58258
653329272535208107,-43711,-67617,-58264
653329272542642802,-43762,-67570,-58317
653329272550077497,-43631,-67493,-58220
653329272557512192,-43744,-67614,-58167
653329272564946889,-43523,-67348,-58002
653329272572381584,-43626,-67530,-58144
653329272579816279,-43658,-67532,-58267
653329272587250974,-43624,-67431,-58139
653329272594685669,-43743,-67530,-58360
653329272602120364,-44013,-67564,-58467
653329272609555059,-43974,-67649,-58522
653329272616989754,-43825,-67543,-58444
653329272624424449,-44079,-67730,-58471
653329272631859144,-44022,-67810,-58518
653329272639293839,-43924,-67726,-58534
653329272646728534,-43720,-67712,-58660
653329272654163229,-44019,-67766,-58763
653329272661597924,-44045,-67766,-58842
653329272669032619,-44106,-67770,-58772
653329272676467314,-44112,-67764,-58860
653329272683902009,-44180,-67734,-58827
653329272691336704,-44241,-67745,-58857
653329272698771401,-44294,-67948,-58651
653329272706206096,-44268,-67911,-58840
653329272713640791,-44325,-67851,-58815
653329272721075486,-44407,-67877,-58757
653329272728510181,-44230,-67993,-58781
653329272735944876,-44328,-67929,-58845
653329272743379571,-44239,-67890,-58846
653329272750814266,-44135,-67820,-58763
653329272758248961,-44041,-66749,-57497
653329272765683656,-44004,-67393,-58137
653329272773118351,-44058,-67731,-58416
653329272780553046,-44078,-67792,-58548
653329272787987741,-42981,-66766,-57411
653329272795422436,-43521,-67522,-58017
653329272802857131,-43837,-67753,-58438
653329272810291826,-43909,-67853,-58448
653329272817726521,-43496,-67914,-58538
653329272825161216,-43828,-68022,-58669
653329272832534016,-44273,-68265,-58409
653329272839972352,-44130,-68127,-58561
653329272847410688,-44260,-68173,-58749
653329272854849024,-44215,-68313,-58843
653329272862287360,-44271,-68326,-58910
653329272869725696,-44230,-68299,-59019
653329272877164032,-44317,-68424,-59138
653329272884602368,-44401,-68445,-59006
653329272892040704,-44450,-68514,-59026
653329272899479040,-44576,-68546,-59037
653329272906917376,-44395,-68491,-58892
653329272914355712,-44454,-68583,-59199
653329272921794048,-44479,-68603,-59194
653329272929232384,-44358,-68543,-59150
653329272936670720,-44285,-68609,-59012
653329272944109056,-44469,-68713,-59236
653329272951547392,-44559,-68764,-59275
653329272958985728,-44508,-68685,-59313
653329272966485961,-44359,-68468,-59521
653329272973920656,-44550,-68637,-59545
653329272981355351,-44453,-68526,-59490
653329272988790046,-44571,-68726,-59485
653329272996224741,-44690,-68868,-59592
653329273003659436,-44665,-68823,-59630
653329273011094131,-44752,-68774,-59578
653329273018528826,-44753,-68888,-59501
653329273025963521,-44708,-68958,-59581
653329273033398216,-44734,-69042,-59554
653329273040832911,-44788,-68925,-59524
653329273048267606,-44638,-68877,-59418
653329273055702301,-44729,-68922,-59542
653329273063136996,-44617,-68975,-59602
653329273070571691,-44610,-68959,-59537
653329273078006386,-44438,-67897,-58462
653329273085441081,-44628,-68514,-59076
653329273092875776,-44665,-68733,-59407
653329273100372370,-44506,-69005,-59453
653329273107803424,-43379,-68043,-58433
653329273115234478,-44067,-68523,-59032
653329273122665532,-44435,-68843,-59280
653329273130096586,-44462,-68877,-59369
653329273137527640,-44333,-68913,-59492
653329273144958694,-44390,-69102,-59528
653329273152389748,-44469,-69132,-59589
653329273159820802,-44550,-69112,-59691
653329273167251856,-44513,-68993,-59695
653329273174682910,-44611,-69043,-59727
653329273182113964,-44550,-69058,-59580
653329273189545018,-44612,-69087,-59732
653329273196976072,-44636,-69144,-59640
653329273204407126,-44664,-69199,-59763
653329273211838180,-44605,-69169,-59780
653329273219269234,-44643,-69208,-59662
653329273226700288,-44651,-69029,-59651
653329273233945672,-44760,-69355,-60048
653329273241387648,-44719,-69186,-60005
653329273248829624,-44683,-69196,-59880
653329273256271600,-44635,-69219,-59728
653329273263713576,-44815,-69319,-59794
653329273271155552,-44764,-69301,-59881
653329273278597528,-44725,-69136,-59980
653329273286039504,-44737,-69240,-59906
653329273293481480,-44703,-69322,-59937
653329273300923456,-44813,-69215,-59939
653329273308365432,-44793,-69249,-59906
653329273315807408,-44861,-69159,-59844
653329273323249384,-44898,-69206,-59904
653329273330691360,-44763,-69222,-59948
653329273338133336,-44744,-69196,-59862
653329273345575312,-44870,-69323,-59989
653329273353017288,-44892,-69409,-59965
653329273360459264,-44736,-69256,-60058
653329273368086930,-44881,-69027,-59870
653329273375517984,-44841,-69192,-60052
653329273382949038,-44874,-69336,-60019
653329273390380092,-44829,-69193,-59964
653329273397811146,-44861,-68223,-58890
653329273405242200,-44929,-68863,-59482
653329273412673254,-44898,-69109,-59808
653329273420104308,-44817,-69083,-59779
653329273427535362,-43703,-68346,-58888
653329273434966416,-44261,-68859,-59527
653329273442397470,-44551,-69032,-59762
653329273449828524,-44606,-69188,-59895
653329273457259578,-44641,-69231,-59974
653329273464690632,-44751,-69393,-60022
653329273472121686,-44716,-69376,-60094
653329273479552740,-44664,-69243,-60000
653329273486983794,-44790,-69370,-60025
653329273494414848,-44852,-69494,-60048
653329273501784009,-44741,-69404,-60072
653329273509218704,-44701,-69348,-60047
653329273516653399,-44786,-69337,-60110
653329273524088094,-44892,-69536,-60168
653329273531522789,-44957,-69453,-60159
653329273538957484,-44794,-69525,-60234
653329273546392179,-44731,-69323,-60000
653329273553826874,-44852,-69568,-60194
653329273561261569,-44952,-69554,-60216
653329273568696264,-45097,-69667,-60268
653329273576130959,-45121,-69700,-60384
653329273583565654,-45160,-69842,-60487
653329273591000349,-45209,-69913,-60492
653329273598435044,-45266,-69833,-60323
653329273605869739,-45366,-69955,-60569
653329273613304434,-45487,-70124,-60617
653329273620739129,-45501,-70080,-60770
653329273628173824,-45467,-70093,-60762
653329273635608521,-45727,-69987,-60613
653329273643043216,-45612,-70112,-60858
653329273650477911,-45721,-70219,-60866
653329273657912606,-45742,-70354,-61067
653329273665347301,-45851,-70422,-61173
653329273672781996,-45804,-70417,-61224
653329273680216691,-45775,-70442,-61216
653329273687651386,-45931,-70563,-61056
653329273695086081,-45872,-70705,-61216
653329273702520776,-45906,-70725,-61250
653329273709955471,-45965,-70645,-61361
653329273717390166,-45921,-69681,-60319
653329273724824861,-45955,-70430,-60807
653329273732259556,-45993,-70596,-61199
653329273739694251,-45924,-70631,-61363
653329273747128946,-44862,-70044,-60371
653329273754563641,-45518,-70508,-60955
653329273761998336,-45873,-70854,-61268
653329273769433033,-46080,-70718,-61553
653329273776867728,-46132,-70836,-61653
653329273784302423,-46317,-71023,-61791
653329273791737118,-46256,-71180,-61659
653329273799171813,-46158,-71109,-61753
653329273806606508,-46137,-71063,-61710
653329273814041203,-46294,-71211,-61843
653329273821475898,-46384,-71298,-61857
653329273828910593,-46354,-71307,-61832
653329273836345288,-46367,-71233,-61899
653329273843779983,-46503,-71209,-61992
653329273851214678,-46408,-71445,-61958
653329273858649373,-46424,-71422,-61941
653329273866084068,-46357,-71330,-61800
653329273873518763,-46640,-71422,-62055
653329273880953458,-46618,-71486,-62087
653329273888388153,-46692,-71494,-62006
653329273895822848,-46473,-71529,-61924
653329273903133768,-46658,-71752,-62195
653329273910575744,-46732,-71603,-62103
653329273918017720,-46654,-71558,-62148
653329273925459696,-46809,-71587,-62206
653329273932901672,-46782,-71634,-62196
653329273940343648,-46713,-71671,-62168
653329273947785624,-46643,-71559,-62219
653329273955227600,-46807,-71738,-62398
653329273962669576,-46876,-71663,-62393
653329273970111552,-46811,-71689,-62337
653329273977553528,-46836,-71700,-62476
653329273984995504,-46858,-71742,-62507
653329273992437480,-46925,-71694,-62516
653329273999879456,-46845,-71744,-62452
653329274007321432,-46843,-71840,-62552
653329274014763408,-46881,-71893,-62497
653329274022205384,-46964,-71815,-62508
653329274029647360,-46924,-71824,-62612
653329274037275026,-46483,-70550,-61230
653329274044706080,-46813,-71346,-61893
653329274052137134,-46951,-71740,-62293
653329274059568188,-46869,-71836,-62503
653329274066999242,-45789,-71401,-61505
653329274074430296,-46434,-71655,-62166
653329274081861350,-46881,-71829,-62465
653329274089292404,-46901,-71978,-62594
653329274096723458,-47044,-71887,-62662
653329274104154512,-47092,-71968,-62771
653329274111585566,-47178,-72059,-62754
653329274119016620,-47201,-72027,-62748
653329274126447674,-47116,-71986,-62781
653329274133878728,-47215,-72075,-62842
653329274141309782,-47207,-72075,-62859
653329274148740836,-47142,-72222,-62686
653329274156171890,-47171,-72044,-62832
653329274163602944,-47170,-72038,-62840
653329274170972105,-47078,-72285,-62653
653329274178406800,-47199,-72253,-62801
653329274185841495,-47049,-72008,-62772
653329274193276190,-47246,-72122,-62878
653329274200710885,-47208,-72166,-62902
653329274208145580,-47183,-72102,-62956
653329274215580275,-47085,-72201,-62887
653329274223014970,-47156,-72204,-62907
653329274230449665,-47183,-72081,-62970
653329274237884360,-47142,-72078,-62873
653329274245319055,-47291,-72070,-62993
653329274252753750,-47168,-72122,-62986
653329274260188445,-47287,-72111,-62944
653329274267623140,-47330,-72093,-63046
653329274275057835,-47475,-72207,-63025
653329274282492530,-47351,-72149,-63052
653329274289927225,-47278,-72175,-62891
653329274297361920,-47182,-72086,-62918
653329274304734720,-47424,-71949,-62995
653329274312173056,-47325,-72102,-62995
653329274319611392,-47197,-72145,-62994
653329274327049728,-47258,-72196,-63053
653329274334488064,-47361,-72177,-63106
653329274341926400,-47393,-72344,-62943
653329274349364736,-47501,-72482,-62961
653329274356803072,-47255,-71305,-62028
653329274364241408,-47492,-72023,-62673
653329274371679744,-47476,-72242,-62954
653329274379118080,-47542,-72372,-63161
653329274386556416,-46472,-71873,-62234
653329274393994752,-47235,-72406,-63072
653329274401433088,-47552,-72577,-63316
653329274408871424,-47743,-72726,-63471
653329274416309760,-47849,-72900,-63478
653329274423748096,-47925,-72950,-63639
653329274431186432,-47978,-72983,-63819
653329274438748562,-48366,-72976,-63642
653329274446179616,-48282,-73145,-63814
653329274453610670,-48296,-73170,-63899
653329274461041724,-48223,-73192,-63991
653329274468472778,-48246,-73329,-64085
653329274475903832,-48414,-73276,-64166
653329274483334886,-48368,-73485,-64135
653329274490765940,-48368,-73362,-64209
653329274498196994,-48494,-73440,-64260
653329274505628048,-48386,-73384,-64196
653329274513059102,-48487,-73469,-64397
653329274520490156,-48580,-73531,-64320
653329274527921210,-48684,-73599,-64369
653329274535352264,-48531,-73769,-64314
653329274542783318,-48649,-73767,-64467
653329274550214372,-48837,-73788,-64622
653329274557645426,-48848,-73791,-64706
653329274565076480,-48752,-73820,-64784
653329274572445641,-48693,-73514,-64707
653329274579880336,-48770,-73672,-64749
653329274587315031,-48828,-73838,-64723
653329274594749726,-48889,-73860,-64857
653329274602184421,-48865,-73901,-64816
653329274609619116,-48898,-73888,-64775
653329274617053811,-48941,-74228,-64569
653329274624488506,-48989,-74211,-64835
653329274631923201,-48943,-74001,-64904
653329274639357896,-49050,-74064,-64806
653329274646792591,-49080,-74200,-64843
653329274654227286,-49150,-74199,-65003
653329274661661981,-49121,-74126,-65053
653329274669096676,-49204,-74222,-64983
653329274676531371,-49233,-73108,-64068
653329274683966066,-49222,-73727,-64619
653329274691400761,-49306,-73991,-64872
653329274698835456,-49258,-74144,-65014
653329274706208256,-47936,-73358,-63793
653329274713646592,-48807,-74128,-64691
653329274721084928,-49139,-74131,-64855
653329274728523264,-49206,-74178,-65079
653329274735961600,-49140,-74286,-65281
653329274743399936,-49310,-74566,-65277
653329274750838272,-49364,-74420,-65316
653329274758276608,-49420,-74502,-65313
653329274765714944,-49539,-74473,-65395
653329274773153280,-49477,-74572,-65445
653329274780591616,-49332,-74454,-65388
653329274788029952,-49306,-74390,-65359
653329274795468288,-49570,-74568,-65443
653329274802906624,-49622,-74585,-65429
653329274810344960,-49667,-74541,-65481
653329274817783296,-49575,-74672,-65338
653329274825221632,-49493,-74446,-65329
653329274832659968,-49587,-74646,-65377
653329274840160201,-49676,-74536,-65635
653329274847594896,-49741,-74467,-65550
653329274855029591,-49512,-74679,-65547
653329274862464286,-49644,-74756,-65532
653329274869898981,-49682,-74634,-65595
653329274877333676,-49717,-74720,-65701
653329274884768371,-49622,-74636,-65770
653329274892203066,-49630,-74598,-65698
653329274899637761,-49691,-74537,-65735
653329274907072456,-49656,-74707,-65748
653329274914507151,-49883,-74732,-65715
653329274921941846,-49806,-74662,-65758
653329274929376541,-49755,-74652,-65678
653329274936811236,-49622,-74740,-65632
653329274944245931,-49799,-74813,-65712
653329274951680626,-49751,-74654,-65774
653329274959115321,-49616,-74716,-65679
653329274966550016,-49761,-74733,-65678
653329274973922816,-49907,-74422,-66096
653329274981361152,-49861,-74547,-65856
653329274988799488,-49826,-74705,-65698
653329274996237824,-49725,-73549,-64652
653329275003676160,-49765,-74175,-65411
653329275011114496,-49772,-74419,-65664
653329275018552832,-49710,-74491,-65757
653329275025991168,-48648,-73602,-64700
653329275033429504,-49344,-74221,-65350
653329275040867840,-49579,-74436,-65654
653329275048306176,-49682,-74514,-65698
653329275055744512,-48707,-74583,-65811
653329275063182848,-49389,-74728,-65913
653329275070621184,-49597,-74717,-65860
653329275078059520,-49643,-74761,-65753
653329275085497856,-49764,-74835,-65911
653329275092936192,-49805,-74853,-65936
653329275100374528,-49801,-74777,-65834
653329275107936658,-49879,-74900,-65622
653329275115367712,-49919,-74782,-65813
653329275122798766,-49903,-74733,-65860
653329275130229820,-49736,-74623,-65791
653329275137660874,-49747,-74569,-65824
653329275145091928,-49781,-74404,-65849
653329275152522982,-49771,-74470,-65820
653329275159954036,-49837,-74512,-65730
653329275167385090,-49917,-74590,-65853
653329275174816144,-49751,-74489,-65730
653329275182247198,-49781,-74570,-65842
653329275189678252,-49845,-74700,-65917
653329275197109306,-49849,-74708,-65981
653329275204540360,-49925,-74802,-66048
653329275211971414,-50021,-74795,-66022
653329275219402468,-50077,-74744,-66100
653329275226833522,-50271,-74802,-66163
653329275234264576,-50377,-74966,-66309
653329275241633737,-50300,-75120,-65971
653329275249068432,-50328,-75015,-66168
653329275256503127,-50350,-75234,-66298
653329275263937822,-50435,-75308,-66501
653329275271372517,-50325,-75204,-66476
653329275278807212,-50330,-75199,-66377
653329275286241907,-50428,-75304,-66564
653329275293676602,-50542,-75556,-66680
653329275301111297,-50634,-75413,-66585
653329275308545992,-50561,-75334,-66702
653329275315980687,-50730,-74515,-65753
653329275323415382,-50876,-75149,-66319
653329275330850077,-50753,-75347,-66644
653329275338284772,-50678,-75272,-66724
653329275345719467,-49777,-74495,-65731
653329275353154162,-50463,-75216,-66388
653329275360588857,-50700,-75346,-66688
653329275368023552,-50861,-75555,-66756
653329275375458249,-50180,-75817,-66968
653329275382892944,-50667,-75785,-67045
653329275390327639,-50895,-75774,-67004
653329275397762334,-50964,-75911,-67115
653329275405197029,-51011,-75858,-67088
653329275412631724,-51054,-75940,-67118
653329275420066419,-50974,-75939,-67111
653329275427501114,-51082,-75954,-67232
653329275434935809,-51069,-75958,-67167
653329275442370504,-51090,-75902,-67206
653329275449805199,-51194,-75934,-67154
653329275457239894,-51199,-75927,-67242
653329275464674589,-51222,-75912,-67127
653329275472109284,-51261,-75944,-67300
653329275479543979,-51129,-75917,-67180
653329275486978674,-51085,-76082,-67206
653329275494413369,-50991,-75954,-67250
653329275501848064,-51101,-76003,-67300
653329275509220864,-50892,-76111,-67429
653329275516659200,-51071,-76086,-67357
653329275524097536,-51065,-76089,-67408
653329275531535872,-51310,-76111,-67426
653329275538974208,-51218,-76045,-67367
653329275546412544,-51203,-76205,-67468
653329275553850880,-51251,-76232,-67555
653329275561289216,-51305,-76131,-67406
653329275568727552,-51418,-76131,-67351
653329275576165888,-51323,-76044,-67427
653329275583604224,-51366,-76091,-67575
653329275591042560,-51272,-76103,-67478
653329275598480896,-51270,-76059,-67499
653329275605919232,-51289,-76086,-67447
653329275613357568,-51346,-76080,-67458
653329275620795904,-51320,-76109,-67508
653329275628234240,-51317,-76038,-67521
653329275635672576,-51318,-75079,-66714
653329275643110912,-51573,-75760,-66997
653329275650549248,-51433,-75863,-67269
653329275657987584,-51259,-75971,-67413
653329275665425920,-50299,-74949,-66455
653329275672864256,-50868,-75639,-67120
653329275680302592,-51010,-75847,-67327
653329275687740928,-51033,-75937,-67369
653329275695179264,-50186,-76091,-67618
653329275702617600,-50746,-76140,-67555
653329275710055936,-51047,-76106,-67567
653329275717494272,-51216,-76059,-67566
653329275724932608,-51298,-76078,-67590
653329275732370944,-51300,-76052,-67606
653329275739809280,-51237,-75918,-67544
653329275747247616,-51271,-75943,-67564
653329275754685952,-51269,-75986,-67487
653329275762124288,-51246,-76079,-67475
653329275769562624,-51202,-75908,-67391
653329275777124754,-51215,-75739,-67254
653329275784555808,-51214,-75863,-67345
653329275791986862,-51152,-75954,-67481
653329275799417916,-51054,-75881,-67420
653329275806848970,-51186,-75846,-67411
653329275814280024,-51100,-75839,-67340
653329275821711078,-51149,-75984,-67337
653329275829142132,-51098,-75984,-67435
653329275836573186,-51082,-75937,-67482
653329275844004240,-50938,-75865,-67469
653329275851435294,-51077,-75951,-67399
653329275858866348,-51043,-75871,-67409
653329275866297402,-51033,-75820,-67461
653329275873728456,-51134,-75815,-67365
653329275881159510,-51042,-75884,-67451
653329275888590564,-50990,-75773,-67407
653329275896021618,-51055,-75851,-67303
653329275903452672,-51059,-75794,-67283
653329275910759936,-51010,-75557,-67438
653329275918198272,-51009,-75541,-67288
653329275925636608,-50995,-75688,-67341
653329275933074944,-50955,-75680,-67365
653329275940513280,-50897,-75574,-67216
653329275947951616,-50805,-75538,-67183
653329275955389952,-50838,-74561,-67149
653329275962828288,-50887,-75142,-67113
653329275970266624,-50854,-75283,-67104
653329275977704960,-50868,-75429,-67215
653329275985143296,-49746,-74510,-66114
653329275992581632,-50344,-74993,-66615
653329276000019968,-50514,-75124,-66901
653329276007458304,-50564,-75239,-67022
653329276014896640,-49625,-75437,-67151
653329276022334976,-50139,-75456,-67186
653329276029773312,-50461,-75516,-67086
653329276037211648,-50603,-75439,-67140
653329276044711881,-50410,-75580,-66917
653329276052146576,-50505,-75532,-66987
653329276059581271,-50679,-75496,-66991
653329276067015966,-50704,-75599,-67140
653329276074450661,-50823,-75550,-67141
653329276081885356,-50790,-75687,-67235
653329276089320051,-50760,-75720,-67196
653329276096754746,-50866,-75732,-67191
653329276104189441,-50993,-75544,-67086
653329276111624136,-50983,-75777,-67219
653329276119058831,-51034,-75794,-67271
653329276126493526,-51105,-75711,-67276
653329276133928221,-50919,-75696,-67281
653329276141362916,-51058,-75739,-67411
653329276148797611,-51019,-75699,-67417
653329276156232306,-51142,-75770,-67557
653329276163667001,-51037,-75818,-67575
653329276171101696,-51096,-75838,-67456
653329276178536393,-51213,-75790,-67596
653329276185971088,-51184,-75920,-67580
653329276193405783,-51118,-75900,-67547
653329276200840478,-51148,-75891,-67488
653329276208275173,-51051,-75830,-67509
653329276215709868,-51111,-75834,-67606
653329276223144563,-51033,-75815,-67554
653329276230579258,-51132,-75677,-67563
653329276238013953,-51002,-75812,-67475
653329276245448648,-51153,-75804,-67642
653329276252883343,-51131,-75757,-67635
653329276260318038,-51036,-75836,-67555
653329276267752733,-51006,-75824,-67572
653329276275187428,-51126,-74758,-67519
653329276282622123,-51237,-75408,-67657
653329276290056818,-51132,-75589,-67584
653329276297491513,-51130,-75639,-67482
653329276304926208,-50092,-74660,-66515
653329276312299008,-50378,-75488,-67202
653329276319737344,-50674,-75535,-67338
653329276327175680,-50878,-75544,-67243
653329276334614016,-49968,-75747,-67227
653329276342052352,-50543,-75882,-67295
653329276349490688,-50792,-75840,-67417
653329276356929024,-50870,-75778,-67373
653329276364367360,-50981,-75803,-67455
653329276371805696,-50852,-75683,-67416
653329276379244032,-50818,-75561,-67420
653329276386682368,-50922,-75619,-67435
653329276394120704,-50866,-75653,-67371
653329276401559040,-50821,-75480,-67395
653329276408997376,-50689,-75477,-67421
653329276416435712,-50742,-75471,-67324
653329276423874048,-50926,-75382,-67435
653329276431312384,-50821,-75382,-67404
653329276438750720,-50770,-75507,-67351
653329276446312850,-50443,-75707,-67452
653329276453743904,-50443,-75428,-67203
653329276461174958,-50589,-75459,-67232
653329276468606012,-50703,-75527,-67136
653329276476037066,-50658,-75473,-67269
653329276483468120,-50630,-75405,-67251
653329276490899174,-50623,-75284,-67240
653329276498330228,-50652,-75209,-67267
653329276505761282,-50661,-75369,-67272
653329276513192336,-50625,-75365,-67097
653329276520623390,-50663,-75243,-67145
653329276528054444,-50596,-75137,-67189
653329276535485498,-50604,-75146,-67158
653329276542916552,-50578,-75269,-67073
653329276550347606,-50501,-75172,-67150
653329276557778660,-50350,-75044,-66988
653329276565209714,-50478,-75178,-66948
653329276572640768,-50410,-75184,-66971
653329276580009929,-50613,-75143,-67062
653329276587444624,-50447,-75065,-66976
653329276594879319,-50411,-74338,-67019
653329276602314014,-50428,-74740,-67064
653329276609748709,-50417,-74890,-67045
653329276617183404,-50290,-74862,-66936
653329276624618099,-49203,-73812,-65876
653329276632052794,-49810,-74421,-66509
653329276639487489,-50137,-74773,-66673
653329276646922184,-50109,-74820,-66763
653329276654356879,-49092,-74852,-66245
653329276661791574,-49743,-74888,-66529
653329276669226269,-50018,-74854,-66757
653329276676660964,-50008,-74758,-66848
653329276684095659,-50093,-74765,-66721
653329276691530354,-50076,-74793,-66769
653329276698965049,-50019,-74733,-66629
653329276706399744,-50030,-74699,-66585
653329276713772544,-49856,-74658,-66776
653329276721210880,-49924,-74622,-66779
653329276728649216,-49914,-74575,-66653
653329276736087552,-50058,-74613,-66723
653329276743525888,-50093,-74358,-66649
653329276750964224,-49886,-74444,-66589
653329276758402560,-49937,-74385,-66517
653329276765840896,-49985,-74568,-66517
653329276773279232,-49828,-74284,-66499
653329276780717568,-49701,-74291,-66445
653329276788155904,-49800,-74463,-66498
653329276795594240,-49774,-74387,-66478
653329276803032576,-49731,-74349,-66473
653329276810470912,-49868,-74284,-66546
653329276817909248,-49867,-74277,-66355
653329276825347584,-49803,-74278,-66286
653329276832785920,-49832,-74288,-66463
653329276840224256,-49746,-74119,-66330
653329276847724489,-49908,-74083,-66222
653329276855159184,-49725,-74118,-66462
653329276862593879,-49760,-74073,-66297
653329276870028574,-49605,-74127,-66346
653329276877463269,-49510,-73987,-66161
653329276884897964,-49598,-74128,-66236
653329276892332659,-49474,-73998,-66198
653329276899767354,-49535,-73904,-66103
653329276907202049,-49603,-73999,-66087
653329276914636744,-49461,-73823,-66096
653329276922071439,-49592,-73959,-66138
653329276929506134,-49420,-73928,-66081
653329276936940829,-49548,-74044,-66322
653329276944375524,-48608,-73032,-65278
653329276951810219,-49119,-73499,-65838
653329276959244914,-49303,-73727,-66036
653329276966679609,-49422,-73872,-66181
653329276974114304,-48566,-74005,-65335
653329276981549001,-48916,-74118,-65697
653329276988983696,-49328,-74259,-66026
653329276996418391,-49467,-74212,-66205
653329277003853086,-49639,-74221,-66339
653329277011287781,-49671,-74177,-66276
653329277018722476,-49664,-74244,-66388
653329277026157171,-49809,-74244,-66393
653329277033591866,-49847,-74254,-66560
653329277041026561,-49796,-74227,-66480
653329277048461256,-49749,-74215,-66449
653329277055895951,-49857,-74202,-66433
653329277063330646,-49906,-74159,-66451
653329277070765341,-49873,-74154,-66571
653329277078200036,-49880,-74092,-66515
653329277085634731,-49766,-74139,-66535
653329277093069426,-49652,-73989,-66501
653329277100504121,-49649,-74059,-66502
653329277107938816,-49867,-74022,-66418
653329277115435410,-49910,-74253,-66432
653329277122866464,-49814,-74357,-66549
653329277130297518,-49813,-74173,-66452
653329277137728572,-49850,-74182,-66472
653329277145159626,-49763,-74237,-66514
653329277152590680,-49740,-74173,-66515
653329277160021734,-49728,-74109,-66540
653329277167452788,-49839,-74157,-66566
653329277174883842,-50005,-74264,-66502
653329277182314896,-49783,-74179,-66534
653329277189745950,-49920,-74044,-66541
653329277197177004,-49784,-74078,-66532
653329277204608058,-49836,-74083,-66525
653329277212039112,-49814,-74008,-66509
653329277219470166,-49716,-73953,-66395
653329277226901220,-49911,-73956,-66439
653329277234332274,-49843,-73999,-66525
653329277241763328,-49850,-74022,-66465
653329277249070592,-49893,-74270,-66537
653329277256508928,-49933,-74120,-66628
653329277263947264,-49059,-72973,-65537
653329277271385600,-49408,-73536,-65995
653329277278823936,-49596,-73720,-66290
653329277286262272,-49664,-73861,-66424
653329277293700608,-48629,-73858,-65435
653329277301138944,-49287,-73961,-65996
653329277308577280,-49570,-73948,-66265
653329277316015616,-49664,-73888,-66402
653329277323453952,-49732,-74056,-66514
653329277330892288,-49639,-73863,-66420
653329277338330624,-49711,-73845,-66406
653329277345768960,-49691,-73847,-66500
653329277353207296,-49704,-73783,-66441
653329277360645632,-49689,-73846,-66406
653329277368083968,-49673,-73755,-66414
653329277375522304,-49845,-73798,-66433
653329277383022537,-49527,-73651,-66554
653329277390457232,-49558,-73765,-66521
653329277397891927,-49600,-73845,-66412
653329277405326622,-49712,-73768,-66515
653329277412761317,-49590,-73696,-66245
653329277420196012,-49578,-73669,-66319
653329277427630707,-49672,-73790,-66433
653329277435065402,-49763,-73859,-66447
653329277442500097,-49538,-73770,-66338
653329277449934792,-49574,-73688,-66294
653329277457369487,-49637,-73633,-66363
653329277464804182,-49611,-73681,-66465
653329277472238877,-49749,-73671,-66577
653329277479673572,-49593,-73645,-66498
653329277487108267,-49595,-73673,-66408
653329277494542962,-49555,-73622,-66394
653329277501977657,-49586,-73608,-66459
653329277509412352,-49467,-73536,-66354
653329277516785152,-49754,-73244,-66396
653329277524223488,-49597,-73487,-66425
653329277531661824,-49527,-73448,-66348
653329277539100160,-49452,-73369,-66216
653329277546538496,-49477,-73469,-66263
653329277553976832,-49531,-73510,-66264
653329277561415168,-49485,-73502,-66268
653329277568853504,-49361,-73458,-66241
653329277576291840,-49333,-73392,-66145
653329277583730176,-48825,-72507,-65164
653329277591168512,-49233,-73050,-65817
653329277598606848,-49290,-73307,-66132
653329277606045184,-49328,-73296,-66180
653329277613483520,-48328,-73332,-65232
653329277620921856,-48973,-73316,-65810
653329277628360192,-49236,-73309,-66082
653329277635798528,-49321,-73372,-66167
653329277643236864,-49438,-73311,-66310
653329277650798994,-49171,-73381,-66339
653329277658230048,-49276,-73264,-66126
653329277665661102,-49331,-73278,-66193
653329277673092156,-49330,-73283,-66178
653329277680523210,-49294,-73143,-66101
653329277687954264,-49230,-73181,-66130
653329277695385318,-49361,-73315,-66133
653329277702816372,-49253,-73103,-66107
653329277710247426,-49299,-73023,-65972
653329277717678480,-49237,-73044,-65994
653329277725109534,-49263,-73180,-66030
653329277732540588,-49173,-72949,-65802
653329277739971642,-49220,-73014,-66022
653329277747402696,-49082,-72975,-65993
653329277754833750,-49161,-73157,-65922
653329277762264804,-49025,-73075,-65918
653329277769695858,-48972,-72869,-65835
653329277777126912,-49034,-72883,-65820
653329277784434176,-49401,-72942,-66009
653329277791872512,-49108,-72989,-65961
653329277799310848,-49121,-72932,-65962
653329277806749184,-49206,-72886,-65958
653329277814187520,-49347,-73083,-65938
653329277821625856,-49263,-73154,-65951
653329277829064192,-49330,-73014,-65972
653329277836502528,-49325,-73064,-65962
653329277843940864,-49442,-73150,-66112
653329277851379200,-49479,-73167,-66276
653329277858817536,-49428,-73172,-66105
653329277866255872,-49396,-73154,-66169
653329277873694208,-49374,-73145,-66132
653329277881132544,-49475,-73128,-66194
653329277888570880,-49457,-73186,-66219
653329277896009216,-49530,-73237,-66334
653329277903447552,-49276,-72123,-65276
653329277910885888,-49417,-72716,-65751
653329277918386121,-49604,-72974,-66161
653329277925820816,-49566,-73091,-66251
653329277933255511,-48456,-72822,-65240
653329277940690206,-49011,-73024,-65884
653329277948124901,-49258,-73069,-66088
653329277955559596,-49442,-73139,-66283
653329277962994291,-49536,-73204,-66246
653329277970428986,-49609,-73216,-66441
653329277977863681,-49574,-73320,-66352
653329277985298376,-49614,-73367,-66413
653329277992733071,-49606,-73238,-66315
653329278000167766,-49645,-73208,-66497
653329278007602461,-49678,-73119,-66472
653329278015037156,-49760,-73153,-66483
653329278022471851,-49809,-73202,-66554
653329278029906546,-49610,-73208,-66464
653329278037341241,-49641,-73348,-66357
653329278044775936,-49669,-73279,-66425
653329278052272530,-49392,-73256,-66385
653329278059703584,-49435,-73137,-66420
653329278067134638,-49418,-73090,-66407
653329278074565692,-49541,-73066,-66438
653329278081996746,-49386,-73069,-66398
653329278089427800,-49563,-73051,-66374
653329278096858854,-49712,-73088,-66402
653329278104289908,-49693,-73151,-66459
653329278111720962,-49643,-73150,-66356
653329278119152016,-49651,-73070,-66398
653329278126583070,-49701,-73138,-66465
653329278134014124,-49633,-73224,-66379
653329278141445178,-49644,-73269,-66404
653329278148876232,-49512,-73073,-66336
653329278156307286,-49649,-73077,-66404
653329278163738340,-49801,-73141,-66506
653329278171169394,-49681,-73123,-66470
653329278178600448,-49584,-73087,-66437
653329278185845832,-49669,-72894,-66331
653329278193287808,-49635,-72984,-66405
653329278200729784,-49595,-73037,-66393
653329278208171760,-49631,-73072,-66298
653329278215613736,-49736,-73139,-66468
653329278223055712,-49452,-72077,-65428
653329278230497688,-49499,-72737,-65938
653329278237939664,-49476,-72815,-66246
653329278245381640,-49480,-72916,-66393
653329278252823616,-48606,-72356,-65460
653329278260265592,-49095,-72569,-66023
653329278267707568,-49360,-72821,-66248
653329278275149544,-49566,-72889,-66459
653329278282591520,-49758,-72988,-66572
653329278290033496,-49700,-72863,-66452
653329278297475472,-49491,-72877,-66361
653329278304917448,-49651,-72887,-66448
653329278312359424,-49640,-72904,-66338
653329278319987090,-49701,-73042,-66145
653329278327418144,-49504,-72812,-66242
653329278334849198,-49615,-72880,-66305
653329278342280252,-49459,-72876,-66351
653329278349711306,-49304,-72743,-66202
653329278357142360,-49392,-72812,-66299
653329278364573414,-49470,-72742,-66239
653329278372004468,-49387,-72575,-66148
653329278379435522,-49360,-72598,-66158
653329278386866576,-49283,-72594,-66150
653329278394297630,-49416,-72757,-66237
653329278401728684,-49161,-72674,-65932
653329278409159738,-49288,-72666,-66105
653329278416590792,-49273,-72567,-66132
653329278424021846,-49290,-72678,-66073
653329278431452900,-49307,-72681,-66235
653329278438883954,-49233,-72532,-66008
653329278446315008,-49345,-72627,-66282
653329278453684169,-49393,-72525,-66333
653329278461118864,-49316,-72470,-66300
653329278468553559,-49242,-72477,-66140
653329278475988254,-49194,-72496,-66104
653329278483422949,-49276,-72488,-66093
653329278490857644,-49296,-72459,-66196
653329278498292339,-49265,-72478,-66184
653329278505727034,-49201,-72492,-66137
653329278513161729,-49245,-72403,-66108
653329278520596424,-49082,-72350,-66004
653329278528031119,-49052,-72388,-65997
653329278535465814,-49185,-72397,-66112
653329278542900509,-49116,-71349,-64968
653329278550335204,-49101,-72042,-65525
653329278557769899,-48965,-72136,-65720
653329278565204594,-49064,-72251,-65854
653329278572639289,-48058,-71217,-64834
653329278580073984,-48528,-71781,-65462
653329278587508681,-49078,-72077,-65454
653329278594943376,-49122,-72282,-65854
653329278602378071,-48584,-72233,-65845
653329278609812766,-48727,-72129,-65810
653329278617247461,-48931,-72231,-65811
653329278624682156,-48916,-72285,-65821
653329278632116851,-48982,-72117,-65823
653329278639551546,-49066,-72158,-65884
653329278646986241,-49016,-72068,-65753
653329278654420936,-49033,-72087,-65807
653329278661855631,-48901,-72128,-65781
653329278669290326,-48805,-71996,-65548
653329278676725021,-48823,-72003,-65535
653329278684159716,-48924,-72045,-65657
653329278691594411,-48746,-71863,-65491
653329278699029106,-48842,-71936,-65622
653329278706463801,-48773,-71942,-65690
653329278713898496,-48990,-72110,-65586
653329278721333193,-48549,-72281,-65610
653329278728767888,-48686,-72145,-65612
653329278736202583,-48703,-72087,-65681
653329278743637278,-48934,-72096,-65738
653329278751071973,-48915,-72207,-65741
653329278758506668,-48890,-72132,-65655
653329278765941363,-48975,-72241,-65808
653329278773376058,-48895,-72302,-65749
653329278780810753,-48921,-72166,-65730
653329278788245448,-48849,-72137,-65701
653329278795680143,-48979,-72151,-65854
653329278803114838,-48930,-72264,-65918
653329278810549533,-48979,-72277,-65849
653329278817984228,-49011,-72066,-65803
653329278825418923,-49029,-72161,-65809
653329278832853618,-48982,-72090,-65728
653329278840288313,-48942,-72109,-65729
653329278847723008,-48964,-72206,-65757
653329278855095808,-49279,-72218,-65471
653329278862534144,-49152,-71181,-64732
653329278869972480,-48952,-71572,-65307
653329278877410816,-48798,-71808,-65548
653329278884849152,-49081,-72050,-65787
653329278892287488,-48016,-71129,-64761
653329278899725824,-48452,-71591,-65305
653329278907164160,-48884,-71849,-65653
653329278914602496,-48978,-72053,-65775
653329278922040832,-48399,-72077,-65849
653329278929479168,-48730,-72024,-65860
653329278936917504,-48797,-72061,-65776
653329278944355840,-49010,-72080,-65919
653329278951794176,-48933,-72021,-65939
653329278959232512,-48964,-72068,-65785
653329278966670848,-49007,-72061,-65779
653329278974109184,-48972,-72054,-65825
653329278981547520,-48995,-71987,-65810
653329278989047753,-48735,-72241,-65837
653329278996482448,-48845,-72069,-65789
653329279003917143,-48996,-72123,-65879
653329279011351838,-49042,-71855,-65603
653329279018786533,-49011,-71979,-65857
653329279026221228,-48969,-72083,-65933
653329279033655923,-48990,-72032,-65916
653329279041090618,-48887,-71898,-65740
653329279048525313,-48936,-71891,-65895
653329279055960008,-48888,-71956,-65975
653329279063394703,-48953,-71912,-65945
653329279070829398,-48965,-71804,-65856
653329279078264093,-48968,-71924,-65790
653329279085698788,-49087,-72006,-65920
653329279093133483,-48974,-71962,-65865
653329279100568178,-48968,-71924,-65762
653329279108002873,-48919,-71839,-65791
653329279115437568,-48893,-71946,-65708
653329279122872265,-48864,-71913,-65962
653329279130306960,-48899,-71810,-65813
653329279137741655,-48902,-71955,-65862
653329279145176350,-48933,-71836,-65815
653329279152611045,-48961,-71701,-65730
653329279160045740,-48958,-71702,-65737
653329279167480435,-48895,-71674,-65712
653329279174915130,-48907,-71743,-65780
653329279182349825,-48821,-70694,-64766
653329279189784520,-48824,-71262,-65235
653329279197219215,-48739,-71471,-65492
653329279204653910,-48848,-71593,-65734
653329279212088605,-47764,-70514,-64541
653329279219523300,-48308,-71082,-65143
653329279226957995,-48678,-71339,-65378
653329279234392690,-48784,-71585,-65550
653329279241827385,-47694,-71537,-65529
653329279249262080,-48382,-71611,-65609
653329279256634880,-48383,-71799,-65445
653329279264073216,-48648,-71791,-65647
653329279271511552,-48780,-71806,-65628
653329279278949888,-48865,-71687,-65544
653329279286388224,-48801,-71724,-65555
653329279293826560,-48807,-71619,-65606
653329279301264896,-48832,-71530,-65608
653329279308703232,-48777,-71437,-65563
653329279316141568,-48835,-71542,-65570
653329279323579904,-48773,-71549,-65618
653329279331018240,-48718,-71575,-65500
653329279338456576,-48632,-71499,-65512
653329279345894912,-48774,-71571,-65600
653329279353333248,-48818,-71595,-65610
653329279360771584,-48693,-71451,-65473
653329279368209920,-48567,-71537,-65475
653329279375648256,-48720,-71495,-65637
653329279383086592,-48797,-71540,-65721
653329279390648722,-48826,-71478,-65603
653329279398079776,-48706,-71438,-65581
653329279405510830,-48694,-71371,-65604
653329279412941884,-48623,-71396,-65593
653329279420372938,-48605,-71401,-65503
653329279427803992,-48582,-71299,-65418
653329279435235046,-48575,-71405,-65502
653329279442666100,-48645,-71377,-65511
653329279450097154,-48593,-71358,-65507
653329279457528208,-48562,-71350,-65605
653329279464959262,-48572,-71244,-65434
653329279472390316,-48574,-71225,-65519
653329279479821370,-48610,-71195,-65364
653329279487252424,-48609,-71142,-65435
653329279494683478,-48463,-71259,-65467
653329279502114532,-48505,-70300,-64325
653329279509545586,-48521,-70814,-64835
653329279516976640,-48480,-70973,-65135
653329279524345801,-48808,-71302,-65012
653329279531780496,-47629,-70202,-64024
653329279539215191,-48133,-70741,-64695
653329279546649886,-48364,-71015,-65101
653329279554084581,-48329,-71182,-65166
653329279561519276,-47344,-71098,-65127
653329279568953971,-47853,-71217,-65198
653329279576388666,-48282,-71143,-65239
653329279583823361,-48341,-71148,-65369
653329279591258056,-48417,-71060,-65383
653329279598692751,-48393,-71189,-65312
653329279606127446,-48417,-71236,-65280
653329279613562141,-48467,-71232,-65418
653329279620996836,-48451,-71278,-65377
653329279628431531,-48370,-71265,-65307
653329279635866226,-48520,-71389,-65332
653329279643300921,-48674,-71324,-65427
653329279650735616,-48581,-71148,-65204
653329279658108416,-48729,-71138,-65537
653329279665546752,-48737,-71259,-65440
653329279672985088,-48702,-71316,-65454
653329279680423424,-48524,-71239,-65244
653329279687861760,-48643,-71236,-65284
653329279695300096,-48643,-71348,-65445
653329279702738432,-48771,-71401,-65471
653329279710176768,-48546,-71294,-65403
653329279717615104,-48658,-71280,-65480
653329279725053440,-48733,-71282,-65589
653329279732491776,-48610,-71297,-65474
653329279739930112,-48611,-71222,-65394
653329279747368448,-48635,-71367,-65401
653329279754806784,-48635,-71389,-65442
653329279762245120,-48727,-71274,-65482
653329279769683456,-48621,-71227,-65443
653329279777121792,-48694,-71367,-65494
653329279784560128,-48709,-71541,-65497
653329279792060361,-48667,-71412,-65530
653329279799495056,-48621,-71377,-65463
653329279806929751,-48650,-71168,-65472
653329279814364446,-48779,-71270,-65574
653329279821799141,-48773,-70211,-64485
653329279829233836,-48717,-70696,-65040
653329279836668531,-48793,-71076,-65252
653329279844103226,-48789,-71276,-65493
653329279851537921,-47671,-70238,-64551
653329279858972616,-48167,-70800,-65089
653329279866407311,-48492,-71042,-65364
653329279873842006,-48624,-71204,-65416
653329279881276701,-47646,-71165,-65485
653329279888711396,-48207,-71146,-65431
653329279896146091,-48611,-71193,-65565
653329279903580786,-48782,-71149,-65510
653329279911015481,-48842,-71151,-65565
653329279918450176,-48725,-71245,-65467
653329279925822976,-48780,-71410,-65242
653329279933261312,-48892,-71305,-65401
653329279940699648,-48733,-71243,-65393
653329279948137984,-48654,-71123,-65416
653329279955576320,-48796,-71231,-65498
653329279963014656,-48823,-71277,-65452
653329279970452992,-48712,-71042,-65374
653329279977891328,-48707,-71139,-65428
653329279985329664,-48725,-71114,-65494
6.53329E+17,-48731,-71155,-65380
653329280000206336,-48523,-71049,-65370
653329280007644672,-48633,-71179,-65458
653329280015083008,-48824,-71146,-65554
653329280022521344,-48683,-71225,-65569
653329280029959680,-48694,-71312,-65384
653329280037398016,-48581,-71121,-65406
653329280044836352,-48645,-71146,-65476
653329280052274688,-48551,-70994,-65431
653329280059836818,-48680,-71244,-65276
653329280067267872,-48675,-71261,-65313
653329280074698926,-48682,-71190,-65430
653329280082129980,-48719,-71002,-65398
653329280089561034,-48740,-70916,-65357
653329280096992088,-48696,-71027,-65193
653329280104423142,-48684,-71111,-65367
653329280111854196,-48659,-71103,-65367
653329280119285250,-48728,-70972,-65331
653329280126716304,-48730,-71056,-65439
653329280134147358,-48722,-71061,-65451
653329280141578412,-48703,-69942,-64370
653329280149009466,-48744,-70482,-64919
653329280156440520,-48693,-70771,-65232
653329280163871574,-48719,-70922,-65452
653329280171302628,-47604,-69936,-64308
653329280178733682,-48053,-70483,-64766
653329280186164736,-48392,-70874,-65119
6.53329E+17,-48716,-70979,-65311
653329280200910336,-47789,-70940,-65344
653329280208348672,-48244,-70820,-65293
653329280215787008,-48370,-70874,-65286
653329280223225344,-48496,-70912,-65364
653329280230663680,-48423,-70787,-65375
653329280238102016,-48497,-70840,-65328
653329280245540352,-48557,-70822,-65395
653329280252978688,-48511,-70909,-65388
653329280260417024,-48449,-70809,-65239
653329280267855360,-48424,-70812,-65270
653329280275293696,-48434,-70943,-65170
653329280282732032,-48507,-70783,-65243
653329280290170368,-48451,-70556,-65094
653329280297608704,-48370,-70584,-65018
653329280305047040,-48426,-70827,-65211
653329280312485376,-48318,-70711,-65215
653329280319923712,-48205,-70546,-65056
653329280327423945,-48095,-70812,-64880
653329280334858640,-48285,-70772,-65028
653329280342293335,-48344,-70676,-65156
653329280349728030,-48214,-70582,-64995
653329280357162725,-48335,-70599,-65015
653329280364597420,-48346,-70632,-65007
653329280372032115,-48281,-70501,-64954
653329280379466810,-48280,-70520,-64888
653329280386901505,-48368,-70525,-65000
653329280394336200,-48354,-70559,-65071
653329280401770895,-48249,-70574,-65023
653329280409205590,-48224,-70528,-64914
653329280416640285,-48161,-70565,-64930
653329280424074980,-48216,-70517,-64990
653329280431509675,-48199,-70499,-64952
653329280438944370,-48139,-70542,-64847
653329280446379065,-48200,-70597,-64878
653329280453813760,-48384,-70594,-64932
653329280461186560,-48017,-69723,-63858
653329280468624896,-48102,-70164,-64446
653329280476063232,-48174,-70336,-64699
653329280483501568,-48217,-70505,-64978
653329280490939904,-47154,-69516,-63967
653329280498378240,-47859,-70031,-64564
653329280505816576,-48121,-70437,-64726
653329280513254912,-48309,-70583,-65004
653329280520693248,-47208,-70578,-64957
653329280528131584,-47730,-70584,-64963
653329280535569920,-48175,-70631,-65058
653329280543008256,-48395,-70666,-64917
653329280550446592,-48367,-70761,-64880
653329280557884928,-48293,-70856,-64923
653329280565323264,-48383,-70755,-64969
653329280572761600,-48352,-70660,-65039
653329280580199936,-48176,-70632,-64906
653329280587638272,-48272,-70552,-65000
653329280595200402,-48085,-70525,-65259
653329280602631456,-48275,-70595,-65005
653329280610062510,-48252,-70493,-64738
653329280617493564,-48223,-70477,-64769
653329280624924618,-48249,-70614,-64877
653329280632355672,-48314,-70540,-64914
653329280639786726,-48079,-70399,-64834
653329280647217780,-48057,-70561,-64820
653329280654648834,-48207,-70562,-64979
653329280662079888,-48228,-70588,-64940
653329280669510942,-48252,-70531,-64802
653329280676941996,-48167,-70580,-64883
653329280684373050,-48229,-70594,-65013
653329280691804104,-48211,-70597,-65072
653329280699235158,-48109,-70525,-64895
653329280706666212,-48161,-70529,-64812
653329280714097266,-48209,-70515,-64989
653329280721528320,-48190,-70458,-64912
653329280728897481,-48329,-70536,-64662
653329280736332176,-48259,-70608,-64774
653329280743766871,-48178,-70501,-64809
653329280751201566,-48044,-70403,-64813
653329280758636261,-48166,-70326,-64835
653329280766070956,-48156,-70425,-64731
653329280773505651,-48100,-70573,-64811
653329280780940346,-47987,-69371,-63777
653329280788375041,-48040,-69961,-64379
653329280795809736,-47959,-70230,-64605
653329280803244431,-48111,-70362,-64727
653329280810679126,-47029,-69363,-63704
653329280818113821,-47552,-69849,-64277
653329280825548516,-47751,-70209,-64577
653329280832983211,-47912,-70202,-64717
653329280840417906,-46763,-70169,-64580
653329280847852601,-47448,-70208,-64571
653329280855287296,-47750,-70315,-64577
653329280862598216,-48041,-70432,-64444
653329280870040192,-47958,-70315,-64551
653329280877482168,-47830,-70347,-64567
653329280884924144,-47857,-70293,-64648
653329280892366120,-47874,-70185,-64545
653329280899808096,-47839,-70293,-64599
653329280907250072,-47826,-70292,-64422
653329280914692048,-47910,-70396,-64433
653329280922134024,-47868,-70402,-64478
6.53329E+17,-47899,-70038,-64436
653329280937017976,-47849,-70132,-64500
653329280944459952,-47873,-70241,-64580
653329280951901928,-47804,-70224,-64555
653329280959343904,-47533,-69943,-64296
653329280966785880,-47655,-69996,-64379
653329280974227856,-47685,-70068,-64514
653329280981669832,-47602,-70033,-64410
653329280989111808,-47432,-69995,-64410
653329280996739474,-47714,-69749,-64283
653329281004170528,-47694,-70002,-64236
653329281011601582,-47632,-70041,-64383
653329281019032636,-47588,-69944,-64245
653329281026463690,-47582,-70068,-64324
653329281033894744,-47547,-70011,-64456
653329281041325798,-47366,-69930,-64387
653329281048756852,-47314,-69904,-64425
653329281056187906,-47403,-69867,-64356
653329281063618960,-47587,-69905,-64306
653329281071050014,-47473,-69952,-64251
653329281078481068,-47330,-69925,-64144
653329281085912122,-47427,-69929,-64291
653329281093343176,-47461,-69852,-64297
653329281100774230,-47408,-68771,-63635
653329281108205284,-47326,-69294,-63971
653329281115636338,-47311,-69641,-64018
653329281123067392,-47361,-69711,-64068
653329281130374656,-46387,-68782,-63163
653329281137812992,-46986,-69311,-63694
653329281145251328,-47115,-69667,-63926
653329281152689664,-47091,-69754,-64000
6.53329E+17,-46186,-69663,-64006
653329281167566336,-46632,-69701,-63941
653329281175004672,-46867,-69715,-64040
653329281182443008,-47036,-69587,-64030
653329281189881344,-46977,-69552,-63911
653329281197319680,-46911,-69501,-63845
653329281204758016,-47192,-69626,-64005
653329281212196352,-47098,-69619,-63923
653329281219634688,-46990,-69537,-63848
653329281227073024,-47034,-69754,-63909
653329281234511360,-47186,-69742,-63920
653329281241949696,-47069,-69650,-63896
653329281249388032,-47041,-69369,-63749
653329281256826368,-47038,-69780,-63820
653329281264388498,-46942,-69655,-63694
653329281271819552,-47022,-69670,-63880
653329281279250606,-46756,-69537,-63686
653329281286681660,-47085,-69892,-63906
653329281294112714,-47148,-69820,-63894
653329281301543768,-47134,-69698,-63869
653329281308974822,-47005,-69501,-63845
653329281316405876,-47042,-69790,-63900
653329281323836930,-47106,-69739,-63932
653329281331267984,-47113,-69643,-63831
653329281338699038,-47138,-69607,-63915
653329281346130092,-47129,-69665,-63978
653329281353561146,-47123,-69528,-63882
653329281360992200,-47113,-69614,-63829
653329281368423254,-47053,-69658,-63859
653329281375854308,-47063,-69765,-63922
653329281383285362,-46995,-69795,-63877
653329281390716416,-47048,-69828,-63796
653329281398085577,-46881,-69489,-63552
653329281405520272,-46929,-69637,-63771
653329281412954967,-46938,-69707,-63750
653329281420389662,-47049,-68625,-63467
653329281427824357,-46967,-69281,-63690
653329281435259052,-46991,-69587,-63753
653329281442693747,-47054,-69558,-63723
653329281450128442,-45999,-68510,-62678
653329281457563137,-46522,-69087,-63209
653329281464997832,-46824,-69367,-63602
653329281472432527,-46877,-69592,-63698
653329281479867222,-45785,-69459,-63551
653329281487301917,-46501,-69621,-63719
653329281494736612,-46645,-69661,-63783
653329281502171307,-46764,-69675,-63693
653329281509606002,-46936,-69510,-63758
653329281517040697,-46926,-69700,-63652
653329281524475392,-46843,-69641,-63711
653329281531910089,-47029,-69613,-63776
653329281539344784,-46742,-69458,-63621
653329281546779479,-46768,-69572,-63584
653329281554214174,-46696,-69528,-63574
653329281561648869,-46625,-69500,-63557
653329281569083564,-46594,-69399,-63342
653329281576518259,-46653,-69481,-63603
653329281583952954,-46696,-69543,-63502
653329281591387649,-46666,-69466,-63556
653329281598822344,-46544,-69311,-63371
653329281606257039,-46563,-69499,-63399
653329281613691734,-46554,-69508,-63558
653329281621126429,-46482,-69355,-63470
653329281628561124,-46464,-69375,-63391
653329281635995819,-46507,-69366,-63550
653329281643430514,-46637,-69486,-63529
653329281650865209,-46646,-69430,-63361
653329281658299904,-46442,-69337,-63453
653329281665672704,-46370,-69106,-63381
653329281673111040,-46435,-69205,-63365
653329281680549376,-46467,-69287,-63476
653329281687987712,-46445,-69329,-63411
653329281695426048,-46430,-69321,-63430
653329281702864384,-46433,-69311,-63357
653329281710302720,-46362,-69266,-63325
653329281717741056,-46385,-69268,-63196
653329281725179392,-46482,-69268,-63327
653329281732617728,-46424,-69327,-63318
653329281740056064,-46545,-68202,-63367
653329281747494400,-46419,-68799,-63316
653329281754932736,-46452,-69104,-63317
653329281762371072,-46353,-69109,-63262
653329281769809408,-45363,-68128,-62149
653329281777247744,-46016,-68694,-62745
653329281784686080,-46178,-69049,-63139
653329281792124416,-46294,-69083,-63159
653329281799562752,-45350,-69161,-63140
653329281807001088,-45873,-69167,-63158
653329281814439424,-46331,-69177,-63185
653329281821877760,-46268,-69301,-63124
653329281829316096,-46163,-69077,-63084
653329281836754432,-46209,-69062,-63051
653329281844192768,-46357,-69086,-63073
653329281851631104,-46226,-69114,-63034
653329281859069440,-46112,-69052,-63054
653329281866507776,-46179,-69172,-63084
653329281873946112,-46162,-69084,-63052
653329281881384448,-46268,-69150,-63088
653329281888822784,-46204,-68895,-62944
653329281896261120,-46120,-68969,-63067
653329281903699456,-46128,-69038,-62992
653329281911137792,-46081,-68962,-62977
653329281918576128,-45932,-68801,-62773
653329281926014464,-46100,-68899,-62875
653329281933514697,-46201,-69023,-62765
653329281940949392,-46134,-68977,-62975
653329281948384087,-46016,-68935,-63032
653329281955818782,-46154,-69006,-63038
653329281963253477,-46150,-69117,-63180
653329281970688172,-46151,-69047,-63139
653329281978122867,-46057,-69031,-63075
653329281985557562,-46072,-69072,-63102
653329281992992257,-46110,-69025,-63011
653329282000426952,-46180,-68897,-63048
653329282007861647,-46199,-69012,-62985
653329282015296342,-46169,-69158,-63084
653329282022731037,-46159,-69137,-63025
653329282030165732,-46111,-69137,-63076
653329282037600427,-46135,-69143,-62995
653329282045035122,-46252,-69232,-63079
653329282052469817,-46229,-69324,-63040
653329282059904512,-46208,-68342,-63126
653329282067401106,-46000,-68677,-63237
653329282074832160,-46271,-69022,-63333
653329282082263214,-46386,-69197,-63244
653329282089694268,-45318,-68276,-62184
653329282097125322,-45989,-68865,-62898
653329282104556376,-46346,-69318,-63103
653329282111987430,-46589,-69393,-63278
653329282119418484,-45360,-69353,-62635
653329282126849538,-46143,-69462,-63145
653329282134280592,-46414,-69495,-63379
653329282141711646,-46399,-69564,-63360
653329282149142700,-46507,-69588,-63549
653329282156573754,-46607,-69537,-63667
653329282164004808,-46631,-69612,-63606
653329282171435862,-46527,-69492,-63642
653329282178866916,-46653,-69518,-63690
653329282186297970,-46785,-69659,-63779
653329282193729024,-46893,-69700,-63793
653329282200974408,-47052,-70074,-64040
653329282208416384,-46928,-69810,-63775
653329282215858360,-46892,-69798,-63880
653329282223300336,-46907,-69775,-63847
653329282230742312,-46874,-69870,-63989
653329282238184288,-46691,-69760,-63756
653329282245626264,-46729,-69850,-63808
653329282253068240,-46747,-69888,-63820
653329282260510216,-46931,-69957,-63916
653329282267952192,-46823,-70055,-63856
653329282275394168,-46951,-70080,-64056
653329282282836144,-46932,-69997,-63998
653329282290278120,-46863,-69877,-63966
653329282297720096,-46946,-70047,-64148
653329282305162072,-46954,-70061,-64117
653329282312604048,-47078,-70202,-64132
653329282320046024,-47020,-70132,-64090
6.53329E+17,-47085,-70053,-64031
653329282335115666,-47201,-70195,-64279
653329282342546720,-47020,-70151,-64219
653329282349977774,-46937,-70062,-64189
653329282357408828,-47029,-70271,-64222
653329282364839882,-47149,-70228,-64286
653329282372270936,-47063,-70283,-64210
653329282379701990,-47073,-70230,-64271
653329282387133044,-47237,-70160,-64349
653329282394564098,-47247,-70313,-64424
653329282401995152,-47297,-70255,-64342
653329282409426206,-46550,-69238,-63417
653329282416857260,-47054,-69912,-64076
653329282424288314,-47174,-70068,-64296
653329282431719368,-47210,-70267,-64328
653329282439150422,-46073,-70295,-63340
653329282446581476,-46748,-70234,-64015
653329282454012530,-47029,-70420,-64286
653329282461443584,-47130,-70280,-64358
653329282468750848,-47430,-70402,-64072
653329282476189184,-47325,-70334,-64270
653329282483627520,-47288,-70383,-64380
653329282491065856,-47293,-70433,-64397
653329282498504192,-47229,-70414,-64458
653329282505942528,-47463,-70481,-64568
653329282513380864,-47380,-70577,-64561
653329282520819200,-47286,-70392,-64465
653329282528257536,-47289,-70270,-64433
653329282535695872,-47374,-70433,-64508
653329282543134208,-47459,-70390,-64638
653329282550572544,-47226,-70345,-64459
653329282558010880,-47214,-70369,-64441
653329282565449216,-47285,-70432,-64470
653329282572887552,-47325,-70475,-64639
653329282580325888,-47398,-70454,-64700
653329282587764224,-47177,-70415,-64535
653329282595202560,-47305,-70534,-64594
653329282602702793,-47318,-70611,-64572
653329282610137488,-47337,-70668,-64611
653329282617572183,-47267,-70577,-64531
653329282625006878,-47366,-70569,-64650
653329282632441573,-47454,-70518,-64601
653329282639876268,-47375,-70576,-64613
653329282647310963,-47341,-70632,-64635
653329282654745658,-47428,-70583,-64654
653329282662180353,-47515,-70552,-64671
653329282669615048,-47453,-70489,-64665
653329282677049743,-47462,-70597,-64677
653329282684484438,-47434,-70659,-64663
653329282691919133,-47421,-70575,-64800
653329282699353828,-47442,-70646,-64793
653329282706788523,-47385,-70654,-64773
653329282714223218,-47405,-70556,-64746
653329282721657913,-47355,-70541,-64695
653329282729092608,-47302,-69577,-63589
653329282736589202,-47300,-70319,-63972
653329282744020256,-47075,-70441,-64287
653329282751451310,-47217,-70528,-64547
653329282758882364,-46189,-69490,-63625
653329282766313418,-46952,-70216,-64287
653329282773744472,-47147,-70505,-64538
653329282781175526,-47306,-70507,-64757
653329282788606580,-47121,-70573,-64782
653329282796037634,-47249,-70715,-64781
653329282803468688,-47399,-70776,-64757
653329282810899742,-47330,-70650,-64650
653329282818330796,-47470,-70722,-64692
653329282825761850,-47569,-70823,-64843
653329282833192904,-47663,-70778,-64933
653329282840623958,-47579,-70872,-64969
653329282848055012,-47558,-70933,-64925
653329282855486066,-47536,-70973,-64977
653329282862917120,-47591,-71029,-65050
653329282870162504,-47778,-70683,-64701
653329282877604480,-47639,-70741,-64811
653329282885046456,-47695,-71014,-65075
653329282892488432,-47847,-71035,-65100
653329282899930408,-47816,-71189,-65175
653329282907372384,-47638,-71142,-65063
653329282914814360,-47868,-71208,-65246
653329282922256336,-47888,-71411,-65204
653329282929698312,-47866,-71313,-65281
653329282937140288,-47870,-71532,-65384
653329282944582264,-48074,-71511,-65529
653329282952024240,-48079,-71497,-65554
653329282959466216,-47990,-71685,-65537
653329282966908192,-48132,-71701,-65620
653329282974350168,-48251,-71758,-65701
653329282981792144,-48291,-71807,-65629
653329282989234120,-48317,-71717,-65670
653329282996676096,-48275,-71857,-65718
653329283004303762,-48235,-71850,-65603
653329283011734816,-48338,-71876,-65667
653329283019165870,-48398,-72029,-65871
653329283026596924,-48433,-72099,-65996
653329283034027978,-48570,-72075,-66039
653329283041459032,-48557,-72173,-65922
653329283048890086,-48571,-71147,-65004
653329283056321140,-48682,-71870,-65569
653329283063752194,-48584,-72029,-65848
653329283071183248,-48639,-72077,-66003
653329283078614302,-47578,-71170,-65034
653329283086045356,-48107,-71754,-65681
653329283093476410,-48479,-72192,-65950
653329283100907464,-48471,-72126,-66116
653329283108338518,-48159,-72204,-66207
653329283115769572,-48577,-72371,-66312
653329283123200626,-48717,-72392,-66299
653329283130631680,-48792,-72482,-66220
653329283137877064,-48805,-72746,-66410
653329283145319040,-48885,-72648,-66399
653329283152761016,-48895,-72642,-66386
653329283160202992,-48848,-72601,-66440
653329283167644968,-48881,-72594,-66398
653329283175086944,-49007,-72660,-66495
653329283182528920,-49053,-72675,-66493
653329283189970896,-49010,-72672,-66482
653329283197412872,-49001,-72573,-66502
653329283204854848,-49074,-72846,-66506
653329283212296824,-49177,-72782,-66643
653329283219738800,-49000,-72701,-66568
653329283227180776,-48906,-72853,-66542
653329283234622752,-49365,-72662,-66622
653329283242064728,-49265,-72779,-66652
653329283249506704,-49120,-72870,-66620
653329283256948680,-49174,-72967,-66752
653329283264390656,-49324,-73070,-66907
653329283272018322,-49426,-73092,-66518
653329283279449376,-49207,-73043,-66641
653329283286880430,-49320,-72996,-66768
653329283294311484,-49403,-73007,-66660
653329283301742538,-49109,-72968,-66753
653329283309173592,-49129,-73057,-66761
653329283316604646,-49239,-73126,-66813
653329283324035700,-49169,-73169,-66847
653329283331466754,-49299,-73096,-66901
653329283338897808,-49215,-73087,-66808
653329283346328862,-49351,-73249,-66893
653329283353759916,-49547,-73150,-66991
653329283361190970,-49376,-73210,-66928
653329283368622024,-49300,-72203,-65831
653329283376053078,-49470,-72768,-66492
653329283383484132,-49435,-72916,-66806
653329283390915186,-49350,-73143,-66847
653329283398346240,-48257,-72250,-65954
653329283405653504,-48955,-72639,-66327
653329283413091840,-49268,-73085,-66672
653329283420530176,-49182,-73116,-66918
653329283427968512,-48617,-73224,-66978
653329283435406848,-48973,-73263,-67051
653329283442845184,-49187,-73265,-67009
653329283450283520,-49288,-73215,-66994
653329283457721856,-49352,-73184,-67093
653329283465160192,-49439,-73508,-67129
653329283472598528,-49409,-73374,-67162
653329283480036864,-49390,-73386,-66974
653329283487475200,-49436,-73434,-67097
653329283494913536,-49456,-73372,-67055
653329283502351872,-49490,-73447,-67044
653329283509790208,-49433,-73375,-67039
653329283517228544,-49418,-73265,-67016
653329283524666880,-49528,-73397,-67285
653329283532105216,-49464,-73488,-67214
653329283539605449,-49392,-73547,-67278
653329283547040144,-49215,-73392,-67017
653329283554474839,-49614,-73501,-67218
653329283561909534,-49556,-73550,-67238
653329283569344229,-49488,-73607,-67210
653329283576778924,-49444,-73531,-67236
653329283584213619,-49552,-73572,-67269
653329283591648314,-49477,-73510,-67252
653329283599083009,-49521,-73520,-67242
653329283606517704,-49611,-73622,-67294
653329283613952399,-49625,-73492,-67302
653329283621387094,-49647,-73442,-67224
653329283628821789,-49593,-73482,-67203
653329283636256484,-49572,-73481,-67267
653329283643691179,-49591,-73500,-67317
653329283651125874,-49516,-73471,-67305
653329283658560569,-49541,-73536,-67249
653329283665995264,-49440,-73633,-67243
653329283673429961,-49655,-73825,-67312
653329283680864656,-49536,-73635,-67289
653329283688299351,-49713,-72629,-66356
653329283695734046,-49767,-73298,-66915
653329283703168741,-49761,-73678,-67244
653329283710603436,-49765,-73851,-67350
653329283718038131,-48822,-72840,-66565
653329283725472826,-49488,-73645,-67141
653329283732907521,-49740,-73832,-67426
653329283740342216,-49806,-73912,-67563
653329283747776911,-48960,-74212,-67687
653329283755211606,-49776,-74410,-67807
653329283762646301,-50028,-74414,-67824
653329283770080996,-50139,-74350,-67848
653329283777515691,-50267,-74384,-67946
653329283784950386,-50299,-74541,-67943
653329283792385081,-50383,-74587,-68068
653329283799819776,-50393,-74588,-68075
653329283807192576,-50196,-74504,-67855
653329283814630912,-50379,-75015,-67672
653329283822069248,-50274,-74796,-67934
653329283829507584,-50485,-74792,-68049
653329283836945920,-50560,-74826,-68179
653329283844384256,-50568,-74954,-68277
653329283851822592,-50488,-74996,-68338
653329283859260928,-50555,-74960,-68401
653329283866699264,-50594,-74832,-68289
653329283874137600,-50628,-74961,-68366
653329283881575936,-50608,-75053,-68451
653329283889014272,-50853,-75056,-68486
653329283896452608,-50708,-75161,-68656
653329283903890944,-50897,-75207,-68616
653329283911329280,-50829,-75248,-68673
653329283918767616,-50803,-75219,-68611
653329283926205952,-50897,-75517,-68634
653329283933644288,-50922,-75434,-68761
653329283941144521,-50939,-75429,-68492
653329283948579216,-51061,-75497,-68690
653329283956013911,-50947,-75500,-68816
653329283963448606,-50977,-75482,-68898
653329283970883301,-51099,-75439,-68935
653329283978317996,-51065,-75609,-68897
653329283985752691,-51022,-75642,-68975
653329283993187386,-51042,-75650,-69062
653329284000622081,-51080,-75540,-69022
653329284008056776,-51181,-74600,-68136
653329284015491471,-51230,-75351,-68594
653329284022926166,-51358,-75661,-68824
653329284030360861,-51181,-75610,-68959
653329284037795556,-50254,-74692,-68126
653329284045230251,-50873,-75347,-68786
653329284052664946,-51152,-75618,-69167
653329284060099641,-51286,-75791,-69220
653329284067534336,-50203,-75842,-69188
653329284074969033,-51116,-76130,-69366
653329284082403728,-51237,-76018,-69388
653329284089838423,-51348,-76024,-69306
653329284097273118,-51287,-75942,-69353
653329284104707813,-51357,-75916,-69389
653329284112142508,-51374,-75942,-69425
653329284119577203,-51456,-76122,-69430
653329284127011898,-51468,-76107,-69481
653329284134446593,-51510,-76251,-69410
653329284141881288,-51555,-76125,-69387
653329284149315983,-51482,-76125,-69491
653329284156750678,-51469,-76033,-69362
653329284164185373,-51549,-76078,-69453
653329284171620068,-51568,-76234,-69488
653329284179054763,-51658,-76216,-69591
653329284186489458,-51464,-76110,-69444
653329284193924153,-51475,-76300,-69484
653329284201358848,-51711,-76277,-69631
653329284208793545,-51614,-76581,-69683
653329284216228240,-51413,-76387,-69631
653329284223662935,-51590,-76448,-69759
653329284231097630,-51619,-76330,-69649
653329284238532325,-51582,-76444,-69465
653329284245967020,-51656,-76497,-69642
653329284253401715,-51665,-76418,-69613
653329284260836410,-51705,-76336,-69677
653329284268271105,-51693,-76404,-69690
653329284275705800,-51707,-76380,-69771
653329284283140495,-51751,-76295,-69731
653329284290575190,-51688,-76393,-69696
653329284298009885,-51653,-76341,-69693
653329284305444580,-51664,-76400,-69730
653329284312879275,-51700,-76391,-69866
653329284320313970,-51728,-76287,-69798
653329284327748665,-51653,-75308,-69671
653329284335183360,-51806,-75931,-69860
653329284342556160,-51590,-76338,-69495
653329284349994496,-51624,-76501,-69576
653329284357432832,-50623,-75443,-68608
653329284364871168,-51327,-75987,-69383
653329284372309504,-51620,-76146,-69563
653329284379747840,-51561,-76383,-69747
653329284387186176,-50742,-76471,-69709
653329284394624512,-51444,-76515,-69799
653329284402062848,-51589,-76492,-69755
653329284409501184,-51721,-76474,-69777
653329284416939520,-51743,-76523,-69760
653329284424377856,-51791,-76501,-69807
653329284431816192,-51719,-76409,-69733
653329284439254528,-51764,-76411,-69898
653329284446692864,-51788,-76382,-69772
653329284454131200,-51865,-76601,-69849
653329284461569536,-51785,-76410,-69795
653329284469007872,-51695,-76414,-69813
653329284476508105,-51947,-76265,-69507
653329284483942800,-51961,-76565,-69843
653329284491377495,-51937,-76523,-69892
653329284498812190,-51909,-76452,-69832
653329284506246885,-51824,-76433,-69822
653329284513681580,-51839,-76393,-69860
653329284521116275,-51745,-76420,-69847
653329284528550970,-51845,-76392,-69953
653329284535985665,-51683,-76481,-69912
653329284543420360,-51819,-76393,-69903
653329284550855055,-51582,-76361,-69819
653329284558289750,-51740,-76474,-69810
653329284565724445,-51819,-76487,-69894
653329284573159140,-51785,-76564,-69957
653329284580593835,-51930,-76567,-70015
653329284588028530,-51767,-76521,-69910
653329284595463225,-51909,-76700,-69952
653329284602897920,-51946,-76654,-70103
653329284610270720,-51603,-76767,-69676
653329284617709056,-51760,-76780,-69933
653329284625147392,-51915,-76877,-70088
653329284632585728,-51911,-76836,-70172
653329284640024064,-51963,-76872,-70116
653329284647462400,-52033,-75821,-70182
653329284654900736,-52218,-76592,-70297
653329284662339072,-52278,-76837,-70392
653329284669777408,-52352,-77003,-70467
653329284677215744,-51403,-76094,-69557
653329284684654080,-51968,-76746,-70114
653329284692092416,-52193,-76993,-70358
653329284699530752,-52240,-77181,-70423
653329284706969088,-51264,-77332,-70500
653329284714407424,-52001,-77454,-70389
653329284721845760,-52288,-77483,-70497
653329284729284096,-52492,-77572,-70568
653329284736722432,-52644,-77621,-70731
653329284744284562,-52956,-77890,-71035
653329284751715616,-52887,-77751,-70908
653329284759146670,-52764,-77799,-71004
653329284766577724,-52778,-77756,-70961
653329284774008778,-52826,-77855,-71076
653329284781439832,-52718,-77833,-71023
653329284788870886,-52846,-77821,-71137
653329284796301940,-52792,-77850,-71011
653329284803732994,-52986,-77867,-71179
653329284811164048,-52925,-77904,-71235
653329284818595102,-53013,-77849,-71119
653329284826026156,-52986,-77805,-71075
653329284833457210,-53030,-78014,-71086
653329284840888264,-52999,-78086,-71181
653329284848319318,-53065,-78111,-71180
653329284855750372,-52862,-78209,-71252
653329284863181426,-52922,-78054,-71263
653329284870612480,-53085,-78003,-71319
653329284877857864,-53279,-77859,-71612
653329284885299840,-53191,-78083,-71511
653329284892741816,-53130,-78153,-71467
653329284900183792,-53108,-78208,-71445
653329284907625768,-53116,-78082,-71448
653329284915067744,-53376,-78189,-71504
653329284922509720,-53355,-78189,-71542
653329284929951696,-53270,-78191,-71584
653329284937393672,-53279,-78432,-71521
653329284944835648,-53316,-78479,-71608
653329284952277624,-53346,-78416,-71631
653329284959719600,-53364,-78500,-71470
653329284967161576,-53400,-77657,-71652
653329284974603552,-53425,-78176,-71692
653329284982045528,-53412,-78257,-71781
653329284989487504,-53406,-78349,-71807
653329284996929480,-52365,-77375,-70685
653329285004371456,-53019,-78006,-71343
653329285011999122,-53363,-78466,-71643
653329285019430176,-53531,-78416,-71689
653329285026861230,-52506,-78505,-71236
653329285034292284,-53067,-78598,-71556
653329285041723338,-53239,-78500,-71718
653329285049154392,-53358,-78396,-71661
653329285056585446,-53560,-78547,-71694
653329285064016500,-53628,-78556,-71759
653329285071447554,-53586,-78521,-71694
653329285078878608,-53579,-78565,-71820
653329285086309662,-53525,-78550,-71871
653329285093740716,-53668,-78525,-71811
653329285101171770,-53617,-78453,-71675
653329285108602824,-53450,-78445,-71720
653329285116033878,-53471,-78331,-71799
653329285123464932,-53530,-78423,-71918
653329285130895986,-53545,-78501,-71811
653329285138327040,-53485,-78471,-71811
653329285145634304,-53328,-78309,-71822
653329285153072640,-53470,-78386,-71856
653329285160510976,-53436,-78440,-71871
653329285167949312,-53463,-78512,-71933
653329285175387648,-53302,-78443,-71909
653329285182825984,-53394,-78517,-71849
653329285190264320,-53493,-78459,-71694
653329285197702656,-53480,-78398,-71673
653329285205140992,-53541,-78561,-71778
653329285212579328,-53625,-78576,-71900
653329285220017664,-53530,-78607,-71799
6.53329E+17,-53451,-78552,-71874
653329285234894336,-53436,-78490,-71888
653329285242332672,-53496,-78380,-71867
653329285249771008,-53362,-78402,-71785
653329285257209344,-53291,-78527,-71706
653329285264647680,-53325,-78340,-71709
653329285272086016,-53241,-78341,-71746
653329285279586249,-53392,-78396,-71423
653329285287020944,-53401,-78329,-71530
653329285294455639,-53400,-78337,-71620
653329285301890334,-53301,-78315,-71597
653329285309325029,-53177,-78225,-71636
653329285316759724,-52470,-77287,-70637
653329285324194419,-52920,-77996,-71193
653329285331629114,-53076,-78151,-71445
653329285339063809,-53131,-78206,-71524
653329285346498504,-52199,-78260,-70596
653329285353933199,-52736,-78276,-71132
653329285361367894,-53139,-78171,-71337
653329285368802589,-53056,-78213,-71429
653329285376237284,-53123,-78201,-71508
653329285383671979,-53155,-78221,-71484
653329285391106674,-52952,-78072,-71370
653329285398541369,-52921,-78069,-71396
653329285405976064,-53001,-78034,-71382
653329285413410761,-52632,-78207,-71110
653329285420845456,-52865,-78034,-71284
653329285428280151,-52743,-78056,-71304
653329285435714846,-52785,-77978,-71353
653329285443149541,-52831,-77962,-71375
653329285450584236,-52746,-77957,-71335
653329285458018931,-52886,-77999,-71315
653329285465453626,-52733,-77970,-71259
653329285472888321,-52811,-78046,-71382
653329285480323016,-52709,-77963,-71236
653329285487757711,-52785,-77976,-71285
653329285495192406,-52727,-78035,-71299
653329285502627101,-52829,-78100,-71316
653329285510061796,-52806,-77984,-71266
653329285517496491,-53022,-78119,-71429
653329285524931186,-53005,-78323,-71515
653329285532365881,-53055,-78368,-71429
653329285539800576,-52931,-78295,-71452
653329285547173376,-53104,-78434,-71743
653329285554611712,-53199,-78517,-71823
653329285562050048,-53080,-78456,-71646
653329285569488384,-52956,-78418,-71595
653329285576926720,-53044,-78418,-71687
653329285584365056,-53140,-78524,-71675
653329285591803392,-53024,-78461,-71672
653329285599241728,-52976,-78470,-71634
653329285606680064,-53040,-78558,-71642
653329285614118400,-53099,-78646,-71634
653329285621556736,-53116,-78555,-71712
653329285628995072,-53172,-78527,-71759
653329285636433408,-53203,-77522,-70750
653329285643871744,-53328,-78119,-71351
653329285651310080,-53140,-78308,-71524
653329285658748416,-53111,-78451,-71609
653329285666186752,-52089,-77560,-70679
653329285673625088,-52671,-78180,-71342
653329285681187218,-52687,-78658,-71782
653329285688618272,-52882,-78614,-71730
653329285696049326,-52539,-78589,-71826
653329285703480380,-52801,-78548,-71794
653329285710911434,-53050,-78527,-71788
653329285718342488,-53021,-78555,-71736
653329285725773542,-53041,-78665,-71831
653329285733204596,-53041,-78501,-71794
653329285740635650,-53004,-78549,-71745
653329285748066704,-53106,-78504,-71805
653329285755497758,-53000,-78567,-71701
653329285762928812,-53013,-78545,-71742
653329285770359866,-52864,-78500,-71703
653329285777790920,-52935,-78556,-71703
653329285785221974,-52928,-78333,-71609
653329285792653028,-52979,-78422,-71535
653329285800084082,-52940,-78434,-71530
653329285807515136,-52977,-78456,-71619
653329285814822400,-53035,-78188,-71232
653329285822260736,-52968,-78345,-71555
653329285829699072,-52986,-78444,-71578
653329285837137408,-53001,-78547,-71558
653329285844575744,-52958,-78603,-71688
653329285852014080,-53065,-78538,-71662
653329285859452416,-53063,-78547,-71552
653329285866890752,-53013,-78663,-71745
653329285874329088,-52974,-78698,-71645
653329285881767424,-52936,-78661,-71610
653329285889205760,-52874,-78464,-71581
653329285896644096,-52941,-78598,-71735
653329285904082432,-52848,-78635,-71633
653329285911520768,-52800,-78607,-71558
653329285918959104,-52787,-78435,-71516
653329285926397440,-52792,-78351,-71591
653329285933835776,-52792,-78481,-71540
653329285941274112,-52705,-78463,-71370
653329285948774345,-52818,-78433,-71195
653329285956209040,-52803,-77334,-70339
653329285963643735,-52636,-77835,-70957
653329285971078430,-52680,-78005,-71210
653329285978513125,-52652,-78043,-71213
653329285985947820,-51533,-77181,-70219
653329285993382515,-51944,-77722,-70844
653329286000817210,-52239,-77917,-71014
653329286008251905,-52274,-77968,-71217
653329286015686600,-51302,-78041,-71337
653329286023121295,-51823,-78035,-71199
653329286030555990,-52024,-78052,-71238
653329286037990685,-52228,-78186,-71154
653329286045425380,-52274,-78206,-71088
653329286052860075,-52243,-78059,-71199
653329286060294770,-52311,-77955,-71071
653329286067729465,-52185,-77961,-71030
653329286075164160,-52299,-77922,-71047
653329286082598857,-51897,-77944,-70759
653329286090033552,-51999,-77910,-70888
653329286097468247,-52006,-77816,-70921
653329286104902942,-52133,-77833,-70838
653329286112337637,-52070,-77785,-70881
653329286119772332,-52063,-77822,-70881
653329286127207027,-52031,-77796,-70946
653329286134641722,-51964,-77663,-70855
653329286142076417,-52022,-77694,-70848
653329286149511112,-52006,-77728,-70841
653329286156945807,-52045,-77809,-70775
653329286164380502,-51987,-77758,-70890
653329286171815197,-51845,-77615,-70816
653329286179249892,-51873,-77557,-70780
653329286186684587,-51778,-77520,-70701
653329286194119282,-51956,-77668,-70688
653329286201553977,-51816,-77510,-70578
653329286208988672,-51765,-77485,-70663
653329286216361472,-51882,-77541,-70698
653329286223799808,-51886,-77594,-70644
653329286231238144,-51807,-77398,-70658
653329286238676480,-51747,-77438,-70532
653329286246114816,-51800,-77501,-70580
653329286253553152,-51751,-77632,-70503
653329286260991488,-51604,-77569,-70445
653329286268429824,-51551,-77392,-70475
653329286275868160,-51641,-76465,-69422
653329286283306496,-51738,-76852,-69994
653329286290744832,-51506,-77077,-70177
653329286298183168,-51406,-77236,-70210
653329286305621504,-50476,-76178,-69298
653329286313059840,-51043,-76678,-69900
653329286320498176,-51273,-76859,-70108
653329286327936512,-51320,-76976,-70258
653329286335374848,-50245,-77050,-70239
653329286342813184,-50832,-77206,-70274
653329286350313417,-51125,-77388,-70290
653329286357748112,-51268,-77379,-70383
653329286365182807,-51270,-77263,-70334
653329286372617502,-51379,-77291,-70336
653329286380052197,-51439,-77272,-70395
653329286387486892,-51421,-77350,-70416
653329286394921587,-51460,-77436,-70553
653329286402356282,-51444,-77496,-70536
653329286409790977,-51483,-77323,-70393
653329286417225672,-51480,-77382,-70494
653329286424660367,-51549,-77244,-70408
653329286432095062,-51518,-77451,-70460
653329286439529757,-51521,-77401,-70532
653329286446964452,-51508,-77528,-70449
653329286454399147,-51420,-77477,-70496
653329286461833842,-51423,-77447,-70543
653329286469268537,-51562,-77447,-70563
653329286476703232,-51632,-77595,-70759
653329286484137929,-51621,-77677,-70376
653329286491572624,-51637,-77627,-70557
653329286499007319,-51617,-77577,-70617
653329286506442014,-51521,-77589,-70652
653329286513876709,-51635,-77622,-70704
653329286521311404,-51668,-77650,-70748
653329286528746099,-51625,-77723,-70650
653329286536180794,-51699,-77671,-70772
653329286543615489,-51696,-77679,-70784
653329286551050184,-51664,-77612,-70730
653329286558484879,-51555,-77596,-70514
653329286565919574,-51791,-77720,-70651
653329286573354269,-51692,-77706,-70748
653329286580788964,-51628,-77614,-70619
653329286588223659,-51689,-77527,-70697
653329286595658354,-51778,-76515,-70276
653329286603093049,-51618,-77099,-70490
653329286610527744,-51699,-77361,-70655
653329286617962441,-51509,-77371,-70861
653329286625397136,-50505,-76360,-69662
653329286632831831,-51068,-77105,-70307
653329286640266526,-51334,-77307,-70506
653329286647701221,-51413,-77398,-70626
653329286655135916,-50520,-77544,-70754
653329286662570611,-51163,-77442,-70656
653329286670005306,-51298,-77409,-70609
653329286677440001,-51408,-77394,-70718
653329286684874696,-51520,-77512,-70767
653329286692309391,-51478,-77454,-70702
653329286699744086,-51536,-77475,-70713
653329286707178781,-51534,-77542,-70727
653329286714613476,-51710,-77592,-70821
653329286722048171,-51601,-77542,-70736
653329286729482866,-51674,-77552,-70829
653329286736917561,-51589,-77509,-70814
653329286744352256,-51726,-77461,-70769
653329286751725056,-51745,-77725,-70780
653329286759163392,-51703,-77495,-70741
653329286766601728,-51668,-77689,-70745
653329286774040064,-51501,-77531,-70692
653329286781478400,-51542,-77452,-70704
653329286788916736,-51505,-77359,-70655
653329286796355072,-51645,-77418,-70699
653329286803793408,-51572,-77515,-70713
653329286811231744,-51572,-77582,-70805
653329286818670080,-51514,-77490,-70833
653329286826108416,-51703,-77544,-70863
653329286833546752,-51536,-77514,-70752
653329286840985088,-51517,-77445,-70721
653329286848423424,-51675,-77367,-70704
653329286855861760,-51645,-77514,-70877
653329286863300096,-51561,-77569,-70889
653329286870738432,-51522,-77332,-70827
653329286878176768,-51484,-77505,-70720
653329286885677001,-51792,-77149,-70659
653329286893111696,-51836,-77333,-70682
653329286900546391,-51620,-77365,-70699
653329286907981086,-51568,-77349,-70666
653329286915415781,-51600,-76371,-70720
653329286922850476,-51670,-76934,-70682
653329286930285171,-51521,-77219,-70688
653329286937719866,-51481,-77256,-70724
653329286945154561,-50442,-76188,-69698
653329286952589256,-50923,-76728,-70219
653329286960023951,-51175,-76939,-70386
653329286967458646,-51404,-76927,-70480
653329286974893341,-50385,-77201,-70542
653329286982328036,-50835,-77125,-70539
653329286989762731,-51170,-77253,-70544
653329286997197426,-51375,-77184,-70626
653329287004632121,-51439,-77264,-70688
653329287012066816,-51422,-77247,-70581
653329287019563410,-51188,-77164,-70520
653329287026994464,-51262,-77058,-70564
653329287034425518,-51368,-77087,-70579
653329287041856572,-51390,-77038,-70576
653329287049287626,-51287,-76973,-70473
653329287056718680,-51404,-77132,-70477
653329287064149734,-51351,-77023,-70485
653329287071580788,-51409,-77018,-70475
653329287079011842,-51379,-77049,-70536
653329287086442896,-51466,-77118,-70518
653329287093873950,-51237,-77027,-70503
653329287101305004,-51275,-77119,-70420
653329287108736058,-51436,-77142,-70446
653329287116167112,-51286,-77067,-70380
653329287123598166,-51119,-77019,-70375
653329287131029220,-51152,-76876,-70324
653329287138460274,-51150,-76908,-70406
653329287145891328,-51160,-76977,-70346
653329287153136712,-51289,-76833,-70428
653329287160578688,-51261,-76840,-70334
653329287168020664,-51074,-76836,-70428
653329287175462640,-51283,-76708,-70338
653329287182904616,-51163,-76765,-70442
653329287190346592,-51146,-76682,-70375
653329287197788568,-51110,-76910,-70488
653329287205230544,-51300,-76824,-70515
653329287212672520,-51226,-76787,-70369
653329287220114496,-51139,-76824,-70388
653329287227556472,-51221,-76991,-70377
653329287234998448,-51408,-76158,-70474
653329287242440424,-51358,-76577,-70465
653329287249882400,-51311,-76700,-70462
653329287257324376,-51330,-76819,-70574
653329287264766352,-50338,-75917,-69633
653329287272208328,-50863,-76565,-70206
653329287279650304,-51222,-76823,-70437
653329287287216073,-51503,-76969,-70696
653329287294650768,-50444,-77134,-70003
653329287302085463,-51058,-77038,-70492
653329287309520158,-51388,-77171,-70732
653329287316954853,-51569,-77248,-70814
653329287324389548,-51653,-77271,-70937
653329287331824243,-51649,-77208,-70972
653329287339258938,-51834,-77229,-71087
653329287346693633,-51868,-77360,-71117
653329287354128328,-51937,-77395,-71137
653329287361563023,-51848,-77345,-71195
653329287368997718,-51865,-77294,-71104
653329287376432413,-52056,-77427,-71105
653329287383867108,-51994,-77321,-71107
653329287391301803,-51986,-77267,-71178
653329287398736498,-51954,-77287,-71125
653329287406171193,-52045,-77432,-71282
653329287413605888,-51943,-77387,-71179
653329287421040585,-52186,-77473,-71327
653329287428475280,-52255,-77521,-71314
653329287435909975,-52139,-77577,-71346
653329287443344670,-52018,-77556,-71258
653329287450779365,-52011,-77525,-71279
653329287458214060,-52063,-77548,-71329
653329287465648755,-52204,-77604,-71377
653329287473083450,-52140,-77601,-71512
653329287480518145,-52251,-77503,-71352
653329287487952840,-52314,-77550,-71479
653329287495387535,-52258,-77578,-71464
653329287502822230,-52226,-77588,-71479
653329287510256925,-52359,-77560,-71525
653329287517691620,-52351,-77511,-71452
653329287525126315,-52350,-77614,-71512
653329287532561010,-52393,-77645,-71484
653329287539995705,-52239,-77586,-71494
653329287547430400,-52300,-77621,-71547
653329287554865097,-52445,-77768,-71369
653329287562299792,-52410,-77706,-71444
653329287569734487,-52367,-77610,-71307
653329287577169182,-52275,-77630,-71495
653329287584603877,-51850,-76581,-70536
653329287592038572,-52139,-77068,-71115
653329287599473267,-52218,-77345,-71343
653329287606907962,-52163,-77633,-71506
653329287614342657,-51233,-77232,-70458
653329287621777352,-51723,-77401,-71047
653329287629212047,-52051,-77466,-71385
653329287636646742,-52208,-77570,-71507
653329287644081437,-52407,-77565,-71637
653329287651516132,-52300,-77577,-71483
653329287658950827,-52300,-77566,-71451
653329287666385522,-52445,-77613,-71598
653329287673820217,-52443,-77674,-71610
653329287681254912,-52342,-77607,-71674
653329287688689609,-52374,-77714,-71752
653329287696124304,-52522,-77610,-71709
653329287703558999,-52422,-77659,-71551
653329287710993694,-52384,-77517,-71477
653329287718428389,-52291,-77461,-71568
653329287725863084,-52236,-77530,-71594
653329287733297779,-52067,-77290,-71447
653329287740732474,-52195,-77351,-71540
653329287748167169,-52346,-77514,-71561
653329287755601864,-52342,-77460,-71569
653329287763036559,-52200,-77381,-71464
653329287770471254,-52252,-77445,-71548
653329287777905949,-52203,-77403,-71502
653329287785340644,-52284,-77396,-71618
653329287792775339,-52159,-77428,-71570
653329287800210034,-52151,-77441,-71537
653329287807644729,-52228,-77457,-71548
653329287815079424,-52506,-77372,-71863
653329287822452224,-52539,-77369,-71833
653329287829890560,-52273,-77320,-71649
653329287837328896,-52271,-77350,-71569
653329287844767232,-52340,-77201,-71591
653329287852205568,-52292,-77229,-71480
653329287859643904,-52227,-77308,-71648
653329287867082240,-52422,-77258,-71700
653329287874520576,-52265,-77298,-71577
653329287881958912,-52197,-77324,-71535
653329287889397248,-52266,-77219,-71490
653329287896835584,-52209,-77142,-71506
653329287904273920,-52100,-76073,-70356
653329287911712256,-52130,-76754,-70996
653329287919150592,-52058,-76831,-71244
653329287926588928,-52118,-76961,-71378
653329287934027264,-50930,-75960,-70357
653329287941465600,-51644,-76570,-70992
653329287948903936,-51894,-76811,-71232
653329287956342272,-52085,-77013,-71165
653329287963780608,-51408,-77019,-71315
653329287971218944,-51657,-77025,-71349
653329287978657280,-51772,-76951,-71268
653329287986095616,-52113,-76993,-71398
653329287993533952,-52049,-77023,-71535
653329288000972288,-52020,-76922,-71377
653329288008410624,-52056,-76855,-71377
653329288015848960,-52068,-76920,-71399
653329288023287296,-52092,-76942,-71529
653329288030725632,-52101,-76943,-71316
653329288038163968,-52140,-76894,-71318
653329288045602304,-52045,-77007,-71356
653329288053040640,-51998,-76788,-71166
653329288060478976,-52019,-76810,-71269
653329288067917312,-51968,-76809,-71331
653329288075355648,-52009,-76754,-71328
653329288082793984,-51885,-76677,-71253
653329288090356114,-52067,-76485,-71226
653329288097787168,-52020,-76704,-71195
653329288105218222,-52074,-76842,-71276
653329288112649276,-51945,-76825,-71342
653329288120080330,-51942,-76799,-71389
653329288127511384,-51954,-76870,-71438
653329288134942438,-52066,-77012,-71458
653329288142373492,-52176,-76986,-71421
653329288149804546,-52109,-76937,-71422
653329288157235600,-52194,-76985,-71480
653329288164666654,-52229,-77002,-71546
653329288172097708,-52288,-76962,-71544
653329288179528762,-52268,-76973,-71452
653329288186959816,-52347,-76980,-71601
653329288194390870,-52371,-77000,-71700
653329288201821924,-52328,-77032,-71682
653329288209252978,-52351,-77102,-71820
653329288216684032,-52455,-77237,-71639
653329288223991296,-52201,-75950,-70847
653329288231429632,-52293,-76575,-71301
653329288238867968,-52465,-76884,-71540
653329288246306304,-52539,-77172,-71687
653329288253744640,-51475,-76176,-70785
653329288261182976,-52046,-76735,-71339
653329288268621312,-52344,-77000,-71653
653329288276059648,-52564,-77248,-71882
653329288283497984,-51674,-77303,-72029
653329288290936320,-52218,-77244,-72030
653329288298374656,-52528,-77256,-72075
653329288305812992,-52638,-77218,-72120
653329288313251328,-52679,-77271,-72061
653329288320689664,-52771,-77268,-72133
6.53329E+17,-52757,-77296,-72149
653329288335566336,-52789,-77480,-72196
653329288343004672,-52794,-77372,-72138
653329288350443008,-52822,-77302,-72175
653329288357943241,-52646,-77350,-72343
653329288365377936,-52834,-77469,-72418
653329288372812631,-52887,-77205,-72118
653329288380247326,-52921,-77309,-72171
653329288387682021,-53000,-77377,-72263
653329288395116716,-52982,-77441,-72362
653329288402551411,-52777,-77324,-72085
653329288409986106,-52716,-77259,-72062
653329288417420801,-52809,-77306,-72232
653329288424855496,-52891,-77298,-72291
653329288432290191,-52767,-77245,-72194
653329288439724886,-52853,-77315,-72345
653329288447159581,-52915,-77373,-72259
653329288454594276,-52869,-77348,-72360
653329288462028971,-52923,-77401,-72293
653329288469463666,-52925,-77383,-72361
653329288476898361,-52933,-77478,-72328
653329288484333056,-52869,-77471,-72358
653329288491767753,-52908,-77370,-72033
653329288499202448,-52914,-77369,-72183
653329288506637143,-52872,-77358,-72342
653329288514071838,-52877,-77386,-72281
653329288521506533,-52869,-77321,-72284
653329288528941228,-52854,-77249,-72299
653329288536375923,-52832,-77321,-72274
653329288543810618,-52941,-76272,-71979
653329288551245313,-52799,-76755,-72066
653329288558680008,-52901,-77063,-72137
653329288566114703,-53011,-77236,-72249
653329288573549398,-52016,-76264,-71293
653329288580984093,-52582,-76757,-71856
653329288588418788,-52863,-77012,-72147
653329288595853483,-52819,-77236,-72228
653329288603288178,-51805,-77201,-72256
653329288610722873,-52274,-77234,-72277
653329288618157568,-52681,-77305,-72239
653329288625530368,-52593,-77259,-72106
653329288632968704,-52769,-77254,-72239
653329288640407040,-52770,-77108,-72259
653329288647845376,-52714,-77139,-72286
653329288655283712,-52945,-77247,-72307
653329288662722048,-52900,-77196,-72350
653329288670160384,-52885,-77143,-72301
653329288677598720,-52922,-77136,-72350
653329288685037056,-53148,-77365,-72330
653329288692475392,-53065,-77167,-72190
653329288699913728,-52920,-77211,-72235
653329288707352064,-52952,-77088,-72321
653329288714790400,-52975,-77088,-72289
653329288722228736,-52843,-76952,-72294
653329288729667072,-52907,-77029,-72282
653329288737105408,-52982,-77069,-72418
653329288744543744,-52808,-77069,-72314
653329288751982080,-52746,-77096,-72318
653329288759544210,-52706,-77015,-71943
653329288766975264,-52869,-77165,-72069
653329288774406318,-52850,-77157,-72205
653329288781837372,-52848,-77049,-72166
653329288789268426,-52970,-77010,-72228
653329288796699480,-52851,-77183,-72286
653329288804130534,-52968,-77131,-72376
653329288811561588,-52828,-76997,-72220
653329288818992642,-52680,-77009,-72252
653329288826423696,-52720,-76907,-72174
653329288833854750,-52743,-76869,-72243
653329288841285804,-52680,-76741,-72146
653329288848716858,-52685,-76789,-72101
653329288856147912,-52764,-76841,-72136
653329288863578966,-52777,-75785,-72066
653329288871010020,-52700,-76274,-72085
653329288878441074,-52784,-76542,-72055
653329288885872128,-52745,-76735,-72199
653329288893241289,-51971,-75666,-71125
653329288900675984,-52272,-76190,-71728
653329288908110679,-52580,-76444,-71864
653329288915545374,-52621,-76632,-72133
653329288922980069,-51653,-76604,-72186
653329288930414764,-52373,-76639,-72051
653329288937849459,-52613,-76676,-72065
653329288945284154,-52688,-76667,-72115
653329288952718849,-52831,-76825,-72045
653329288960153544,-52661,-76758,-72094
653329288967588239,-52711,-76799,-72065
653329288975022934,-52839,-76788,-72275
653329288982457629,-52743,-76610,-72222
653329288989892324,-52716,-76722,-72270
653329288997327019,-52858,-76724,-72270
653329289004761714,-52937,-76765,-72299
653329289012196409,-52875,-76657,-72160
653329289019631104,-52825,-76708,-72130
653329289027003904,-52825,-76450,-72412
653329289034442240,-53079,-76861,-72368
653329289041880576,-52863,-76780,-72229
653329289049318912,-52894,-76778,-72239
653329289056757248,-52928,-76933,-72437
653329289064195584,-52961,-76944,-72467
653329289071633920,-52852,-76894,-72442
653329289079072256,-52989,-76838,-72420
653329289086510592,-53111,-76872,-72548
653329289093948928,-53095,-76772,-72556
653329289101387264,-53038,-76899,-72403
653329289108825600,-53068,-76897,-72523
653329289116263936,-53038,-76911,-72524
653329289123702272,-53142,-76946,-72425
653329289131140608,-53116,-77048,-72373
653329289138578944,-53210,-76952,-72424
653329289146017280,-53289,-76932,-72625
653329289153455616,-53199,-76843,-72676
653329289160955849,-53404,-76921,-72391
653329289168390544,-53384,-77062,-72515
653329289175825239,-53286,-76977,-72525
653329289183259934,-53226,-76147,-72627
653329289190694629,-53174,-76530,-72499
653329289198129324,-53119,-76768,-72505
653329289205564019,-53289,-77040,-72666
653329289212998714,-52308,-76019,-71710
653329289220433409,-52688,-76485,-72110
653329289227868104,-53018,-76707,-72293
653329289235302799,-53084,-76921,-72537
653329289242737494,-52131,-76912,-71909
653329289250172189,-52603,-76914,-72149
653329289257606884,-53007,-76856,-72498
653329289265041579,-53123,-76822,-72523
653329289272476274,-53210,-76941,-72491
653329289279910969,-53123,-76875,-72460
653329289287345664,-53197,-76865,-72553
653329289294718464,-53067,-76981,-72569
653329289302156800,-53187,-76954,-72462
653329289309595136,-53340,-76916,-72508
653329289317033472,-53307,-76886,-72469
653329289324471808,-53309,-76964,-72514
653329289331910144,-53368,-76604,-72472
653329289339348480,-53176,-76809,-72541
653329289346786816,-53352,-76737,-72582
653329289354225152,-53297,-76888,-72564
653329289361663488,-53172,-76658,-72380
653329289369101824,-53171,-76661,-72474
653329289376540160,-53056,-76695,-72546
653329289383978496,-53042,-76642,-72436
653329289391416832,-52669,-76669,-72420
653329289398855168,-52953,-76642,-72358
653329289406293504,-52942,-76648,-72426
653329289413731840,-53072,-76641,-72327
653329289421170176,-52991,-76624,-72437
653329289428732306,-53060,-76590,-72257
653329289436163360,-53037,-76569,-72263
653329289443594414,-52899,-76563,-72285
653329289451025468,-52887,-76521,-72255
653329289458456522,-52828,-76466,-72301
653329289465887576,-52876,-76469,-72229
653329289473318630,-52763,-76479,-72166
653329289480749684,-52866,-76463,-72162
653329289488180738,-52729,-76458,-72144
653329289495611792,-52866,-76465,-72104
653329289503042846,-52773,-76427,-72072
653329289510473900,-52748,-76375,-72087
653329289517904954,-52669,-76311,-72053
653329289525336008,-52736,-76409,-72116
653329289532767062,-52036,-75170,-71153
653329289540198116,-52343,-75778,-71674
653329289547629170,-52504,-76175,-71815
653329289555060224,-52644,-76155,-72079
653329289562429385,-51393,-76058,-71044
653329289569864080,-52055,-76199,-71535
653329289577298775,-52369,-76202,-71803
653329289584733470,-52433,-76224,-71932
653329289592168165,-52438,-76152,-71950
653329289599602860,-52389,-75993,-71881
653329289607037555,-52518,-76022,-72010
653329289614472250,-52601,-76187,-71871
653329289621906945,-52455,-76093,-71871
653329289629341640,-52438,-76124,-71762
653329289636776335,-52541,-76121,-71761
653329289644211030,-52408,-76086,-71848
653329289651645725,-52423,-75851,-71839
653329289659080420,-52404,-75850,-71773
653329289666515115,-52441,-75953,-71817
653329289673949810,-52538,-75818,-71782
653329289681384505,-52150,-75690,-71589
653329289688819200,-52241,-75734,-71748
6.53329E+17,-52150,-75618,-71710
653329289703630336,-52283,-75689,-71577
653329289711068672,-52113,-75703,-71504
653329289718507008,-52193,-75800,-71458
653329289725945344,-52262,-75751,-71595
653329289733383680,-52227,-75646,-71616
653329289740822016,-52146,-75618,-71578
653329289748260352,-52072,-75606,-71512
653329289755698688,-52207,-75625,-71521
653329289763137024,-52140,-75553,-71479
653329289770575360,-52143,-75552,-71283
653329289778013696,-52156,-75540,-71469
653329289785452032,-52119,-75575,-71404
653329289792890368,-52068,-75499,-71328
653329289800328704,-51948,-75430,-71281
653329289807767040,-52049,-75481,-71334
653329289815205376,-51796,-75798,-71574
653329289822643712,-51839,-75630,-71431
653329289830082048,-52118,-75559,-71381
653329289837520384,-52078,-75643,-71415
653329289844958720,-52174,-75625,-71395
653329289852397056,-52004,-74626,-70269
653329289859835392,-51987,-75238,-70966
653329289867273728,-52036,-75376,-71262
653329289874712064,-52192,-75603,-71388
653329289882150400,-50954,-75087,-70335
653329289889588736,-51621,-75306,-71000
653329289897027072,-51997,-75573,-71210
653329289904465408,-52111,-75646,-71422
653329289911903744,-52052,-75643,-71495
653329289919342080,-52049,-75541,-71466
653329289926780416,-52176,-75525,-71553
653329289934218752,-52215,-75496,-71415
653329289941657088,-52152,-75501,-71449
653329289949095424,-52156,-75426,-71430
653329289956533760,-52208,-75489,-71483
653329289964033993,-51935,-75300,-71555
653329289971468688,-51907,-75246,-71502
653329289978903383,-52018,-75405,-71454
653329289986338078,-52294,-75516,-71570
653329289993772773,-52295,-75607,-71517
653329290001207468,-52106,-75577,-71395
653329290008642163,-52239,-75550,-71349
653329290016076858,-52235,-75663,-71446
653329290023511553,-52161,-75566,-71338
653329290030946248,-51955,-75400,-71190
653329290038380943,-52041,-75516,-71388
653329290045815638,-51955,-75538,-71286
653329290053250333,-52030,-75482,-71451
653329290060685028,-51982,-75449,-71312
653329290068119723,-51945,-75457,-71378
653329290075554418,-52062,-75422,-71386
653329290082989113,-51950,-75417,-71312
653329290090423808,-51840,-75243,-71241
653329290097920402,-51804,-75543,-71066
653329290105351456,-51915,-75492,-71136
653329290112782510,-51939,-75479,-71168
653329290120213564,-51881,-75337,-71138
653329290127644618,-51789,-75297,-71145
653329290135075672,-51927,-75228,-71200
653329290142506726,-51847,-75295,-71125
653329290149937780,-51922,-75240,-71095
653329290157368834,-51973,-75357,-71048
653329290164799888,-51775,-75292,-71137
653329290172230942,-51670,-74227,-70071
653329290179661996,-51815,-74807,-70625
653329290187093050,-51771,-74994,-70973
653329290194524104,-51811,-75149,-71079
653329290201955158,-50702,-74584,-69991
653329290209386212,-51188,-74934,-70566
653329290216817266,-51597,-75051,-70903
653329290224248320,-51639,-74987,-71007
653329290231555584,-51548,-75016,-71108
653329290238993920,-51600,-74993,-70952
653329290246432256,-51705,-75057,-71007
653329290253870592,-51723,-75005,-70887
653329290261308928,-51589,-74973,-70830
653329290268747264,-51492,-74851,-70729
653329290276185600,-51648,-74924,-70780
653329290283623936,-51468,-74834,-70696
653329290291062272,-51463,-74850,-70656
653329290298500608,-51508,-74796,-70715
653329290305938944,-51503,-74726,-70749
653329290313377280,-51342,-74614,-70604
653329290320815616,-51209,-74486,-70502
653329290328253952,-51317,-74704,-70543
653329290335692288,-51388,-74705,-70595
653329290343130624,-51372,-74539,-70502
653329290350568960,-51177,-74603,-70392
653329290358007296,-51278,-74576,-70525
653329290365507529,-51365,-74581,-70610
653329290372942224,-51126,-74529,-70499
653329290380376919,-51137,-74549,-70456
653329290387811614,-51190,-74436,-70444
653329290395246309,-51096,-74383,-70379
653329290402681004,-51079,-74325,-70403
653329290410115699,-51096,-74383,-70409
653329290417550394,-51086,-74483,-70310
653329290424985089,-51166,-74333,-70246
653329290432419784,-50986,-74220,-70274
653329290439854479,-50982,-74266,-70170
653329290447289174,-50906,-74296,-70167
653329290454723869,-50874,-74298,-70095
653329290462158564,-50961,-74154,-70174
653329290469593259,-50827,-74101,-70126
653329290477027954,-50838,-74146,-70036
653329290484462649,-50866,-74150,-70093
653329290491897344,-50692,-73000,-68954
653329290499270144,-50369,-73800,-69183
653329290506708480,-50657,-73885,-69655
653329290514146816,-50636,-74027,-69789
653329290521585152,-49604,-72958,-68752
653329290529023488,-50198,-73572,-69335
653329290536461824,-50551,-73841,-69683
653329290543900160,-50487,-73906,-69738
653329290551338496,-49965,-73851,-69682
653329290558776832,-50303,-73816,-69752
653329290566215168,-50496,-73755,-69667
653329290573653504,-50488,-73708,-69671
653329290581091840,-50396,-73715,-69609
653329290588530176,-50423,-73689,-69618
653329290595968512,-50464,-73787,-69642
653329290603406848,-50371,-73785,-69550
653329290610845184,-50428,-73678,-69430
653329290618283520,-50347,-73749,-69434
653329290625721856,-50487,-73742,-69474
653329290633283986,-50555,-73791,-69470
653329290640715040,-50478,-73676,-69359
653329290648146094,-50433,-73676,-69488
653329290655577148,-50478,-73762,-69620
653329290663008202,-50435,-73826,-69653
653329290670439256,-50320,-73810,-69529
653329290677870310,-50534,-73808,-69636
653329290685301364,-50619,-73862,-69633
653329290692732418,-50624,-73762,-69608
653329290700163472,-50633,-73767,-69585
653329290707594526,-50594,-73770,-69700
653329290715025580,-50610,-73792,-69775
653329290722456634,-50595,-73784,-69720
653329290729887688,-50547,-73871,-69658
653329290737318742,-50605,-73913,-69748
653329290744749796,-50666,-73824,-69684
653329290752180850,-50680,-73790,-69767
653329290759611904,-50719,-73759,-69683
653329290766981065,-50470,-74027,-69590
653329290774415760,-50579,-73923,-69596
653329290781850455,-50561,-73875,-69728
653329290789285150,-50586,-73908,-69686
653329290796719845,-50596,-73838,-69795
653329290804154540,-50685,-73704,-69803
653329290811589235,-50577,-72731,-68671
653329290819023930,-50637,-73275,-69164
653329290826458625,-50683,-73585,-69513
653329290833893320,-50632,-73732,-69692
653329290841328015,-49565,-72712,-68592
653329290848762710,-50064,-73190,-69210
653329290856197405,-50354,-73534,-69601
653329290863632100,-50567,-73678,-69638
653329290871066795,-49576,-73680,-69613
653329290878501490,-50235,-73723,-69598
653329290885936185,-50527,-73760,-69827
653329290893370880,-50566,-73770,-69896
653329290900681800,-50943,-73852,-69724
653329290908123776,-50809,-73856,-69793
653329290915565752,-50798,-73874,-69746
653329290923007728,-50748,-73856,-69711
653329290930449704,-50693,-73851,-69733
653329290937891680,-50695,-73889,-69796
653329290945333656,-50881,-73992,-69847
653329290952775632,-50704,-73894,-69763
653329290960217608,-50676,-73665,-69714
653329290967659584,-50650,-73796,-69745
653329290975101560,-50729,-73835,-69761
653329290982543536,-50792,-73717,-69790
653329290989985512,-50437,-73658,-69600
653329290997427488,-50647,-73817,-69639
653329291004869464,-50783,-73894,-69691
653329291012311440,-50670,-73862,-69642
653329291019753416,-50661,-73765,-69677
653329291027195392,-50766,-73926,-69758
653329291034823058,-51112,-73877,-69905
653329291042254112,-50794,-73791,-69760
653329291049685166,-50725,-73745,-69823
653329291057116220,-50701,-73699,-69817
653329291064547274,-50757,-73631,-69782
653329291071978328,-50668,-73742,-69767
653329291079409382,-50737,-73635,-69723
653329291086840436,-50749,-73740,-69766
653329291094271490,-50689,-73645,-69761
653329291101702544,-50771,-73655,-69803
653329291109133598,-50645,-73589,-69642
653329291116564652,-50666,-73651,-69799
653329291123995706,-50625,-73533,-69632
653329291131426760,-50572,-72575,-68924
653329291138857814,-50600,-73101,-69333
653329291146288868,-50556,-73391,-69579
653329291153719922,-50612,-73403,-69564
653329291161150976,-49541,-72515,-68543
653329291168458240,-50177,-72784,-69359
653329291175896576,-50514,-73210,-69471
653329291183334912,-50578,-73393,-69541
653329291190773248,-49494,-73519,-69536
653329291198211584,-50016,-73481,-69589
653329291205649920,-50350,-73485,-69641
653329291213088256,-50410,-73388,-69568
653329291220526592,-50528,-73361,-69627
653329291227964928,-50465,-73432,-69613
653329291235403264,-50419,-73516,-69424
653329291242841600,-50446,-73508,-69602
653329291250279936,-50550,-73366,-69524
653329291257718272,-50517,-73343,-69590
653329291265156608,-50542,-73416,-69600
653329291272594944,-50346,-73314,-69467
653329291280033280,-50528,-73118,-69260
653329291287471616,-50514,-73198,-69506
653329291294909952,-50457,-73397,-69547
653329291302410185,-50237,-73161,-69521
653329291309844880,-50139,-73079,-69427
653329291317279575,-50322,-73141,-69374
653329291324714270,-50432,-73240,-69430
653329291332148965,-50465,-73211,-69410
653329291339583660,-50160,-73292,-69428
653329291347018355,-50260,-73228,-69396
653329291354453050,-50349,-73159,-69176
653329291361887745,-50423,-73049,-69151
653329291369322440,-50308,-73235,-69302
653329291376757135,-50379,-73397,-69172
653329291384191830,-50411,-73223,-69195
653329291391626525,-50277,-73237,-69252
653329291399061220,-50156,-73134,-69306
653329291406495915,-50256,-73092,-69305
653329291413930610,-50227,-73134,-69195
653329291421365305,-50261,-73123,-69181
6.53329E+17,-50269,-73139,-69184
653329291436234697,-50478,-73173,-68975
653329291443669392,-50392,-73153,-69127
653329291451104087,-50246,-72103,-69140
653329291458538782,-50362,-72682,-69179
653329291465973477,-50393,-73072,-69317
653329291473408172,-50378,-73073,-69399
653329291480842867,-49208,-72089,-68231
653329291488277562,-49883,-72769,-68989
653329291495712257,-50239,-73164,-69233
653329291503146952,-50374,-73226,-69320
653329291510581647,-49522,-73267,-69389
653329291518016342,-50087,-73366,-69542
653329291525451037,-50420,-73317,-69493
653329291532885732,-50516,-73393,-69594
653329291540320427,-50571,-73445,-69598
653329291547755122,-50571,-73474,-69624
653329291555189817,-50688,-73476,-69637
653329291562624512,-50672,-73466,-69646
653329291570059209,-50928,-73535,-69672
653329291577493904,-50917,-73728,-69759
653329291584928599,-50896,-73579,-69764
653329291592363294,-50855,-73554,-69800
653329291599797989,-50958,-73433,-69764
653329291607232684,-51029,-73595,-69774
653329291614667379,-51089,-73589,-69873
653329291622102074,-51106,-73642,-69857
653329291629536769,-50911,-73576,-69810
653329291636971464,-50976,-73654,-69915
653329291644406159,-50908,-73681,-69932
653329291651840854,-50959,-73624,-69949
653329291659275549,-50844,-73577,-69915
653329291666710244,-50909,-73692,-69921
653329291674144939,-51080,-73632,-70090
653329291681579634,-51181,-73574,-70099
653329291689014329,-51184,-73634,-70102
653329291696449024,-51218,-73664,-70215
653329291703883721,-51154,-73684,-70252
653329291711318416,-51115,-73731,-70130
653329291718753111,-51002,-73733,-70105
653329291726187806,-50954,-73787,-70065
653329291733622501,-51073,-73680,-69983
653329291741057196,-51114,-73749,-69978
653329291748491891,-51174,-73794,-70071
653329291755926586,-51207,-73699,-70123
653329291763361281,-51183,-73761,-70083
653329291770795976,-51130,-73390,-70015
653329291778230671,-51152,-73591,-69971
653329291785665366,-51262,-73752,-70138
653329291793100061,-51287,-73742,-70154
653329291800534756,-50214,-72753,-69151
653329291807969451,-50890,-73377,-69816
653329291815404146,-51134,-73658,-69995
653329291822838841,-51154,-73633,-69999
653329291830273536,-50223,-73653,-69144
653329291837646336,-50824,-73753,-69502
653329291845084672,-51068,-73699,-69862
653329291852523008,-51130,-73722,-70016
653329291859961344,-51126,-73766,-70088
653329291867399680,-51195,-73774,-70114
653329291874838016,-51231,-73829,-70171
653329291882276352,-51244,-73656,-70065
653329291889714688,-51323,-73669,-70082
653329291897153024,-51300,-73789,-70168
653329291904591360,-51320,-73783,-70099
653329291912029696,-51239,-73730,-70044
653329291919468032,-51260,-73582,-70117
653329291926906368,-51236,-73695,-70300
653329291934344704,-51174,-73786,-70179
653329291941783040,-51195,-73671,-70154
653329291949221376,-51177,-73559,-70238
653329291956659712,-51186,-73685,-70184
653329291964098048,-51269,-73775,-70083
653329291971598281,-51108,-73802,-70106
653329291979032976,-50924,-73657,-70020
653329291986467671,-51174,-73829,-70206
653329291993902366,-51184,-73699,-70074
653329292001337061,-51246,-73578,-70037
653329292008771756,-51211,-73724,-70076
653329292016206451,-51310,-73743,-70175
653329292023641146,-51164,-73727,-70031
653329292031075841,-51143,-73647,-69971
653329292038510536,-51143,-73639,-70061
653329292045945231,-51311,-73625,-70096
653329292053379926,-51305,-73678,-70073
653329292060814621,-51170,-73614,-70087
653329292068249316,-51219,-73605,-69997
653329292075684011,-51273,-73619,-70127
653329292083118706,-51164,-73586,-70030
653329292090553401,-51089,-73503,-69961
653329292097988096,-51015,-73625,-70035
653329292105484690,-51328,-73688,-70154
653329292112915744,-51169,-73615,-70059
653329292120346798,-51013,-72616,-68966
653329292127777852,-51196,-73136,-69648
653329292135208906,-51214,-73360,-69899
653329292142639960,-51174,-73472,-69935
653329292150071014,-49993,-72609,-68901
653329292157502068,-50674,-73099,-69590
653329292164933122,-50890,-73272,-69743
653329292172364176,-51020,-73533,-69922
653329292179795230,-51072,-73470,-69981
653329292187226284,-51123,-73300,-70025
653329292194657338,-51120,-73582,-69956
653329292202088392,-51047,-73531,-69879
653329292209519446,-51099,-73440,-69998
653329292216950500,-51080,-73445,-70067
653329292224381554,-51003,-73426,-69966
653329292231812608,-51033,-73449,-69932
653329292239057992,-51284,-73212,-70158
653329292246499968,-51234,-73359,-70056
653329292253941944,-51178,-73434,-70073
653329292261383920,-51076,-73375,-69888
653329292268825896,-50988,-73239,-69928
653329292276267872,-51047,-73389,-70018
653329292283709848,-51135,-73411,-70038
653329292291151824,-51202,-73461,-70147
653329292298593800,-51140,-73528,-69990
653329292306035776,-51258,-73564,-70125
653329292313477752,-51261,-73748,-70141
653329292320919728,-51239,-73638,-70025
653329292328361704,-51434,-73710,-70131
653329292335803680,-51483,-73771,-70288
653329292343245656,-51495,-73692,-70303
653329292350687632,-51511,-73872,-70394
653329292358129608,-51621,-73762,-70422
653329292365571584,-51590,-73871,-70364
653329292373137353,-51914,-73987,-70196
653329292380572048,-51725,-74025,-70430
653329292388006743,-51681,-74047,-70508
653329292395441438,-51777,-73963,-70585
653329292402876133,-51758,-73874,-70501
653329292410310828,-51729,-73929,-70522
653329292417745523,-51687,-74062,-70597
653329292425180218,-51763,-74137,-70612
653329292432614913,-51873,-74065,-70673
653329292440049608,-51759,-73072,-69618
653329292447484303,-51851,-73820,-70196
653329292454918998,-51830,-74042,-70563
653329292462353693,-51857,-73992,-70655
653329292469788388,-50854,-73106,-69727
653329292477223083,-51340,-73675,-70293
653329292484657778,-51670,-73910,-70546
653329292492092473,-51758,-74150,-70654
653329292499527168,-51092,-74239,-70702
653329292506899968,-51419,-73900,-70647
653329292514338304,-51761,-74133,-70884
653329292521776640,-51921,-74149,-70886
653329292529214976,-52032,-74195,-70918
653329292536653312,-52047,-74188,-70974
653329292544091648,-52118,-74187,-70805
653329292551529984,-52176,-74242,-70806
653329292558968320,-52036,-74198,-70755
653329292566406656,-52112,-74168,-70836
653329292573844992,-52077,-74145,-70881
653329292581283328,-52031,-74148,-70940
653329292588721664,-52140,-74081,-70841
6.53329E+17,-52242,-74220,-70970
653329292603598336,-52185,-74213,-70988
653329292611036672,-52259,-74225,-71004
653329292618475008,-52073,-74164,-70804
653329292625913344,-52129,-74241,-71014
653329292633351680,-52278,-74163,-70979
653329292640913810,-52395,-74027,-70872
653329292648344864,-52326,-74266,-71031
653329292655775918,-52307,-74254,-71100
653329292663206972,-52410,-74246,-71128
653329292670638026,-52199,-74173,-71006
653329292678069080,-52337,-74302,-71059
653329292685500134,-52307,-74283,-71094
653329292692931188,-52361,-74273,-71085
653329292700362242,-52254,-74225,-71060
653329292707793296,-52253,-74331,-71112
653329292715224350,-52229,-74301,-71006
653329292722655404,-52267,-74249,-71123
653329292730086458,-52151,-74245,-71073
653329292737517512,-52184,-74348,-70990
653329292744948566,-52163,-74318,-70939
653329292752379620,-52178,-74228,-70915
653329292759810674,-52202,-73210,-70011
653329292767241728,-52268,-73868,-70631
653329292774548992,-52252,-74177,-70889
653329292781987328,-52237,-74227,-71028
653329292789425664,-51148,-73156,-70010
6.53329E+17,-51926,-73787,-70614
653329292804302336,-52034,-74168,-70784
653329292811740672,-52203,-74302,-70834
653329292819179008,-51239,-74212,-70907
653329292826617344,-51800,-74244,-70935
653329292834055680,-51986,-74268,-71043
653329292841494016,-52068,-74107,-70957
653329292848932352,-52138,-74038,-70897
653329292856370688,-52224,-74267,-70902
653329292863809024,-52078,-74215,-70943
653329292871247360,-52033,-74145,-70886
653329292878685696,-52080,-74135,-70815
653329292886124032,-52117,-74120,-70908
653329292893562368,-52011,-74160,-70786
653329292901000704,-51968,-74081,-70804
653329292908500937,-51764,-74050,-70573
653329292915935632,-51986,-74057,-70689
653329292923370327,-51845,-73968,-70660
653329292930805022,-51827,-73909,-70583
653329292938239717,-51849,-73813,-70539
653329292945674412,-51918,-73891,-70631
653329292953109107,-51839,-73932,-70631
653329292960543802,-51804,-73906,-70742
653329292967978497,-51892,-73905,-70720
653329292975413192,-51847,-73889,-70727
653329292982847887,-51751,-73777,-70612
653329292990282582,-51702,-73929,-70621
653329292997717277,-51851,-73856,-70476
653329293005151972,-51836,-73883,-70546
653329293012586667,-51805,-73791,-70506
653329293020021362,-51744,-73790,-70458
653329293027456057,-51729,-73808,-70480
653329293034890752,-51749,-73723,-70425
653329293042387346,-51754,-73630,-70402
653329293049818400,-51715,-73657,-70399
653329293057249454,-51709,-73730,-70332
653329293064680508,-51608,-73758,-70341
653329293072111562,-51605,-73680,-70319
653329293079542616,-51585,-72643,-69400
653329293086973670,-51566,-73330,-70014
653329293094404724,-51441,-73432,-70221
653329293101835778,-51467,-73461,-70266
653329293109266832,-50482,-72513,-69323
653329293116697886,-51193,-73244,-69931
653329293124128940,-51324,-73477,-70132
653329293131559994,-51536,-73616,-70134
653329293138991048,-50548,-73864,-70213
653329293146422102,-51265,-73927,-70360
653329293153853156,-51435,-73802,-70404
653329293161284210,-51648,-73864,-70322
653329293168715264,-51679,-73913,-70430
653329293175960648,-51846,-74086,-70475
653329293183402624,-51699,-73926,-70370
653329293190844600,-51683,-73870,-70383
653329293198286576,-51705,-73924,-70312
653329293205728552,-51703,-73945,-70356
653329293213170528,-51807,-73786,-70307
653329293220612504,-51862,-73961,-70429
653329293228054480,-51851,-73860,-70332
653329293235496456,-51997,-73926,-70536
653329293242938432,-51787,-73905,-70531
653329293250380408,-51753,-73888,-70525
653329293257822384,-51686,-73866,-70424
653329293265264360,-51704,-74007,-70518
653329293272706336,-51741,-73892,-70603
653329293280148312,-51816,-73921,-70431
653329293287590288,-51680,-73983,-70547
653329293295032264,-51768,-73991,-70506
653329293302474240,-51857,-73862,-70513
653329293309978112,-51835,-74064,-70358
653329293317416448,-51942,-74071,-70486
653329293324854784,-51887,-73914,-70512
653329293332293120,-51772,-73957,-70469
653329293339731456,-51751,-73888,-70393
653329293347169792,-51759,-74017,-70488
653329293354608128,-51733,-73917,-70438
653329293362046464,-51717,-73853,-70433
653329293369484800,-51677,-73930,-70452
653329293376923136,-51613,-73972,-70417
653329293384361472,-51804,-73972,-70410
653329293391799808,-51695,-73869,-70272
653329293399238144,-51614,-72797,-70252
653329293406676480,-51699,-73462,-70388
653329293414114816,-51745,-73724,-70302
653329293421553152,-51636,-73719,-70218
653329293428991488,-50610,-72804,-69186
653329293436429824,-51132,-73385,-69873
653329293443991954,-51412,-73854,-70228
653329293451423008,-51463,-73754,-70187
653329293458854062,-50557,-73854,-70135
653329293466285116,-51099,-73829,-70179
653329293473716170,-51318,-73807,-70233
653329293481147224,-51420,-73868,-70254
653329293488578278,-51520,-73883,-70311
653329293496009332,-51613,-73897,-70252
653329293503440386,-51444,-73748,-70139
653329293510871440,-51541,-73783,-70152
653329293518302494,-51491,-73764,-70165
653329293525733548,-51446,-73751,-70225
653329293533164602,-51464,-73793,-70067
653329293540595656,-51542,-73705,-70017
653329293548026710,-51402,-73603,-69909
653329293555457764,-51379,-73627,-70039
653329293562888818,-51447,-73622,-69990
653329293570319872,-51486,-73604,-70002
653329293577689033,-51398,-73279,-69649
653329293585123728,-51366,-73526,-69831
653329293592558423,-51351,-73683,-69944
653329293599993118,-51395,-73549,-69881
653329293607427813,-51102,-73654,-69960
653329293614862508,-51075,-73610,-69940
653329293622297203,-51181,-73474,-69826
653329293629731898,-51246,-73455,-69820
653329293637166593,-51235,-73520,-69859
653329293644601288,-51192,-73388,-69820
653329293652035983,-51082,-73517,-69698
653329293659470678,-51013,-73382,-69687
653329293666905373,-51169,-73413,-69809
653329293674340068,-51017,-73346,-69706
653329293681774763,-50966,-73306,-69734
653329293689209458,-50911,-73338,-69699
653329293696644153,-51013,-73417,-69538
653329293704078848,-51088,-73393,-69618
653329293711451648,-51030,-73422,-69492
653329293718889984,-51030,-72438,-69510
653329293726328320,-50912,-72882,-69524
653329293733766656,-50879,-73006,-69549
653329293741204992,-50824,-73099,-69502
653329293748643328,-49793,-72098,-68453
653329293756081664,-50390,-72714,-69030
6.53329E+17,-50658,-72867,-69239
653329293770958336,-50804,-73064,-69225
653329293778396672,-49789,-73105,-68898
653329293785835008,-50350,-73276,-69143
653329293793273344,-50546,-73140,-69229
653329293800711680,-50567,-73102,-69304
