timestamp,ch1,ch2,ch3
653323346341351661,560824,473814,513108
653323346348788176,560747,473903,513098
653323346356224691,560814,473990,513258
653323346363661206,560953,473987,513279
653323346371097721,560901,474016,513402
653323346378534236,560936,474093,513447
653323346385970751,561097,473981,513525
653323346393407266,561066,474213,513633
653323346400843781,561219,474236,513744
653323346408280296,561297,474036,513743
653323346415716811,561399,474177,513719
653323346423153326,561605,474375,513905
653323346430589841,561639,474573,513930
653323346438026356,561740,474496,514067
653323346445462871,561889,474574,514169
653323346452899386,562007,474565,514145
653323346460335901,561868,474655,514256
653323346467772416,562156,474630,514395
653323346475208941,562453,474519,514034
653323346482645456,562387,474664,514290
653323346490081971,562359,474748,514537
653323346497518486,562365,474953,514627
653323346504955001,562573,474965,514742
653323346512391516,562529,474945,514865
653323346519828031,562666,475131,514964
653323346527264546,562752,475052,515031
653323346534701061,562792,475151,515033
653323346542137576,562947,475089,515144
653323346549574091,563161,475255,515307
653323346557010606,563092,475368,515195
653323346564447121,563416,475182,515350
653323346571883636,563253,475294,515451
653323346579320151,563227,475270,515519
653323346586756666,563282,475216,515495
653323346594193181,563183,475190,515411
653323346601629696,562944,475131,515171
653323346609097161,562814,475057,515078
653323346616531856,562736,474841,515051
653323346623966551,562411,474733,514889
653323346631401246,562299,474753,514921
653323346638835941,562291,474755,514664
653323346646270636,562120,474731,514439
653323346653705331,561985,474624,514381
653323346661140026,561903,474576,514267
653323346668574721,561558,474464,514124
653323346676009416,561518,474243,513905
653323346683444111,561353,474276,513751
653323346690878806,561205,474156,513633
653323346698313501,561100,474143,513478
653323346705748196,561033,474249,513384
653323346713182891,560863,474089,513288
653323346720617586,560584,473970,513113
653323346728052281,560455,473838,513016
653323346735486976,560429,473763,512858
653323346742890733,560501,473859,512608
653323346750327248,560384,473657,512672
653323346757763763,560196,473528,512566
653323346765200278,560034,473464,512433
653323346772636793,559918,473431,512256
653323346780073308,559687,473439,512270
653323346787509823,559610,473333,512230
653323346794946338,559458,473246,512007
653323346802382853,559402,473178,511962
653323346809819368,559537,473277,512038
653323346817255883,559388,473251,511927
653323346824692398,559325,473183,511882
653323346832128913,559428,473078,511752
653323346839565428,559450,473096,511867
653323346847001943,559507,473059,511855
653323346854438458,559540,473124,511804
653323346861874973,559446,473225,511916
653323346869311488,559357,473188,512076
653323346876748013,559146,473318,511762
653323346884184528,559259,473427,511814
653323346891621043,559389,473330,511870
653323346899057558,559506,473191,511849
653323346906494073,559362,473116,511680
653323346913930588,559366,473274,511794
653323346921367103,559329,473242,511900
653323346928803618,559381,473182,511895
653323346936240133,559423,473041,511801
653323346943676648,559516,473148,511892
653323346951113163,559504,473163,511734
653323346958549678,559380,473160,511907
653323346965986193,559352,473111,511816
653323346973422708,559389,473140,511791
653323346980859223,559451,473203,511815
653323346988295738,559467,473285,511957
653323346995732253,559398,473283,512004
653323347003168768,559418,473160,511812
653323347010605293,559838,472713,512109
653323347018041808,559794,473063,512124
653323347025478323,559843,473120,512122
653323347032914838,559762,473158,512020
653323347040351353,559835,473263,512048
653323347047787868,559828,473402,512183
653323347055224383,559915,473465,512048
653323347062660898,560063,473391,512230
653323347070097413,560035,473414,512273
653323347077533928,560162,473509,512392
653323347084970443,560164,473499,512367
653323347092406958,560180,473560,512408
653323347099843473,560155,473678,512447
653323347107279988,560279,473511,512503
653323347114716503,560278,473735,512577
653323347122153018,560384,473725,512634
653323347129589533,560520,473762,512782
653323347137026048,560642,473740,512867
653323347144493513,560767,473579,513074
653323347151928208,560812,473731,513010
653323347159362903,560841,473913,513010
653323347166797598,560896,474087,513169
653323347174232293,560901,474070,513099
653323347181666988,561057,474101,513184
653323347189101683,561113,474184,513251
653323347196536378,561298,474156,513315
653323347203971073,561364,474184,513389
653323347211405768,561302,474055,513493
653323347218840463,561460,474296,513596
653323347226275158,561479,474367,513685
653323347233709853,561567,474412,513683
653323347241144548,561666,474501,513715
653323347248579243,561808,474423,513734
653323347256013938,561903,474518,513990
653323347263448633,561974,474550,513979
653323347270883328,562016,474600,514120
653323347278287085,562267,474501,514280
653323347285723600,562235,474645,514310
653323347293160115,562373,474585,514385
653323347300596630,562452,474767,514445
653323347308033145,562443,474743,514523
653323347315469660,562582,474825,514560
653323347322906175,562523,475073,514590
653323347330342690,562514,474982,514573
653323347337779205,562629,474900,514653
653323347345215720,562593,474845,514637
653323347352652235,562666,474866,514637
653323347360088750,562490,474878,514625
653323347367525265,562487,474792,514559
653323347374961780,562265,474777,514470
653323347382398295,562092,474676,514339
653323347389834810,561997,474565,514074
653323347397271325,561852,474467,513838
653323347404707840,561489,474328,513859
653323347412175305,561279,474026,513517
6.53323E+17,561109,474126,513420
653323347427044695,561087,474045,513318
653323347434479390,560922,474106,513296
653323347441914085,560746,473975,513066
653323347449348780,560759,473867,513045
653323347456783475,560668,473724,512895
653323347464218170,560540,473673,512718
653323347471652865,560419,473708,512648
653323347479087560,560207,473594,512354
653323347486522255,560094,473457,512205
653323347493956950,559865,473412,512140
653323347501391645,559763,473253,512124
653323347508826340,559626,473219,512053
653323347516261035,559747,473040,512035
653323347523695730,559615,473081,511795
653323347531130425,559420,473026,511690
653323347538565120,559326,472945,511506
653323347545968877,559002,472607,511565
653323347553405392,559140,472806,511443
653323347560841907,559030,472824,511323
653323347568278422,558936,472812,511204
653323347575714937,558884,472757,511239
653323347583151452,558813,472710,511177
653323347590587967,559026,472764,511175
653323347598024482,559065,472725,511266
653323347605460997,559050,472657,511227
653323347612897512,559026,472759,511205
653323347620334027,559016,472825,511211
653323347627770542,558987,472716,511144
653323347635207057,559058,472670,511152
653323347642643572,559056,472758,511118
653323347650080087,558943,472643,511096
653323347657516602,558900,472614,511179
653323347664953117,558993,472550,511139
653323347672389632,558968,472662,511182
653323347679764260,559231,472794,511230
653323347687204416,558999,472734,511156
653323347694644572,559006,472679,511120
653323347702084728,559126,472775,511252
653323347709524884,559190,472726,511200
653323347716965040,559118,472774,511251
653323347724405196,559157,472667,511233
653323347731845352,559082,472618,511204
653323347739285508,559207,472532,511169
653323347746725664,559216,472677,511313
653323347754165820,559177,472752,511344
653323347761605976,559313,472722,511296
653323347769046132,559216,472848,511392
653323347776486288,559331,472769,511476
653323347783926444,559269,472791,511409
653323347791366600,559327,472885,511522
653323347798806756,559433,472882,511551
653323347806246912,559566,472898,511594
653323347813841810,559639,473059,511414
653323347821272864,559669,473007,511599
653323347828703918,559701,473138,511767
653323347836134972,559716,472953,511717
653323347843566026,559851,472960,511762
653323347850997080,559911,473033,511929
653323347858428134,559968,473111,512000
653323347865859188,560110,473199,512116
653323347873290242,560180,473277,512193
653323347880721296,560091,473337,512224
653323347888152350,560130,473354,512286
653323347895583404,560255,473296,512399
653323347903014458,560317,473239,512506
653323347910445512,560466,473464,512480
653323347917876566,560639,473571,512592
653323347925307620,560828,473548,512703
653323347932738674,560797,473584,512730
653323347940169728,560813,473682,512819
653323347947446052,560597,473664,512833
653323347954886208,560716,473627,512920
653323347962326364,561037,473787,513062
653323347969766520,561189,473797,513122
653323347977206676,561282,473742,513189
653323347984646832,561468,473868,513313
653323347992086988,561363,473960,513301
653323347999527144,561590,474013,513403
653323348006967300,561640,474121,513491
653323348014407456,561695,474098,513514
653323348021847612,561728,474239,513506
653323348029287768,561681,474166,513679
653323348036727924,561873,474262,513794
653323348044168080,562264,474243,514016
653323348051608236,562227,474349,514012
653323348059048392,562296,474539,514186
653323348066488548,562542,474521,514337
653323348073928704,562561,474469,514323
653323348081430765,562917,474633,514489
653323348088867280,562982,474649,514682
653323348096303795,562928,474800,514717
653323348103740310,562951,474907,514852
653323348111176825,563083,474927,514943
653323348118613340,563202,475072,514968
653323348126049855,563073,474952,514969
653323348133486370,563050,474978,515010
653323348140922885,563243,475029,515080
653323348148359400,563060,474987,514900
653323348155795915,562975,474839,514873
653323348163232430,562977,474764,514882
653323348170668945,562891,474742,514782
653323348178105460,562789,474661,514630
653323348185541975,562603,474637,514630
653323348192978490,562496,474441,514436
653323348200415005,562406,474398,514401
653323348207851520,562285,474340,514144
653323348215288045,562299,474002,514168
653323348222724560,561887,474006,513914
653323348230161075,561843,473913,513792
653323348237597590,561647,473822,513746
653323348245034105,561401,473712,513521
653323348252470620,561281,473635,513365
653323348259907135,561303,473661,513286
653323348267343650,561134,473555,513226
653323348274780165,561008,473612,513106
653323348282216680,560926,473518,512957
653323348289653195,560811,473417,512802
653323348297089710,560684,473220,512578
653323348304526225,560396,473162,512388
653323348311962740,560218,473078,512247
653323348319399255,560038,472966,512234
653323348326835770,560048,472897,512159
653323348334272285,559946,472811,512039
653323348341708800,559879,472725,512014
653323348349176265,559553,472778,511593
653323348356610960,559611,472708,511569
653323348364045655,559603,472640,511605
653323348371480350,559682,472456,511592
653323348378915045,559586,472338,511690
653323348386349740,559455,472274,511553
653323348393784435,559573,472313,511478
653323348401219130,559487,472394,511591
653323348408653825,559603,472355,511442
653323348416088520,559583,472364,511560
653323348423523215,559499,472577,511514
653323348430957910,559485,472496,511525
653323348438392605,559670,472506,511598
653323348445827300,559431,472411,511602
653323348453261995,559618,472375,511473
653323348460696690,559517,472364,511551
653323348468131385,559601,472272,511555
653323348475566080,559653,472422,511473
653323348482969837,559469,472248,511473
653323348490406352,559476,472393,511490
653323348497842867,559674,472384,511590
653323348505279382,559682,472523,511615
653323348512715897,559753,472591,511679
653323348520152412,559815,472539,511699
653323348527588927,559823,472599,511895
653323348535025442,559928,472366,511809
653323348542461957,559948,472478,511887
653323348549898472,560032,472453,511998
653323348557334987,560014,472475,512059
653323348564771502,559981,472598,511996
653323348572208017,560064,472675,512065
653323348579644532,560172,472706,512048
653323348587081047,560101,472728,512111
653323348594517562,560334,472672,512196
653323348601954077,560260,472756,512320
653323348609390592,560332,472831,512315
653323348616796160,560532,472687,512155
653323348624234496,560576,472907,512285
653323348631672832,560675,472915,512399
653323348639111168,560715,472965,512519
653323348646549504,560694,473020,512769
653323348653987840,560863,473181,512759
653323348661426176,560930,473143,512842
653323348668864512,561084,473269,513229
653323348676302848,561136,473359,513147
653323348683741184,561108,473395,513109
653323348691179520,561284,473406,513262
653323348698617856,561293,473564,513399
653323348706056192,561244,473506,513338
653323348713494528,561494,473520,513413
653323348720932864,561516,473637,513517
653323348728371200,561792,473632,513596
653323348735809536,561879,473725,513770
653323348743247872,561905,473785,513816
653323348750717165,562311,473840,513817
653323348758153680,562270,473876,513876
653323348765590195,562290,473963,514085
653323348773026710,562469,474101,514329
653323348780463225,562588,474240,514473
653323348787899740,562699,474109,514611
653323348795336255,562740,474143,514663
653323348802772770,562834,474159,514770
653323348810209285,562981,474286,514865
653323348817645800,562910,474424,515006
653323348825082315,562978,474514,514972
653323348832518830,563149,474624,515039
653323348839955345,563332,474734,515162
653323348847391860,563460,474632,515305
653323348854828375,563461,474705,515238
653323348862264890,563517,474756,515348
653323348869701405,563766,474959,515505
653323348877137920,563839,474863,515667
653323348884574445,564064,474712,515855
653323348892010960,564117,474822,516070
653323348899447475,564273,475110,516109
653323348906883990,564304,475253,516136
653323348914320505,564380,475329,516320
653323348921757020,564529,475387,516457
653323348929193535,564645,475471,516629
653323348936630050,564810,475483,516611
653323348944066565,564930,475563,516644
653323348951503080,564964,475678,516802
653323348958939595,565095,475773,516858
653323348966376110,565216,475719,517040
653323348973812625,565350,475849,517082
653323348981249140,565349,475844,517151
653323348988685655,565244,475849,517083
653323348996122170,565037,475770,517077
653323349003558685,564946,475615,516917
653323349010995200,564844,475486,516920
653323349018493622,564637,475728,516635
653323349025926496,564600,475589,516629
653323349033359370,564526,475405,516603
653323349040792244,564410,475216,516510
653323349048225118,564285,475267,516443
653323349055657992,564148,475076,516272
653323349063090866,564037,474966,516070
653323349070523740,563942,474958,516084
653323349077956614,563876,474750,515938
653323349085389488,563817,474799,515948
653323349092822362,563685,474734,515667
653323349100255236,563481,474651,515653
653323349107688110,563265,474332,515445
653323349115120984,563233,474221,515266
653323349122553858,563127,474300,515247
653323349129986732,562947,474284,515039
653323349137419606,562749,474215,514939
653323349144852480,562680,474120,514888
653323349152192512,562709,473956,514498
653323349159630848,562593,473821,514479
653323349167069184,562424,473770,514309
653323349174507520,562230,473885,514164
653323349181945856,562100,473817,514317
653323349189384192,561966,473691,514214
653323349196822528,561862,473687,514115
653323349204260864,561809,473675,513990
653323349211699200,561712,473562,513934
653323349219137536,561664,473532,513964
653323349226575872,561693,473499,513828
653323349234014208,561724,473467,513689
653323349241452544,561614,473505,513770
653323349248890880,561574,473361,513869
653323349256329216,561676,473314,513778
653323349263767552,561744,473463,513707
653323349271205888,561706,473349,513822
653323349278644224,561750,473357,513935
653323349286144457,561886,473455,513766
653323349293579152,561761,473471,513746
653323349301013847,561765,473434,513854
653323349308448542,561708,473402,513991
653323349315883237,561805,473576,513974
653323349323317932,561780,473347,513881
653323349330752627,561711,473488,513978
653323349338187322,561883,473494,514014
653323349345622017,561830,473620,513983
653323349353056712,561890,473566,514132
653323349360491407,561908,473565,513985
653323349367926102,562068,473687,514113
653323349375360797,561981,473650,513991
653323349382795492,561894,473674,514086
653323349390230187,562040,473641,514247
653323349397664882,562128,473736,514303
653323349405099577,562096,473757,514327
653323349412534272,562267,473677,514355
653323349419938029,562148,473492,514266
653323349427374544,562420,473560,514371
653323349434811059,562491,473663,514436
653323349442247574,562542,473781,514532
653323349449684089,562738,473794,514716
653323349457120604,562815,473887,514895
653323349464557119,562726,474130,514864
653323349471993634,562796,474018,514743
653323349479430149,562905,474010,514890
653323349486866664,562985,474105,514936
653323349494303179,562855,474194,515082
653323349501739694,562982,474314,515226
653323349509176209,563235,474361,515311
653323349516612724,563344,474532,515428
653323349524049239,563553,474538,515543
653323349531485754,563544,474606,515575
653323349538922269,563481,474719,515617
653323349546358784,563693,474593,515685
653323349553764352,563958,474805,515727
653323349561202688,563997,474714,515857
653323349568641024,563874,474819,515882
653323349576079360,563969,474845,515971
653323349583517696,563960,474914,516061
653323349590956032,564095,475016,516220
653323349598394368,564213,475076,516209
653323349605832704,564406,475071,516410
653323349613271040,564438,475140,516423
653323349620709376,564622,475141,516561
653323349628147712,564894,475173,516631
653323349635586048,564859,475381,516811
653323349643024384,564845,475474,516774
653323349650462720,564994,475451,516865
653323349657901056,565178,475489,516972
653323349665339392,565329,475517,517118
653323349672777728,565336,475521,517229
653323349680216064,565510,475664,517381
653323349687685357,565565,475854,517130
653323349695121872,565662,475927,517349
653323349702558387,565722,475976,517477
653323349709994902,565715,476057,517684
653323349717431417,565815,476062,517750
653323349724867932,566097,476020,517874
653323349732304447,566154,476166,517918
653323349739740962,566196,476259,518038
653323349747177477,566244,476211,518096
653323349754613992,566427,476177,518156
653323349762050507,566503,476385,518218
653323349769487022,566699,476439,518455
653323349776923537,566668,476449,518551
653323349784360052,566730,476587,518601
653323349791796567,566890,476616,518683
653323349799233082,567095,476685,518829
653323349806669597,567174,476712,518873
653323349814106112,567316,476678,519053
653323349821542637,567163,476553,519003
653323349828979152,567475,476743,519306
653323349836415667,567626,476860,519391
653323349843852182,567616,476932,519501
653323349851288697,567868,477033,519553
653323349858725212,568018,477031,519760
653323349866161727,567971,477132,519764
653323349873598242,568083,477175,519968
653323349881034757,568172,477367,519953
653323349888471272,568191,477354,519895
653323349895907787,568119,477394,520004
653323349903344302,568227,477411,520071
653323349910780817,568188,477246,519947
653323349918217332,568136,477130,519952
653323349925653847,568025,477079,519809
653323349933090362,567852,476909,519729
653323349940526877,567820,476823,519713
653323349947963392,567598,476813,519653
653323349955399917,567290,476951,519588
653323349962836432,567309,476729,519464
653323349970272947,567303,476558,519240
653323349977709462,567228,476462,519146
653323349985145977,567087,476374,518942
653323349992582492,566808,476348,518878
653323350000019007,566801,476275,518857
653323350007455522,566507,476140,518641
653323350014892037,566483,476115,518521
653323350022328552,566413,475928,518574
653323350029765067,566275,475922,518424
653323350037201582,566067,475936,518297
653323350044638097,565857,475780,518093
653323350052074612,565906,475867,518079
653323350059511127,565903,475754,518054
653323350066947642,565806,475781,518034
653323350074384157,565626,475611,517758
653323350081820672,565558,475567,517703
653323350089288137,565460,475470,517485
653323350096722832,565323,475388,517488
653323350104157527,565297,475328,517392
653323350111592222,565112,475367,517357
653323350119026917,565046,475249,517292
653323350126461612,564907,475314,517284
653323350133896307,564891,475201,517172
653323350141331002,564899,475147,517224
653323350148765697,564954,475171,517328
653323350156200392,564943,475144,517278
653323350163635087,564862,475179,517154
653323350171069782,564865,475108,517264
653323350178504477,564772,475110,517254
653323350185939172,564968,475126,517346
653323350193373867,564838,475142,517243
653323350200808562,564868,475228,517251
653323350208243257,564958,475247,517328
653323350215677952,565024,475249,517337
653323350223081709,564963,475324,517107
653323350230518224,565005,475290,517240
653323350237954739,565009,475305,517318
653323350245391254,565011,475200,517327
653323350252827769,565140,475122,517410
653323350260264284,565002,475119,517280
653323350267700799,565029,475330,517369
653323350275137314,565044,475357,517329
653323350282573829,564966,475212,517323
653323350290010344,565005,475237,517358
653323350297446859,565138,475208,517373
653323350304883374,565005,475185,517386
653323350312319889,565206,475244,517517
653323350319756404,565254,475252,517514
653323350327192919,565288,475385,517631
653323350334629434,565322,475354,517577
653323350342065949,565205,475452,517547
653323350349502464,565457,475301,517676
653323350356938989,565517,475401,517583
653323350364375504,565483,475408,517697
653323350371812019,565457,475680,517786
653323350379248534,565429,475491,517876
653323350386685049,565346,475608,517929
653323350394121564,565530,475762,517962
653323350401558079,565617,475724,518077
653323350408994594,565634,475742,518093
653323350416431109,565735,475802,518144
653323350423867624,565759,475756,518073
653323350431304139,565802,475830,518230
653323350438740654,565925,475900,518360
653323350446177169,566093,475937,518367
653323350453613684,566106,475885,518360
653323350461050199,566163,475968,518438
653323350468486714,566185,476048,518581
653323350475923229,566308,476175,518678
653323350483359744,566420,476160,518666
653323350490827209,566647,476302,518997
653323350498261904,566587,476249,518870
653323350505696599,566749,476325,518949
653323350513131294,566726,476359,518997
653323350520565989,566794,476342,519002
653323350528000684,566959,476527,519156
653323350535435379,567001,476447,519328
653323350542870074,567050,476379,519342
653323350550304769,567048,476547,519467
653323350557739464,567196,476679,519425
653323350565174159,567249,476508,519486
653323350572608854,567299,476596,519694
653323350580043549,567511,476741,519674
653323350587478244,567499,476670,519759
653323350594912939,567661,476790,519886
653323350602347634,567660,476854,520027
653323350609782329,567676,476954,519971
653323350617217024,567858,477071,520144
653323350624558884,568100,477149,519874
653323350631999040,568110,477170,520231
653323350639439196,568171,477145,520482
653323350646879352,568228,477224,520567
653323350654319508,568319,477374,520652
653323350661759664,568397,477413,520635
653323350669199820,568168,477323,520870
653323350676639976,568508,477404,520890
653323350684080132,568633,477433,520926
653323350691520288,568678,477579,520947
653323350698960444,568883,477665,520961
653323350706400600,569005,477718,521118
653323350713840756,569064,477704,521306
653323350721280912,569117,477846,521375
653323350728721068,569311,477882,521469
653323350736161224,569247,477957,521583
653323350743601380,569264,478014,521564
653323350751041536,569462,478063,521624
653323350758636434,569493,477933,521418
653323350766067488,569449,478049,521755
653323350773498542,569620,478181,521825
653323350780929596,569701,478185,521764
653323350788360650,569570,478115,521822
653323350795791704,569616,478058,521891
653323350803222758,569617,478094,521894
653323350810653812,569412,477967,521774
653323350818084866,569484,477924,521799
653323350825515920,569291,477764,521485
653323350832946974,569005,477597,521457
653323350840378028,568885,477444,521384
653323350847809082,568852,477501,521215
653323350855240136,568619,477456,521065
653323350862671190,568380,477374,521029
653323350870102244,568404,477285,520927
653323350877533298,568099,477150,520784
653323350884964352,568008,476968,520745
653323350892240676,567545,476959,520270
653323350899680832,567498,476941,520233
653323350907120988,567390,476730,520175
653323350914561144,567346,476699,520096
653323350922001300,567276,476549,520052
653323350929441456,567069,476604,519823
653323350936881612,566841,476402,519857
653323350944321768,566829,476362,519704
653323350951761924,566726,476296,519525
653323350959202080,566497,476106,519461
653323350966642236,566261,476054,519416
653323350974082392,566247,476011,519425
653323350981522548,566141,475961,519209
653323350988962704,566085,475921,519135
653323350996402860,565991,475942,518958
653323351003843016,565883,475839,519075
653323351011283172,565912,475725,519131
653323351018723328,565820,475652,518947
653323351026225389,565693,475617,518854
653323351033661904,565632,475618,518823
653323351041098419,565600,475543,518859
653323351048534934,565707,475673,518898
653323351055971449,565765,475640,518932
653323351063407964,565699,475655,518864
653323351070844479,565632,475660,518912
653323351078280994,565618,475608,518901
653323351085717509,565645,475746,518957
653323351093154024,565545,475541,518871
653323351100590539,565607,475734,518874
653323351108027054,565611,475683,518904
653323351115463569,565608,475741,518777
653323351122900084,565636,475651,518861
653323351130336599,565587,475606,518840
653323351137773114,565538,475657,518682
653323351145209629,565373,475698,518653
653323351152646144,565473,475625,518642
653323351160082669,565380,475793,518505
653323351167519184,565400,475683,518560
653323351174955699,565265,475665,518662
653323351182392214,565365,475610,518650
653323351189828729,565463,475695,518724
653323351197265244,565422,475634,518734
653323351204701759,565445,475640,518800
653323351212138274,565512,475648,518811
653323351219574789,565575,475759,518981
653323351227011304,565491,475812,518983
653323351234447819,565459,475755,518905
653323351241884334,565572,475810,518901
653323351249320849,565571,475811,518996
653323351256757364,565624,475952,518957
653323351264193879,565784,475895,519198
653323351271630394,565887,475778,519265
653323351279066909,565784,475811,519177
653323351286503424,565793,475895,519275
653323351293970889,565827,475839,519241
653323351301405584,565899,475919,519289
653323351308840279,566068,476101,519457
653323351316274974,566041,476102,519436
653323351323709669,566180,476256,519448
653323351331144364,566137,476060,519563
653323351338579059,566022,476239,519596
653323351346013754,566126,476194,519583
653323351353448449,566272,476270,519653
653323351360883144,566317,476393,519615
653323351368317839,566336,476377,519711
653323351375752534,566380,476241,519818
653323351383187229,566527,476296,519916
653323351390621924,566532,476487,519852
653323351398056619,566598,476553,520066
653323351405491314,566841,476551,520119
653323351412926009,566709,476712,520085
653323351420360704,566834,476642,520241
653323351427795401,566901,476688,520276
653323351435230096,566952,476599,520220
653323351442664791,567058,476690,520328
653323351450099486,567124,476835,520488
653323351457534181,567223,476915,520553
653323351464968876,567329,476983,520506
653323351472403571,567267,477004,520576
653323351479838266,567454,477038,520716
653323351487272961,567586,477068,520803
653323351494707656,567695,477048,520912
653323351502142351,567792,477184,521047
653323351509577046,567825,477282,521152
653323351517011741,567834,477248,521141
653323351524446436,567879,477389,521197
653323351531881131,567841,477415,521339
653323351539315826,567952,477377,521356
653323351546750521,568170,477502,521407
653323351554185216,568227,477415,521481
653323351561558016,568449,477349,521364
653323351568996352,568527,477478,521600
653323351576434688,568418,477520,521709
653323351583873024,568571,477569,521751
653323351591311360,568619,477677,521823
653323351598749696,568536,477724,521961
653323351606188032,568716,477938,521946
653323351613626368,568758,478043,522157
653323351621064704,569002,478173,522147
653323351628503040,569093,478194,522324
653323351635941376,569178,478134,522385
653323351643379712,569234,478180,522320
653323351650818048,569343,478276,522614
653323351658256384,569450,478351,522760
653323351665694720,569571,478409,522711
653323351673133056,569680,478334,522908
653323351680571392,569695,478308,522858
653323351688009728,569683,478473,522952
653323351695479021,569874,478318,522995
653323351702915536,569740,478420,522882
653323351710352051,569700,478472,522818
653323351717788566,569437,478357,522721
653323351725225081,569326,478288,522620
653323351732661596,569226,478164,522585
653323351740098111,569023,478027,522491
653323351747534626,568819,477829,522338
653323351754971141,568596,477723,522171
653323351762407656,568414,477580,521969
653323351769844171,568245,477568,521877
653323351777280686,567933,477496,521680
653323351784717201,567858,477399,521558
653323351792153716,567542,477266,521415
653323351799590231,567394,477078,521308
653323351807026746,567277,476994,521152
653323351814463261,567100,476868,521005
653323351821899776,566874,476828,521030
653323351829336301,566942,476406,520598
653323351836772816,566634,476475,520588
653323351844209331,566265,476382,520532
653323351851645846,565987,476319,520215
653323351859082361,565902,476182,520124
653323351866518876,565694,476030,519994
653323351873955391,565420,476036,519736
653323351881391906,565306,475868,519657
653323351888828421,565258,475895,519570
653323351896264936,565008,475775,519408
653323351903701451,564770,475639,519150
653323351911137966,564796,475546,519093
653323351918574481,564554,475418,518990
653323351926010996,564399,475248,518837
653323351933447511,564242,475251,518848
653323351940884026,564212,475310,518804
653323351948320541,564111,475232,518765
653323351955757056,563852,475039,518534
653323351963193581,563946,475276,518731
653323351970630096,563936,475071,518621
653323351978066611,563833,475126,518566
653323351985503126,563956,474732,518270
653323351992939641,563839,474896,518336
653323352000376156,563769,474949,518378
653323352007812671,563698,475071,518372
653323352015249186,563583,474978,518283
653323352022685701,563646,474839,518318
653323352030122216,563528,474862,518305
653323352037558731,563508,474790,518250
653323352044995246,563525,474842,518166
653323352052431761,563518,474880,518173
653323352059868276,563521,474955,518211
653323352067304791,563515,474868,518138
653323352074741306,563377,474856,518179
653323352082177821,563387,474915,518124
653323352089614336,563285,474812,517979
653323352097050861,563236,474546,517956
653323352104487376,563168,474636,518020
653323352111923891,563296,474706,518024
653323352119360406,563377,474819,518089
653323352126796921,563220,474785,517967
653323352134233436,563251,474804,518166
653323352141669951,563294,474695,518026
653323352149106466,563406,474770,517979
653323352156542981,563418,474757,518011
653323352163979496,563464,474798,518043
653323352171416011,563408,474897,518045
653323352178852526,563454,474891,518097
653323352186289041,563359,474952,518139
653323352193725556,563378,475034,518267
653323352201162071,563469,474912,518228
653323352208598586,563568,475130,518279
653323352216035101,563687,474976,518234
653323352223471616,563671,475032,518248
653323352230939081,563830,474828,518254
653323352238373776,563730,475058,518350
653323352245808471,563798,475040,518402
653323352253243166,563838,475133,518307
653323352260677861,563864,475222,518514
653323352268112556,563953,475417,518713
653323352275547251,563915,475361,518655
653323352282981946,563945,475294,518715
653323352290416641,564048,475352,518707
653323352297851336,564171,475334,518889
653323352305286031,564253,475318,518860
653323352312720726,564278,475471,518789
653323352320155421,564481,475536,518959
653323352327590116,564401,475637,518948
653323352335024811,564514,475598,519032
653323352342459506,564634,475594,519078
653323352349894201,564772,475761,519283
653323352357328896,564743,475723,519267
653323352364670756,564721,475825,519566
653323352372110912,564795,475804,519554
653323352379551068,564860,475776,519382
653323352386991224,564987,475988,519474
653323352394431380,565002,476024,519591
653323352401871536,565018,476074,519563
653323352409311692,565152,476061,519534
653323352416751848,565223,476078,519614
653323352424192004,565414,476240,519770
653323352431632160,565462,476159,519861
653323352439072316,565567,476273,519989
653323352446512472,565693,476382,520108
653323352453952628,565645,476445,520169
653323352461392784,565860,476485,520266
653323352468832940,565957,476542,520335
653323352476273096,566021,476431,520394
653323352483713252,566083,476490,520367
653323352491153408,566061,476561,520457
653323352498655469,566452,476830,520634
653323352506091984,566259,476718,520593
653323352513528499,566394,476877,520636
653323352520965014,566532,476897,520738
653323352528401529,566598,476850,520851
653323352535838044,566620,476902,520871
653323352543274559,566727,476867,520992
653323352550711074,566896,476985,521185
653323352558147589,566919,477160,521239
653323352565584104,567084,477096,521257
653323352573020619,566998,477224,521290
653323352580457134,567218,477245,521433
653323352587893649,567374,477455,521627
653323352595330164,567490,477478,521675
653323352602766679,567390,477604,521620
653323352610203194,567535,477522,521800
653323352617639709,567691,477701,521854
653323352625076224,567604,477647,521916
653323352632543689,567516,477223,521847
653323352639978384,567503,477343,521832
653323352647413079,567473,477283,521720
653323352654847774,567339,477266,521512
653323352662282469,567106,477150,521324
653323352669717164,566880,477124,521255
653323352677151859,566590,476934,521178
653323352684586554,566365,476760,520820
653323352692021249,566185,476724,520708
653323352699455944,565986,476536,520607
653323352706890639,565800,476480,520445
653323352714325334,565536,476285,520290
653323352721760029,565301,475783,519986
653323352729194724,565119,475834,519897
653323352736629419,564806,475921,519696
653323352744064114,564655,475768,519473
653323352751498809,564395,475586,519369
653323352758933504,564304,475466,519243
653323352766306304,564075,475503,518687
653323352773744640,563782,475259,518720
653323352781182976,563664,475180,518602
653323352788621312,563495,474971,518509
653323352796059648,563092,474870,518264
653323352803497984,562974,474863,518161
653323352810936320,562875,474681,517990
653323352818374656,562567,474528,517719
653323352825812992,562460,474482,517668
653323352833251328,562141,474349,517417
653323352840689664,562011,474107,517266
6.53323E+17,561839,474090,517286
653323352855566336,561732,474107,517169
653323352863004672,561499,473848,516905
653323352870443008,561414,473899,516813
653323352877881344,561530,473888,516693
653323352885319680,561377,473844,516604
653323352892758016,561182,473842,516584
653323352900196352,561049,473566,516636
653323352907634688,561018,473734,516556
653323352915073024,561005,473715,516478
653323352922511360,561039,473770,516575
653323352929949696,561073,473679,516563
653323352937388032,561118,473628,516500
653323352944826368,560984,473689,516342
653323352952264704,561096,473709,516390
653323352959703040,560898,473679,516243
653323352967141376,560869,473557,516255
653323352974579712,560855,473552,516086
653323352982018048,560715,473624,516243
653323352989456384,560859,473442,516298
653323352996894720,560762,473487,516240
653323353004333056,560774,473352,516137
653323353011771392,560715,473308,516074
653323353019209728,560824,473459,516023
653323353026648064,560724,473486,516017
653323353034148297,560439,473309,515966
653323353041582992,560556,473351,515998
653323353049017687,560666,473333,515959
653323353056452382,560770,473333,515987
653323353063887077,560738,473465,515928
653323353071321772,560563,473410,515916
653323353078756467,560572,473476,515903
653323353086191162,560674,473536,516040
653323353093625857,560572,473480,515898
653323353101060552,560712,473390,516061
653323353108495247,560832,473473,516099
653323353115929942,560847,473543,515990
653323353123364637,560837,473529,516034
653323353130799332,560901,473403,516157
653323353138234027,561026,473608,516254
653323353145668722,561035,473768,516309
653323353153103417,561101,473693,516317
653323353160538112,561011,473691,516351
653323353167941869,560982,473784,516580
653323353175378384,561140,473769,516441
653323353182814899,561344,473703,516396
653323353190251414,561368,473779,516447
653323353197687929,561496,473701,516473
653323353205124444,561480,473801,516561
653323353212560959,561376,473856,516611
653323353219997474,561554,473893,516781
653323353227433989,561711,473850,516666
653323353234870504,561762,473963,516840
653323353242307019,561800,474065,516777
653323353249743534,561846,473997,516821
653323353257180049,561995,474171,516912
653323353264616564,562142,474174,516999
653323353272053079,562110,474184,517075
653323353279489594,562385,474323,517167
653323353286926109,562381,474408,517207
653323353294362624,562336,474377,517105
653323353301768192,562517,474519,517176
653323353309206528,562692,474642,517403
653323353316644864,562699,474559,517471
653323353324083200,562748,474506,517643
653323353331521536,562870,474586,517469
653323353338959872,562995,474616,517705
653323353346398208,562921,474584,517780
653323353353836544,563039,474824,517871
653323353361274880,563026,474862,517962
653323353368713216,563204,474860,517971
653323353376151552,563230,474927,518005
653323353383589888,563289,474973,518026
653323353391028224,563417,475075,518116
653323353398466560,563603,475096,518179
653323353405904896,563620,475063,518279
653323353413343232,563707,475150,518368
653323353420781568,563787,475275,518399
653323353428219904,563855,475318,518502
653323353435720137,563673,475398,518894
653323353443154832,563769,475471,518755
653323353450589527,564028,475554,518873
653323353458024222,564225,475402,518897
653323353465458917,564304,475478,518978
653323353472893612,564457,475559,519103
653323353480328307,564578,475641,519167
653323353487763002,564625,475905,519194
653323353495197697,564776,475911,519352
653323353502632392,564922,476033,519444
653323353510067087,565028,476072,519592
653323353517501782,565152,476089,519731
653323353524936477,565031,476164,519672
653323353532371172,565256,476019,519725
653323353539805867,565432,476232,519889
653323353547240562,565657,476359,520044
653323353554675257,565667,476504,520027
653323353562109952,565716,476462,520185
653323353569482752,565509,476511,519839
653323353576921088,565738,476316,520164
653323353584359424,565725,476303,520038
653323353591797760,565600,476160,520032
653323353599236096,565401,476263,519940
653323353606674432,565407,476101,519819
653323353614112768,565132,476010,519715
653323353621551104,565005,475921,519546
653323353628989440,564598,475725,519222
653323353636427776,564335,475528,519100
653323353643866112,564219,475458,518912
653323353651304448,564077,475389,518677
653323353658742784,563928,475259,518536
653323353666181120,563682,475045,518246
653323353673619456,563403,474847,518182
653323353681057792,563148,474673,518035
653323353688496128,562972,474576,517785
653323353695934464,562717,474457,517643
653323353703465654,562441,474363,517151
653323353710898528,562272,474219,517184
653323353718331402,562059,474139,517076
653323353725764276,561980,473959,516955
653323353733197150,561769,473805,516728
653323353740630024,561703,473624,516574
653323353748062898,561399,473482,516421
653323353755495772,561125,473450,516307
653323353762928646,560986,473578,515997
653323353770361520,560814,473335,515905
653323353777794394,560784,473256,515741
653323353785227268,560436,473035,515583
653323353792660142,560337,472907,515466
653323353800093016,560172,472843,515377
653323353807525890,560018,472881,515164
653323353814958764,559997,472778,515050
653323353822391638,559928,472706,514988
653323353829824512,559779,472670,514953
653323353837133604,559501,472513,514878
653323353844573760,559601,472608,514832
653323353852013916,559525,472606,514815
653323353859454072,559544,472589,514753
653323353866894228,559508,472593,514780
653323353874334384,559438,472521,514676
653323353881774540,559454,472638,514551
653323353889214696,559408,472432,514623
653323353896654852,559470,472526,514755
653323353904095008,559426,472591,514624
653323353911535164,559468,472524,514631
653323353918975320,559449,472542,514686
653323353926415476,559509,472611,514529
653323353933855632,559455,472419,514461
653323353941295788,559391,472457,514420
653323353948735944,559333,472375,514560
653323353956176100,559367,472625,514422
653323353963616256,559418,472450,514402
653323353971149257,559077,472552,514444
653323353978583952,559276,472525,514445
653323353986018647,559223,472546,514437
653323353993453342,559156,472371,514353
653323354000888037,559367,472387,514386
653323354008322732,559377,472327,514364
653323354015757427,559363,472335,514451
653323354023192122,559471,472383,514482
653323354030626817,559463,472428,514464
653323354038061512,559516,472372,514532
653323354045496207,559587,472411,514531
653323354052930902,559586,472420,514492
653323354060365597,559578,472396,514577
653323354067800292,559590,472387,514616
653323354075234987,559633,472399,514633
653323354082669682,559794,472438,514692
653323354090104377,559959,472623,514813
653323354097539072,560015,472674,514942
653323354104973769,559805,472832,515194
653323354112408464,560021,472871,515122
653323354119843159,560220,472975,515105
653323354127277854,560335,472968,515021
653323354134712549,560346,472848,515045
653323354142147244,560472,472782,515233
653323354149581939,560316,472913,515206
653323354157016634,560352,472843,515189
653323354164451329,560554,472958,515224
653323354171886024,560727,473122,515449
653323354179320719,560708,473161,515461
653323354186755414,560796,473175,515507
653323354194190109,561063,473262,515631
653323354201624804,561142,473118,515622
653323354209059499,561121,473287,515697
653323354216494194,561192,473286,515750
653323354223928889,561322,473272,515862
653323354231363584,561401,473364,515974
653323354238736384,561380,473562,515646
653323354246174720,561452,473577,516025
653323354253613056,561581,473644,516136
653323354261051392,561725,473750,516225
653323354268489728,561738,473808,516282
653323354275928064,561875,473809,516448
653323354283366400,561992,473839,516516
653323354290804736,562223,473788,516657
653323354298243072,562300,473893,516730
653323354305681408,562255,473947,516708
653323354313119744,562270,474034,516779
653323354320558080,562435,474075,516897
653323354327996416,562608,474083,517089
653323354335434752,562764,474263,517173
653323354342873088,562823,474476,517156
653323354350311424,562912,474351,517294
653323354357749760,562950,474406,517390
653323354365188096,563072,474518,517401
653323354372657389,562869,474813,517252
653323354380093904,563123,474723,517326
653323354387530419,563297,474688,517458
653323354394966934,563424,474672,517685
653323354402403449,563591,474876,517829
653323354409839964,563830,474884,517988
653323354417276479,564087,474913,517941
653323354424712994,564050,475010,518157
653323354432149509,564061,475052,518225
653323354439586024,564232,475159,518384
653323354447022539,564381,475188,518495
653323354454459054,564519,475351,518505
653323354461895569,564575,475466,518636
653323354469332084,564736,475481,518694
653323354476768599,564805,475529,518796
653323354484205114,564851,475618,518841
653323354491641629,564922,475593,519000
653323354499078144,565053,475620,519061
653323354506483712,565153,475507,519286
653323354513922048,564934,475518,519127
653323354521360384,564812,475508,518941
653323354528798720,564692,475456,518822
653323354536237056,564389,475242,518620
653323354543675392,564369,475028,518478
653323354551113728,564142,474971,518270
653323354558552064,563984,474715,518038
653323354565990400,563742,474577,517882
653323354573428736,563647,474488,517793
653323354580867072,563160,474401,517518
653323354588305408,562995,474273,517409
653323354595743744,563022,474170,517246
653323354603182080,562633,474009,517130
653323354610620416,562551,473891,516893
653323354618058752,562520,473856,516878
653323354625497088,562384,473715,516632
653323354632935424,562099,473673,516451
653323354640435657,561556,473319,515966
653323354647870352,561580,473353,516001
653323354655305047,561430,473262,515912
653323354662739742,561262,473194,515878
653323354670174437,561185,473050,515614
653323354677609132,561035,472949,515538
653323354685043827,560957,472941,515486
653323354692478522,560815,472813,515299
653323354699913217,560857,472868,515217
653323354707347912,560633,472523,515082
653323354714782607,560586,472560,515059
653323354722217302,560408,472576,514958
653323354729651997,560355,472523,514867
653323354737086692,560044,472542,514832
653323354744521387,560100,472381,514819
653323354751956082,560120,472426,514708
653323354759390777,560268,472295,514737
653323354766825472,560215,472376,514560
653323354774229229,560146,472224,514744
653323354781665744,560156,472187,514680
653323354789102259,560192,472276,514743
653323354796538774,560219,472444,514620
653323354803975289,560071,472336,514462
653323354811411804,560046,472325,514386
653323354818848319,560199,472428,514630
653323354826284834,560099,472341,514514
653323354833721349,560069,472263,514445
653323354841157864,560213,472321,514542
653323354848594379,560039,472434,514508
653323354856030894,560101,472386,514417
653323354863467409,560226,472252,514472
653323354870903924,560181,472204,514489
653323354878340439,560191,472366,514336
653323354885776954,560269,472328,514377
653323354893213469,560333,472331,514449
653323354900649984,560265,472177,514461
653323354908086509,560096,472421,514508
653323354915523024,560272,472371,514486
653323354922959539,560273,472440,514664
653323354930396054,560389,472489,514712
653323354937832569,560666,472464,514594
653323354945269084,560707,472525,514758
653323354952705599,560811,472505,514833
653323354960142114,560713,472530,514898
653323354967578629,560780,472663,514853
653323354975015144,560834,472793,515026
653323354982451659,560898,472792,514830
653323354989888174,560925,472702,515010
653323354997324689,561029,472793,515086
653323355004761204,561006,472948,515105
653323355012197719,561111,472885,515185
653323355019634234,561226,472991,515288
653323355027070749,561350,472917,515188
653323355034507264,561315,472939,515308
653323355041912832,561400,472987,515000
653323355049351168,561472,473101,515234
653323355056789504,561479,473189,515328
653323355064227840,561548,473317,515506
653323355071666176,561638,473279,515578
653323355079104512,561806,473407,515688
653323355086542848,561932,473327,515768
653323355093981184,561977,473376,515772
653323355101419520,562086,473353,515886
653323355108857856,562203,473444,516022
653323355116296192,562245,473541,516013
653323355123734528,562314,473557,515985
653323355131172864,562177,473635,516050
653323355138611200,562391,473701,516273
653323355146049536,562305,473729,516350
653323355153487872,562437,473647,516416
653323355160926208,562535,473719,516399
653323355168364544,562630,473815,516569
653323355175895734,562718,474050,516269
653323355183328608,562740,474028,516431
653323355190761482,562883,474060,516698
653323355198194356,563031,474160,516730
653323355205627230,563185,474169,516806
653323355213060104,563205,474178,516827
653323355220492978,563366,474094,517053
653323355227925852,563365,474173,517107
653323355235358726,563493,474216,517142
653323355242791600,563455,474260,517210
653323355250224474,563666,474297,517361
653323355257657348,563740,474307,517452
653323355265090222,563898,474544,517600
653323355272523096,564000,474590,517484
653323355279955970,564179,474665,517647
653323355287388844,564295,474702,517866
653323355294821718,564310,474616,517915
653323355302254592,564447,474815,517922
653323355309594624,564807,475073,517949
653323355317032960,564675,474997,518115
653323355324471296,564756,475065,518218
653323355331909632,564787,475054,518359
653323355339347968,564995,475146,518437
653323355346786304,564980,475174,518533
653323355354224640,565118,475244,518597
653323355361662976,565106,475208,518578
653323355369101312,565169,475250,518649
653323355376539648,565154,475276,518648
653323355383977984,565053,475133,518585
653323355391416320,565055,475078,518581
653323355398854656,564935,475004,518527
653323355406292992,564764,474892,518390
653323355413731328,564486,474772,518251
653323355421169664,564367,474629,518165
6.53323E+17,564382,474553,518001
653323355436046336,564161,474522,517729
653323355443546569,564128,474554,517718
653323355450981264,563779,474206,517509
653323355458415959,563564,474170,517347
653323355465850654,563403,473900,517152
653323355473285349,563211,473925,516956
653323355480720044,563076,473848,516816
653323355488154739,562734,473598,516439
653323355495589434,562683,473501,516325
653323355503024129,562555,473318,516324
653323355510458824,562374,473347,516114
653323355517893519,562186,473127,515942
653323355525328214,562041,473088,515933
653323355532762909,561938,473032,515737
653323355540197604,561840,472873,515625
653323355547632299,561666,472702,515517
653323355555066994,561524,472662,515313
653323355562501689,561380,472629,515255
653323355569936384,561225,472444,515096
653323355577309184,561187,472242,514941
653323355584747520,561010,472280,514879
653323355592185856,560980,472350,514751
653323355599624192,561025,472332,514719
653323355607062528,560914,472200,514704
653323355614500864,560837,472081,514566
653323355621939200,560786,472155,514611
653323355629377536,560861,472219,514616
653323355636815872,560777,472053,514515
653323355644254208,560628,471983,514464
653323355651692544,560510,471973,514429
653323355659130880,560724,472025,514414
653323355666569216,560820,472212,514469
653323355674007552,560776,472166,514463
653323355681445888,560782,472161,514495
653323355688884224,560761,472160,514421
653323355696322560,560824,472103,514469
653323355703760896,560783,472102,514457
653323355711230189,560972,472221,514436
653323355718666704,560812,472087,514422
653323355726103219,560799,472094,514325
653323355733539734,560583,472104,514284
653323355740976249,560595,472137,514255
653323355748412764,560676,472088,514203
653323355755849279,560526,472027,514155
653323355763285794,560595,471917,514315
653323355770722309,560611,472053,514167
653323355778158824,560731,471935,514232
653323355785595339,560765,472054,514138
653323355793031854,560743,472164,514188
653323355800468369,560756,472026,514283
653323355807904884,560640,472098,514220
653323355815341399,560704,471996,514327
653323355822777914,560833,472004,514421
653323355830214429,560835,472039,514388
653323355837650944,560699,472133,514370
653323355845087469,560973,472284,514734
653323355852523984,561086,472160,514713
653323355859960499,561129,472111,514666
653323355867397014,561166,472058,514541
653323355874833529,561268,472140,514614
653323355882270044,561312,472287,514547
653323355889706559,561434,472263,514688
653323355897143074,561475,472359,514691
653323355904579589,561530,472437,514782
653323355912016104,561523,472421,514772
653323355919452619,561500,472414,514822
653323355926889134,561646,472604,514926
653323355934325649,561705,472548,514939
653323355941762164,561684,472601,515057
653323355949198679,561807,472763,515141
653323355956635194,561872,472591,515170
653323355964071709,561938,472637,515122
653323355971508224,562060,472748,515226
653323355978944749,562179,472961,515143
653323355986381264,562165,472972,515265
653323355993817779,562226,473002,515358
653323356001254294,562148,473099,515462
653323356008690809,562359,473067,515533
653323356016127324,562346,473081,515633
653323356023563839,562555,472990,515677
653323356031000354,562522,473096,515757
653323356038436869,562518,473106,515844
653323356045873384,562778,473110,515955
653323356053309899,562886,473240,516087
653323356060746414,562909,473371,516163
653323356068182929,562966,473409,516227
653323356075619444,563002,473389,516296
653323356083055959,563102,473594,516326
653323356090492474,563252,473600,516377
653323356097928989,563449,473605,516526
653323356105365504,563474,473680,516609
653323356112832969,563583,473413,516774
653323356120267664,563645,473695,516690
653323356127702359,563735,473811,516884
653323356135137054,563874,473743,516917
653323356142571749,563903,473887,516989
653323356150006444,563944,473977,517273
653323356157441139,564192,474104,517283
653323356164875834,564169,474095,517269
653323356172310529,564320,474141,517268
653323356179745224,564297,474186,517392
653323356187179919,564497,474221,517475
653323356194614614,564776,474219,517554
653323356202049309,564686,474401,517737
653323356209484004,564811,474442,517711
653323356216918699,564844,474458,517702
653323356224353394,564951,474496,517905
653323356231788089,564956,474598,517955
653323356239222784,564872,474466,517860
653323356246564644,564608,474263,517782
653323356254004800,564706,474358,517602
653323356261444956,564644,474383,517684
653323356268885112,564604,474149,517581
653323356276325268,564399,474020,517417
653323356283765424,564293,473868,517263
653323356291205580,564074,473721,517110
653323356298645736,563851,473638,516961
653323356306085892,563627,473520,516661
653323356313526048,563447,473479,516522
653323356320966204,563116,473215,516209
653323356328406360,563048,473198,516153
653323356335846516,562812,473047,516065
653323356343286672,562553,473003,515839
653323356350726828,562384,472803,515485
653323356358166984,562104,472571,515404
653323356365607140,561996,472531,515146
653323356373047296,561720,472290,515005
653323356380549357,561659,472398,514919
653323356387985872,561544,472331,514661
653323356395422387,561310,472110,514533
653323356402858902,561271,472106,514505
653323356410295417,561203,471865,514127
653323356417731932,561040,471871,514117
653323356425168447,560829,471729,514003
653323356432604962,560650,471618,513844
653323356440041477,560504,471436,513624
653323356447477992,560273,471360,513535
653323356454914507,560369,471237,513619
653323356462351022,560180,471212,513499
653323356469787537,560060,471062,513372
653323356477224052,559936,471221,513304
653323356484660567,559940,471157,513178
653323356492097082,559739,471172,513112
653323356499533597,559749,471182,513099
653323356506970112,559663,471115,513079
653323356514406637,559385,470844,513080
653323356521843152,559511,470895,512973
653323356529279667,559621,470943,512967
653323356536716182,559608,471069,513006
653323356544152697,559587,470948,512932
653323356551589212,559692,471005,512920
653323356559025727,559701,471011,512873
653323356566462242,559716,470981,512980
653323356573898757,559606,471046,512869
653323356581335272,559507,470967,512809
653323356588771787,559581,471040,512876
653323356596208302,559458,470913,512841
653323356603644817,559561,470892,512793
653323356611081332,559586,471012,512851
653323356618517847,559682,470990,512912
653323356625954362,559605,470974,512769
653323356633390877,559550,470942,512786
653323356640827392,559653,470865,512876
653323356648294857,559737,470779,512687
653323356655729552,559756,470901,512816
653323356663164247,559669,470956,512794
653323356670598942,559746,471071,513047
653323356678033637,559646,471032,512918
653323356685468332,559704,471036,512925
653323356692903027,559757,471084,512823
653323356700337722,559971,471116,512944
653323356707772417,559794,471098,512892
653323356715207112,559878,471155,512873
653323356722641807,559795,471236,512906
653323356730076502,560016,471225,513141
653323356737511197,560108,471219,513230
653323356744945892,560017,471192,513261
653323356752380587,559981,471158,513251
653323356759815282,560217,471264,513446
653323356767249977,560391,471382,513334
653323356774684672,560342,471472,513384
653323356782026532,560403,471203,513555
653323356789466688,560567,471400,513505
653323356796906844,560713,471430,513629
6.53323E+17,560630,471552,513693
653323356811787156,560686,471618,513761
653323356819227312,560774,471636,513823
653323356826667468,560988,471634,513891
653323356834107624,560956,471804,513950
653323356841547780,560859,471868,513873
653323356848987936,561059,471933,513928
653323356856428092,561017,471881,514059
653323356863868248,561140,471950,514205
653323356871308404,561231,471926,514337
653323356878748560,561342,472062,514463
653323356886188716,561465,472074,514472
653323356893628872,561580,472202,514601
653323356901069028,561555,472299,514648
653323356908509184,561816,472372,514702
653323356916073142,561687,472418,514771
653323356923506016,561849,472440,514720
653323356930938890,561958,472498,514902
653323356938371764,562212,472593,515050
653323356945804638,562372,472489,515086
653323356953237512,562317,472566,515049
653323356960670386,562398,472645,515213
653323356968103260,562604,472756,515328
653323356975536134,562592,472877,515234
653323356982969008,562773,472759,515426
653323356990401882,562834,472932,515624
653323356997834756,562994,473037,515799
653323357005267630,563056,473146,515765
653323357012700504,563110,473158,515921
653323357020133378,563341,473324,516026
653323357027566252,563451,473302,516059
653323357034999126,563348,473436,516070
6.53323E+17,563307,473404,516225
653323357049741092,563617,473188,516069
653323357057181248,563615,473379,516238
653323357064621404,563790,473584,516445
653323357072061560,563862,473720,516441
653323357079501716,564020,473910,516656
653323357086941872,564128,473967,516661
653323357094382028,564236,473997,516792
653323357101822184,564163,473970,516888
653323357109262340,564321,474016,516861
653323357116702496,564363,474055,516885
653323357124142652,564391,474006,516928
653323357131582808,564360,473949,517067
653323357139022964,564347,473832,516930
653323357146463120,564188,473769,516925
653323357153903276,564005,473670,516758
653323357161343432,563918,473527,516585
653323357168783588,563784,473230,516403
653323357176223744,563571,473211,516319
653323357183694848,563248,473169,515911
653323357191133184,563128,472900,515785
653323357198571520,562824,472883,515655
653323357206009856,562667,472768,515499
653323357213448192,562441,472713,515301
653323357220886528,562280,472635,515103
653323357228324864,562007,472443,514853
653323357235763200,561826,472173,514761
653323357243201536,561786,472166,514711
653323357250639872,561587,472100,514448
653323357258078208,561379,471945,514298
653323357265516544,561126,471713,514106
653323357272954880,560968,471780,513920
653323357280393216,560857,471599,513858
653323357287831552,560678,471559,513734
653323357295269888,560623,471387,513698
653323357302708224,560557,471409,513450
653323357310146560,560265,471404,513266
653323357317615853,560161,471014,513202
653323357325052368,560010,471105,513027
653323357332488883,559844,471114,512971
653323357339925398,559759,471078,512987
653323357347361913,559713,471066,512803
653323357354798428,559632,471015,512619
653323357362234943,559567,470934,512561
653323357369671458,559538,470892,512670
653323357377107973,559487,470990,512554
653323357384544488,559502,470829,512466
653323357391981003,559560,470915,512478
653323357399417518,559519,470902,512553
653323357406854033,559436,470782,512415
653323357414290548,559455,470905,512498
653323357421727063,559421,470844,512486
653323357429163578,559402,470908,512414
653323357436600093,559280,470798,512336
653323357444036608,559302,470823,512276
653323357451473133,559089,470852,512239
653323357458909648,559276,470751,512392
653323357466346163,559387,470663,512324
653323357473782678,559509,470773,512436
653323357481219193,559387,470718,512476
653323357488655708,559349,470785,512343
653323357496092223,559309,470888,512297
653323357503528738,559281,470761,512263
653323357510965253,559403,470840,512310
653323357518401768,559372,470796,512224
653323357525838283,559426,470796,512153
653323357533274798,559372,470695,512104
653323357540711313,559474,470747,512142
653323357548147828,559301,470664,512227
653323357555584343,559364,470687,512340
653323357563020858,559388,470791,512338
653323357570457373,559400,470777,512426
653323357577893888,559545,470959,512438
653323357585330413,559759,470670,512649
653323357592766928,559661,470808,512665
653323357600203443,559611,470947,512680
653323357607639958,559674,471067,512757
653323357615076473,559744,471117,512655
653323357622512988,559841,471055,512747
653323357629949503,559899,471155,512735
653323357637386018,560056,471208,512854
653323357644822533,559936,471374,512828
653323357652259048,560040,471310,512905
653323357659695563,560053,471345,513018
653323357667132078,560131,471340,513021
653323357674568593,560192,471440,512982
653323357682005108,560378,471540,513154
653323357689441623,560582,471576,513365
653323357696878138,560619,471654,513442
653323357704314653,560595,471695,513463
653323357711751168,560518,471723,513378
653323357719156736,560544,471942,513431
653323357726595072,560691,471921,513579
653323357734033408,560935,471905,513677
653323357741471744,561038,471926,513748
653323357748910080,561080,471991,513834
653323357756348416,561125,472007,513953
653323357763786752,561202,472199,513981
653323357771225088,561353,472123,514073
653323357778663424,561291,472219,514104
653323357786101760,561485,472276,514277
653323357793540096,561437,472256,514300
653323357800978432,561657,472225,514364
653323357808416768,561810,472297,514490
653323357815855104,561844,472492,514637
653323357823293440,561866,472553,514543
653323357830731776,562009,472635,514681
653323357838170112,562111,472629,514715
653323357845608448,562206,472598,514856
653323357853077741,562355,472499,515086
653323357860514256,562395,472624,515187
653323357867950771,562525,472754,515226
653323357875387286,562699,472824,515387
653323357882823801,562688,473000,515404
653323357890260316,562695,473105,515397
653323357897696831,562821,473065,515512
653323357905133346,563004,473047,515606
653323357912569861,563064,473120,515545
653323357920006376,563299,473277,515784
653323357927442891,563172,473378,515863
653323357934879406,563196,473419,515919
653323357942315921,563350,473525,515981
653323357949752436,563619,473584,516133
653323357957188951,563823,473713,516205
653323357964625466,563713,473651,516346
653323357972061981,564022,473843,516481
653323357979498496,564084,473889,516618
653323357986935021,563919,473763,516884
653323357994371536,564219,473895,516902
653323358001808051,564366,474074,517057
653323358009244566,564497,474164,517031
653323358016681081,564548,474291,517151
653323358024117596,564572,474176,517155
653323358031554111,564634,474286,517225
653323358038990626,564612,474304,517254
653323358046427141,564640,474209,517151
653323358053863656,564527,474151,517196
653323358061300171,564515,474180,517116
653323358068736686,564277,474105,516979
653323358076173201,564179,473993,516706
653323358083609716,563908,473799,516599
653323358091046231,563920,473669,516499
653323358098482746,563613,473660,516260
653323358105919261,563415,473413,516089
653323358113355776,563206,473421,515942
653323358120823241,563179,473153,516021
653323358128257936,562876,473164,515662
653323358135692631,562671,473086,515419
653323358143127326,562557,473007,515418
653323358150562021,562428,472966,515159
653323358157996716,562335,472902,515095
653323358165431411,562188,472662,514964
653323358172866106,562078,472570,514891
653323358180300801,561906,472558,514704
653323358187735496,561703,472588,514561
653323358195170191,561512,472437,514404
653323358202604886,561497,472356,514454
653323358210039581,561314,472198,514161
653323358217474276,561127,472061,513982
653323358224908971,560879,472115,513908
653323358232343666,560907,471928,513824
653323358239778361,560908,471860,513788
653323358247213056,560810,471996,513838
653323358254585856,560521,471984,513425
653323358262024192,560511,471839,513501
653323358269462528,560589,471858,513498
653323358276900864,560521,471724,513423
653323358284339200,560394,471726,513441
653323358291777536,560403,471624,513313
653323358299215872,560546,471621,513313
653323358306654208,560438,471694,513284
653323358314092544,560376,471786,513241
653323358321530880,560387,471721,513294
653323358328969216,560423,471693,513228
653323358336407552,560391,471660,513279
653323358343845888,560498,471651,513280
653323358351284224,560442,471680,513329
653323358358722560,560345,471690,513234
653323358366160896,560457,471696,513184
653323358373599232,560455,471807,513261
653323358381037568,560393,471591,513236
653323358388537801,560418,471950,513005
653323358395972496,560572,471833,513228
653323358403407191,560510,471765,513314
653323358410841886,560421,471883,513323
653323358418276581,560294,471834,513325
653323358425711276,560422,471769,513132
653323358433145971,560498,471689,513312
653323358440580666,560288,471855,513412
653323358448015361,560381,471786,513250
653323358455450056,560550,471847,513351
653323358462884751,560592,471682,513439
653323358470319446,560566,471821,513489
653323358477754141,560642,471849,513550
653323358485188836,560550,471936,513493
653323358492623531,560663,471941,513559
653323358500058226,560720,471949,513504
653323358507492921,560745,472107,513600
653323358514927616,560748,471941,513626
653323358522300416,560697,471978,513913
653323358529738752,560868,472032,513698
653323358537177088,560885,472188,513809
653323358544615424,561007,472279,513907
653323358552053760,561058,472341,513964
653323358559492096,561240,472426,514012
653323358566930432,561343,472398,514100
653323358574368768,561395,472420,514168
653323358581807104,561461,472485,514163
653323358589245440,561523,472487,514248
653323358596683776,561609,472566,514319
653323358604122112,561624,472559,514312
653323358611560448,561672,472663,514502
653323358618998784,561703,472742,514548
653323358626437120,561915,472743,514691
653323358633875456,561978,472893,514823
653323358641313792,562078,472809,514851
653323358648752128,562246,472887,515004
653323358656252361,562366,472993,514734
653323358663687056,562429,473037,514926
653323358671121751,562427,473081,515185
653323358678556446,562469,473173,515208
653323358685991141,562625,473356,515287
653323358693425836,562752,473174,515340
653323358700860531,562783,473179,515419
653323358708295226,562789,473389,515581
653323358715729921,562937,473458,515624
653323358723164616,563043,473436,515723
653323358730599311,563047,473498,515725
653323358738034006,563365,473544,515838
653323358745468701,563401,473693,515902
653323358752903396,563610,473828,516047
653323358760338091,563769,473864,516126
653323358767772786,563765,473831,516267
653323358775207481,563808,473795,516360
653323358782642176,563875,473901,516436
653323358789984036,563973,474072,516301
653323358797424192,563995,474135,516542
653323358804864348,563961,474115,516591
653323358812304504,564139,474192,516750
653323358819744660,564321,474396,516823
653323358827184816,564431,474385,516927
653323358834624972,564434,474467,516978
653323358842065128,564543,474420,516977
653323358849505284,564657,474509,517221
653323358856945440,564773,474615,517326
653323358864385596,564867,474551,517358
653323358871825752,565145,474701,517500
653323358879265908,565146,474682,517694
653323358886706064,565188,474878,517767
653323358894146220,565352,474761,517882
653323358901586376,565556,475000,517863
653323358909026532,565598,475159,518066
653323358916466688,565680,475082,518099
653323358923968749,565829,475249,517922
653323358931405264,565863,475334,518148
653323358938841779,565845,475275,518266
653323358946278294,565839,475258,518292
653323358953714809,565855,475220,518315
653323358961151324,565652,475263,518250
653323358968587839,565683,475132,518277
653323358976024354,565428,474963,518012
653323358983460869,565387,474919,517878
653323358990897384,565217,474852,517666
653323358998333899,565030,474885,517551
653323359005770414,564811,474688,517399
653323359013206929,564579,474581,517226
653323359020643444,564471,474414,517151
653323359028079959,564432,474326,517050
653323359035516474,564317,474350,516970
653323359042952989,564103,474236,516791
653323359050389504,563923,474161,516645
653323359057856969,563656,474305,516539
653323359065291664,563669,474020,516454
653323359072726359,563603,473996,516370
653323359080161054,563362,473945,516202
653323359087595749,563307,473775,516097
653323359095030444,563075,473645,515949
653323359102465139,562923,473639,515757
653323359109899834,562997,473587,515777
653323359117334529,563024,473497,515744
653323359124769224,562775,473598,515656
653323359132203919,562710,473313,515535
653323359139638614,562635,473289,515498
653323359147073309,562489,473206,515343
653323359154508004,562435,473226,515257
653323359161942699,562422,473249,515169
653323359169377394,562360,473198,515185
653323359176812089,562431,473126,515267
653323359184246784,562286,473182,515127
653323359191619584,562103,473141,515282
653323359199057920,562275,473197,515174
653323359206496256,562363,473218,515087
653323359213934592,562267,473127,515016
653323359221372928,562290,473062,515128
653323359228811264,562317,473048,515088
653323359236249600,562120,472987,515020
653323359243687936,562133,473060,515020
653323359251126272,562224,473111,515029
653323359258564608,562228,473151,514981
653323359266002944,562188,473233,515054
653323359273441280,561990,473162,514930
653323359280879616,562138,473098,514970
653323359288317952,562200,473160,514887
653323359295756288,562268,473147,514981
653323359303194624,562207,473098,515044
653323359310632960,562173,473111,514970
653323359318071296,562268,473099,515059
653323359325540589,562309,473288,515139
653323359332977104,562357,473113,515101
653323359340413619,562232,473040,515134
653323359347850134,562219,472965,515116
653323359355286649,562270,472967,515127
653323359362723164,562292,473018,515177
653323359370159679,562217,473009,515088
653323359377596194,562271,473118,515190
653323359385032709,562388,473262,515145
653323359392469224,562311,473355,515180
653323359399905739,562409,473361,515236
653323359407342254,562404,473342,515266
653323359414778769,562590,473366,515326
653323359422215284,562631,473357,515367
653323359429651799,562656,473474,515571
653323359437088314,562712,473577,515466
653323359444524829,562845,473410,515464
653323359451961344,562757,473514,515595
653323359459366912,562933,473730,515548
653323359466805248,563038,473536,515635
653323359474243584,563024,473658,515728
653323359481681920,563119,473741,515797
653323359489120256,563224,473709,515859
653323359496558592,563173,473700,516059
653323359503996928,563229,473682,516019
653323359511435264,563381,473747,516202
653323359518873600,563438,473884,516226
653323359526311936,563504,473782,516253
653323359533750272,563650,474005,516457
653323359541188608,563663,474006,516289
653323359548626944,563617,474010,516315
653323359556065280,563735,474076,516428
653323359563503616,563919,474226,516647
653323359570941952,563865,474283,516660
653323359578380288,564083,474257,516746
653323359585818624,564193,474288,516815
653323359593318857,564465,474137,517119
653323359600753552,564534,474277,517111
653323359608188247,564583,474372,517145
653323359615622942,564588,474407,517167
653323359623057637,564646,474497,517208
653323359630492332,564812,474577,517406
653323359637927027,564812,474601,517428
653323359645361722,564869,474698,517510
653323359652796417,565079,474804,517586
653323359660231112,564988,474844,517601
653323359667665807,565164,474957,517759
653323359675100502,565239,474983,517805
653323359682535197,565332,474970,517784
653323359689969892,565425,475163,518006
653323359697404587,565551,475110,518138
653323359704839282,565631,475198,518079
653323359712273977,565567,475283,518098
653323359719708672,565807,475299,518253
653323359727081472,565961,475568,518132
653323359734519808,565951,475431,518311
653323359741958144,566004,475518,518363
653323359749396480,566000,475448,518526
653323359756834816,566191,475645,518590
653323359764273152,566296,475685,518715
653323359771711488,566451,475594,518857
653323359779149824,566564,475764,518988
653323359786588160,566689,475833,519043
653323359794026496,566711,475780,519204
653323359801464832,566790,475939,519207
653323359808903168,566833,476114,519230
653323359816341504,566852,476001,519248
653323359823779840,566921,475945,519344
653323359831218176,566938,475988,519267
653323359838656512,566916,475969,519341
653323359846094848,566731,475911,519215
653323359853533184,566485,475714,518944
653323359861033417,566565,475683,518794
653323359868468112,566427,475593,518745
653323359875902807,566135,475379,518548
653323359883337502,565861,475224,518371
653323359890772197,565575,475187,518301
653323359898206892,565342,475061,518172
653323359905641587,565253,474902,518090
653323359913076282,565071,474799,517875
653323359920510977,565035,474748,517792
653323359927945672,564764,474629,517689
653323359935380367,564474,474381,517323
653323359942815062,564340,474325,517229
653323359950249757,564331,474267,517105
653323359957684452,564192,474128,516969
653323359965119147,563998,474241,516997
653323359972553842,563801,474077,516669
653323359979988537,563718,473945,516564
653323359987423232,563424,473920,516440
653323359994765092,563576,473913,516537
653323360002205248,563243,473687,516338
653323360009645404,563059,473657,516111
653323360017085560,562891,473575,516014
653323360024525716,562826,473548,515837
653323360031965872,562685,473454,515737
653323360039406028,562630,473400,515729
653323360046846184,562523,473235,515603
653323360054286340,562442,473200,515592
653323360061726496,562390,473126,515489
653323360069166652,562216,473161,515347
653323360076606808,562109,473118,515237
653323360084046964,562077,473003,515161
653323360091487120,562076,473014,515104
653323360098927276,562081,473054,515178
653323360106367432,562128,473044,515049
653323360113807588,562095,472939,515254
653323360121247744,562063,473066,515170
653323360128811702,562266,473198,514976
653323360136244576,562147,473078,515104
653323360143677450,561997,473099,514989
653323360151110324,561984,473087,515175
653323360158543198,561909,473094,515108
653323360165976072,562017,473081,515140
653323360173408946,561984,473066,515101
653323360180841820,561973,472950,515097
653323360188274694,561864,472938,515036
653323360195707568,561906,473001,515007
653323360203140442,561936,472932,515004
653323360210573316,561879,472845,515085
653323360218006190,561987,472938,515000
653323360225439064,561898,472895,514900
653323360232871938,561919,472915,514967
653323360240304812,561977,472959,515035
653323360247737686,561982,472981,515084
653323360255170560,561987,473054,515020
653323360262479652,561620,472806,514834
653323360269919808,561746,472922,514896
653323360277359964,561961,473065,514961
653323360284800120,561972,473140,515154
653323360292240276,562177,473084,515224
653323360299680432,562153,473119,515331
653323360307120588,562223,473099,515351
653323360314560744,562100,473106,515224
653323360322000900,562114,473085,515408
653323360329441056,562138,473177,515382
653323360336881212,562239,473135,515415
653323360344321368,562436,473200,515434
653323360351761524,562358,473332,515411
653323360359201680,562499,473360,515527
653323360366641836,562507,473230,515760
653323360374081992,562568,473404,515735
653323360381522148,562810,473501,515721
653323360388962304,562832,473421,515853
653323360396464365,562782,473646,515938
653323360403900880,562778,473624,515753
653323360411337395,562866,473459,515868
653323360418773910,562884,473477,515856
653323360426210425,563067,473595,516018
653323360433646940,563081,473911,516174
653323360441083455,563184,473959,516167
653323360448519970,563168,473792,516304
653323360455956485,563293,473840,516358
6.53323E+17,563336,473836,516337
653323360470829515,563407,473847,516452
653323360478266030,563440,473932,516464
653323360485702545,563410,473801,516489
653323360493139060,563537,473953,516521
653323360500575575,563649,474133,516612
653323360508012090,563820,474093,516847
653323360515448605,563876,474265,516862
653323360522885120,564055,474289,516901
653323360530290688,563819,474323,516962
653323360537729024,563991,474344,517000
653323360545167360,564099,474341,517085
653323360552605696,564157,474440,517207
653323360560044032,564345,474562,517258
653323360567482368,564335,474544,517361
653323360574920704,564470,474599,517439
653323360582359040,564483,474612,517502
653323360589797376,564552,474674,517645
653323360597235712,564660,474794,517837
653323360604674048,564821,474735,517867
653323360612112384,564897,474762,517907
653323360619550720,564980,474920,517908
653323360626989056,565112,475059,517953
653323360634427392,565309,474949,518048
653323360641865728,565412,475100,518260
653323360649304064,565387,475211,518268
653323360656742400,565427,475154,518380
653323360664242633,565407,475533,518245
653323360671677328,565626,475606,518517
653323360679112023,565606,475534,518574
653323360686546718,565724,475485,518598
653323360693981413,565870,475402,518676
653323360701416108,566019,475423,518829
653323360708850803,566009,475401,518826
653323360716285498,566051,475549,518934
653323360723720193,565942,475524,518891
653323360731154888,565814,475316,518798
653323360738589583,565721,475367,518551
653323360746024278,565485,475192,518543
653323360753458973,565202,475096,518346
653323360760893668,565029,474876,518338
653323360768328363,565025,474818,518124
653323360775763058,564746,474622,517925
653323360783197753,564435,474518,517671
653323360790632448,564215,474344,517434
653323360798005248,564205,474121,517283
653323360805443584,564043,473993,517113
653323360812881920,563796,473928,516874
653323360820320256,563628,473800,516863
653323360827758592,563202,473763,516424
653323360835196928,562994,473579,516349
653323360842635264,563034,473607,516348
653323360850073600,562783,473505,516069
653323360857511936,562469,473314,515907
653323360864950272,562271,473130,515745
653323360872388608,562151,473165,515649
653323360879826944,562044,473027,515626
653323360887265280,561694,472963,515428
653323360894703616,561553,472953,515256
653323360902141952,561342,472821,515141
653323360909580288,561349,472685,514995
653323360917018624,561089,472556,514853
653323360924456960,560924,472377,514639
653323360931926253,560724,472255,514350
653323360939362768,560611,472105,514289
653323360946799283,560618,472122,514300
653323360954235798,560496,472045,514222
653323360961672313,560527,471937,514170
653323360969108828,560262,471899,514069
653323360976545343,560174,471820,513967
653323360983981858,560163,471817,513863
653323360991418373,560112,471790,513839
653323360998854888,559969,471929,513776
653323361006291403,559903,471911,513759
653323361013727918,560035,471841,513787
653323361021164433,560021,471894,513754
653323361028600948,559917,471789,513753
653323361036037463,559848,471806,513706
653323361043473978,559890,471700,513668
653323361050910493,559841,471574,513612
653323361058347008,559827,471527,513600
653323361065783533,559502,471335,513452
653323361073220048,559590,471446,513400
653323361080656563,559673,471626,513411
653323361088093078,559629,471568,513405
653323361095529593,559626,471542,513441
653323361102966108,559604,471471,513450
653323361110402623,559743,471479,513466
653323361117839138,559645,471513,513398
653323361125275653,559704,471510,513399
653323361132712168,559662,471618,513406
653323361140148683,559566,471603,513335
653323361147585198,559541,471576,513338
653323361155021713,559644,471523,513379
653323361162458228,559759,471645,513380
653323361169894743,559612,471680,513439
653323361177331258,559685,471632,513415
653323361184767773,559741,471659,513441
653323361192204288,559722,471665,513404
653323361199640813,559895,471866,513743
653323361207077328,559894,471823,513687
653323361214513843,559788,471772,513692
653323361221950358,559850,471734,513692
653323361229386873,560097,471882,513677
653323361236823388,559997,471785,513705
653323361244259903,560159,471758,513800
653323361251696418,560133,471937,513872
653323361259132933,560190,472072,514007
653323361266569448,560239,472034,514005
653323361274005963,560334,471944,514022
653323361281442478,560278,471939,514014
653323361288878993,560419,471970,514181
653323361296315508,560478,472106,514153
653323361303752023,560515,472117,514234
653323361311188538,560597,472123,514217
653323361318625053,560739,472139,514390
653323361326061568,560662,472148,514292
653323361333529033,561072,472424,514183
653323361340963728,560912,472384,514494
653323361348398423,560952,472396,514514
653323361355833118,560944,472369,514509
653323361363267813,561102,472534,514641
653323361370702508,561074,472503,514646
653323361378137203,561313,472538,514773
653323361385571898,561313,472503,514879
653323361393006593,561424,472701,515041
653323361400441288,561451,472739,515043
653323361407875983,561660,472797,515101
653323361415310678,561689,472797,515109
653323361422745373,561600,472787,515199
653323361430180068,561761,472927,515214
653323361437614763,561774,472815,515410
653323361445049458,562010,472917,515483
653323361452484153,562016,473067,515625
653323361459918848,562248,473060,515708
653323361467260708,562388,473076,516036
653323361474700864,562448,473280,515960
653323361482141020,562605,473151,515899
653323361489581176,562690,473314,516041
653323361497021332,562694,473271,516030
653323361504461488,562781,473271,516166
653323361511901644,562964,473426,516219
653323361519341800,563050,473593,516357
653323361526781956,563053,473584,516442
653323361534222112,563189,473655,516567
653323361541662268,563335,473852,516621
653323361549102424,563460,473981,516720
653323361556542580,563583,473985,516801
653323361563982736,563635,474067,516793
653323361571422892,563805,473992,516879
653323361578863048,563882,474047,516973
653323361586303204,563881,473969,517157
653323361593743360,563824,474014,517048
653323361601276361,564038,474380,517023
653323361608711056,563741,474117,517070
653323361616145751,563516,473937,516854
653323361623580446,563422,473894,516829
653323361631015141,563156,473603,516778
653323361638449836,563019,473589,516728
653323361645884531,562819,473512,516531
653323361653319226,562675,473342,516367
653323361660753921,562521,473146,516114
653323361668188616,562377,473120,516042
653323361675623311,562155,472989,515909
653323361683058006,561779,472882,515520
653323361690492701,561756,472693,515362
653323361697927396,561471,472463,515160
653323361705362091,561187,472291,514918
653323361712796786,560970,472332,514743
653323361720231481,560884,472181,514652
653323361727666176,560624,471969,514415
653323361735038976,560563,471835,514438
653323361742477312,560187,471786,514217
653323361749915648,560006,471680,513919
653323361757353984,559858,471546,513770
653323361764792320,559585,471485,513693
653323361772230656,559469,471393,513577
653323361779668992,559371,471257,513395
653323361787107328,559249,471158,513192
653323361794545664,558891,471050,513045
6.53323E+17,558684,470969,512743
653323361809422336,558631,470865,512764
653323361816860672,558398,470801,512546
653323361824299008,558504,470737,512578
653323361831737344,558426,470559,512558
653323361839175680,558362,470488,512394
653323361846614016,558256,470482,512349
653323361854052352,558212,470562,512269
653323361861490688,558048,470459,512143
653323361868929024,557863,470385,512332
653323361876367360,557955,470509,512291
653323361883805696,557968,470551,512131
653323361891244032,557907,470335,512047
653323361898682368,557928,470329,512089
653323361906120704,557919,470282,512007
653323361913559040,557875,470373,512063
653323361920997376,557770,470300,511991
653323361928435712,557933,470379,512038
653323361935874048,557700,470361,511883
653323361943312384,557779,470231,511927
653323361950750720,557693,470266,511861
653323361958189056,557760,470273,511870
653323361965627392,557731,470250,511769
653323361973065728,557787,470273,511773
653323361980504064,557779,470236,511708
653323361987942400,557628,470196,511761
653323361995380736,557704,470206,511756
653323362002850029,557919,470092,511842
653323362010286544,557732,470146,511851
653323362017723059,557708,470201,511841
653323362025159574,557764,470146,511810
653323362032596089,557666,470160,511888
653323362040032604,557747,470321,511776
653323362047469119,557728,470322,511796
653323362054905634,557770,470352,511884
653323362062342149,557986,470296,511940
653323362069778664,557862,470358,511876
653323362077215179,558024,470356,512032
653323362084651694,558051,470440,512040
653323362092088209,558073,470523,512052
653323362099524724,558156,470747,512312
653323362106961239,558137,470525,512143
653323362114397754,558077,470519,512224
653323362121834269,558261,470621,512337
653323362129270784,558303,470766,512360
653323362136738249,558408,470554,512206
653323362144172944,558464,470688,512373
653323362151607639,558531,470789,512496
653323362159042334,558653,470904,512587
653323362166477029,558839,470805,512620
653323362173911724,558747,470807,512738
653323362181346419,558885,470850,512739
653323362188781114,558916,470960,512824
653323362196215809,559066,471133,512870
653323362203650504,559027,471176,513020
653323362211085199,559197,471018,513106
653323362218519894,559150,471291,513148
653323362225954589,559138,471235,513084
653323362233389284,559367,471244,513208
653323362240823979,559466,471399,513368
653323362248258674,559692,471343,513288
653323362255693369,559553,471396,513286
653323362263128064,559732,471505,513403
653323362270500864,559509,471436,513598
653323362277939200,559721,471663,513735
653323362285377536,559932,471778,513783
653323362292815872,560034,471649,513732
653323362300254208,560258,471679,513879
653323362307692544,560071,471675,513946
653323362315130880,560254,471757,514065
653323362322569216,560238,471787,514029
653323362330007552,560499,472086,514299
653323362337445888,560583,471955,514276
653323362344884224,560658,472095,514347
653323362352322560,560720,472207,514482
653323362359760896,560937,472198,514539
653323362367199232,560914,472318,514674
653323362374637568,560938,472279,514761
653323362382075904,561219,472411,514705
653323362389514240,561247,472452,514943
653323362396952576,561276,472534,515005
653323362404390912,561604,472608,515289
653323362411829248,561649,472735,515246
653323362419267584,561861,472774,515240
653323362426705920,561785,472675,515374
653323362434144256,561602,472810,515275
653323362441582592,561720,472652,515237
653323362449020928,561683,472682,515314
653323362456459264,561552,472610,515245
653323362463897600,561454,472485,515108
653323362471335936,561281,472327,514856
653323362478774272,561115,472219,514720
653323362486212608,560895,472151,514631
653323362493650944,560634,472079,514349
653323362501089280,560511,471857,514244
653323362508527616,560340,471642,514100
653323362515965952,559951,471558,513801
653323362523404288,559845,471427,513609
653323362530842624,559677,471311,513604
653323362538311917,559756,470901,513566
653323362545748432,559447,470932,513385
653323362553184947,559152,470828,513024
653323362560621462,559131,470765,513020
653323362568057977,558869,470837,512871
653323362575494492,558752,470816,512772
653323362582931007,558569,470703,512637
653323362590367522,558497,470456,512498
653323362597804037,558158,470391,512333
653323362605240552,558109,470303,512135
653323362612677067,557989,470316,512096
653323362620113582,557841,470071,511991
653323362627550097,557614,470115,511795
653323362634986612,557531,470063,511816
653323362642423127,557361,470082,511735
653323362649859642,557380,469925,511528
653323362657296157,557204,469892,511504
653323362664732672,557128,469722,511450
653323362672138240,557242,469879,511442
653323362679576576,556993,469843,511282
653323362687014912,556983,469812,511284
653323362694453248,556930,469675,511228
653323362701891584,556954,469622,511272
653323362709329920,556877,469778,511188
653323362716768256,556869,469688,511264
653323362724206592,557037,469590,511160
653323362731644928,557031,469754,511168
653323362739083264,557057,469681,511097
653323362746521600,556834,469693,510990
653323362753959936,556835,469534,511000
653323362761398272,556823,469642,511021
653323362768836608,556785,469762,511116
653323362776274944,556823,469575,511082
653323362783713280,556899,469611,510991
653323362791151616,556869,469635,511065
653323362798589952,557094,469805,511110
653323362806121142,556766,469444,510792
653323362813554016,556772,469580,510979
653323362820986890,556862,469853,510995
653323362828419764,556872,469724,511105
653323362835852638,556950,469715,511131
653323362843285512,556888,469597,511079
653323362850718386,556879,469628,511127
653323362858151260,556909,469717,511092
653323362865584134,556905,469707,511192
653323362873017008,557061,469839,511230
653323362880449882,556999,469670,511203
653323362887882756,556959,469800,511255
653323362895315630,557099,469843,511302
653323362902748504,557207,469858,511441
653323362910181378,557395,469950,511325
653323362917614252,557400,469927,511530
653323362925047126,557526,470011,511518
6.53323E+17,557515,470080,511597
653323362939789092,557766,469847,511513
653323362947229248,557700,470046,511687
653323362954669404,557844,470113,511865
653323362962109560,557876,470028,511895
653323362969549716,557912,470030,511940
653323362976989872,557987,470178,511963
653323362984430028,558052,470328,512024
653323362991870184,558118,470440,512087
653323362999310340,558114,470508,512268
653323363006750496,558170,470511,512288
653323363014190652,558280,470543,512363
653323363021630808,558305,470610,512343
653323363029070964,558350,470642,512341
653323363036511120,558589,470671,512491
653323363043951276,558514,470663,512542
653323363051391432,558630,470589,512574
653323363058831588,558669,470657,512596
653323363066271744,558697,470589,512604
653323363073804745,559009,470852,512473
653323363081239440,559040,470902,512811
653323363088674135,558995,470929,512868
653323363096108830,559088,471054,512954
653323363103543525,559325,471022,513054
653323363110978220,559456,471133,513263
653323363118412915,559497,471166,513275
653323363125847610,559586,471213,513400
653323363133282305,559668,471218,513403
6.53323E+17,559723,471424,513521
653323363148151695,559764,471336,513608
653323363155586390,559831,471397,513673
653323363163021085,559906,471423,513702
653323363170455780,560030,471560,513936
653323363177890475,560051,471576,513931
653323363185325170,560240,471528,514004
653323363192759865,560415,471660,514026
653323363200194560,560521,471717,514153
653323363207567360,560346,471841,514134
653323363215005696,560512,471853,514252
653323363222444032,560617,471846,514242
653323363229882368,560511,471934,514271
653323363237320704,560627,471912,514341
653323363244759040,560639,471774,514275
653323363252197376,560534,471723,514261
653323363259635712,560356,471688,514032
653323363267074048,560162,471615,513900
653323363274512384,559967,471306,513786
653323363281950720,559812,471246,513732
653323363289389056,559577,471050,513489
653323363296827392,559423,470939,513289
653323363304265728,559106,470900,513128
653323363311704064,559106,470735,512995
653323363319142400,558913,470695,512836
653323363326580736,558655,470508,512630
653323363334019072,558380,470226,512411
653323363341488365,558332,470282,512030
653323363348924880,557995,470115,511923
653323363356361395,557810,469969,511816
653323363363797910,557558,469902,511709
653323363371234425,557432,469752,511548
653323363378670940,557134,469531,511449
653323363386107455,556962,469386,511246
653323363393543970,556840,469433,510983
653323363400980485,556667,469214,510881
6.53323E+17,556546,469131,510705
653323363415853515,556196,469088,510533
653323363423290030,556076,468860,510384
653323363430726545,556067,468845,510292
653323363438163060,556003,468755,510204
653323363445599575,555704,468782,509956
653323363453036090,555661,468677,509869
653323363460472605,555558,468614,509812
653323363467909120,555352,468562,509687
653323363475345645,555288,468736,509628
653323363482782160,555265,468599,509640
653323363490218675,555135,468528,509449
653323363497655190,555099,468511,509442
653323363505091705,554968,468317,509325
653323363512528220,554891,468370,509361
653323363519964735,555097,468448,509454
653323363527401250,554967,468420,509422
653323363534837765,555028,468389,509443
653323363542274280,554872,468405,509302
653323363549710795,554899,468288,509294
653323363557147310,555010,468332,509258
653323363564583825,554924,468341,509215
653323363572020340,554935,468286,509276
653323363579456855,554872,468270,509236
653323363586893370,554886,468348,509189
653323363594329885,554840,468368,509272
653323363601766400,554746,468242,509189
653323363609171968,554605,468229,509089
653323363616610304,554661,468331,509149
653323363624048640,554771,468388,509117
653323363631486976,554705,468249,509073
653323363638925312,554800,468305,509182
653323363646363648,554857,468339,509211
653323363653801984,554904,468412,509224
653323363661240320,554989,468454,509301
653323363668678656,555204,468377,509299
653323363676116992,555131,468481,509459
653323363683555328,555092,468544,509391
653323363690993664,555157,468574,509455
6.53323E+17,555274,468534,509541
653323363705870336,555220,468621,509572
653323363713308672,555231,468764,509569
653323363720747008,555219,468685,509556
653323363728185344,555354,468641,509692
653323363735623680,555448,468587,509704
653323363743092973,555423,468529,509797
653323363750529488,555546,468837,509874
653323363757966003,555555,468714,509930
653323363765402518,555732,468807,509977
653323363772839033,555770,469016,510093
653323363780275548,555838,468949,510036
653323363787712063,555890,469116,510124
653323363795148578,556055,469071,510192
653323363802585093,555989,469128,510262
653323363810021608,556108,469193,510271
653323363817458123,556130,469212,510429
653323363824894638,556141,469253,510402
653323363832331153,556346,469311,510409
653323363839767668,556393,469375,510531
653323363847204183,556430,469476,510711
653323363854640698,556566,469419,510807
653323363862077213,556658,469368,510915
653323363869513728,556831,469519,511034
653323363876950253,556631,469357,510955
653323363884386768,556755,469485,511069
653323363891823283,556995,469703,511239
653323363899259798,557253,469611,511297
653323363906696313,557296,469650,511322
653323363914132828,557321,469828,511353
653323363921569343,557364,470039,511530
653323363929005858,557543,470093,511546
653323363936442373,557683,470089,511726
653323363943878888,557779,470161,511823
653323363951315403,557876,470307,511848
653323363958751918,557994,470270,512083
653323363966188433,558043,470406,512084
653323363973624948,558204,470474,512160
653323363981061463,558307,470606,512262
653323363988497978,558297,470550,512378
653323363995934493,558478,470461,512407
653323364003371008,558529,470663,512605
653323364010807533,558724,470852,512652
653323364018244048,558779,470752,512676
653323364025680563,558924,470751,512822
653323364033117078,558861,470762,512777
653323364040553593,558862,470829,512887
653323364047990108,558922,470880,512920
653323364055426623,558835,470774,512970
653323364062863138,558859,470754,512972
653323364070299653,558756,470822,512740
653323364077736168,558679,470666,512709
653323364085172683,558439,470570,512546
653323364092609198,558145,470494,512333
653323364100045713,557945,470403,512111
653323364107482228,557888,470302,512089
653323364114918743,557642,470218,511846
653323364122355258,557536,470103,511746
653323364129791773,557346,469975,511530
653323364137228288,557120,469818,511341
653323364144695753,556614,469702,511403
653323364152130448,556486,469629,511139
653323364159565143,556375,469563,510861
653323364166999838,556316,469407,510588
653323364174434533,556049,469265,510343
653323364181869228,555975,469151,510265
653323364189303923,555783,469113,510222
653323364196738618,555589,468897,510114
653323364204173313,555486,468779,510022
653323364211608008,555284,468790,509658
653323364219042703,555069,468588,509530
653323364226477398,554868,468541,509388
653323364233912093,554698,468456,509231
653323364241346788,554594,468349,509124
653323364248781483,554358,468314,508938
653323364256216178,554249,468235,508749
653323364263650873,554122,468122,508509
653323364271085568,554096,467991,508564
653323364278427428,554013,468185,508421
653323364285867584,553738,467901,508314
653323364293307740,553663,467919,508274
653323364300747896,553654,467892,508284
653323364308188052,553653,468024,508250
653323364315628208,553495,467899,508174
653323364323068364,553519,467823,508162
653323364330508520,553613,467905,508208
653323364337948676,553548,467957,508064
653323364345388832,553665,467847,508068
653323364352828988,553526,467930,508030
653323364360269144,553600,467875,508104
653323364367709300,553558,467905,508168
653323364375149456,553476,467828,508075
653323364382589612,553556,467927,508106
653323364390029768,553612,467834,508013
653323364397469924,553583,467845,508042
653323364404910080,553680,467813,508147
653323364412474038,553675,467931,508361
653323364419906912,553585,468014,508268
653323364427339786,553583,467883,508218
653323364434772660,553699,467791,508179
653323364442205534,553689,467851,508200
653323364449638408,553664,467973,508245
653323364457071282,553631,468065,508169
653323364464504156,553663,467939,508140
653323364471937030,553775,467851,508206
653323364479369904,553733,468002,508227
653323364486802778,553831,468070,508169
653323364494235652,553932,468089,508291
653323364501668526,553992,468141,508353
653323364509101400,553993,468137,508463
653323364516534274,554114,468232,508593
653323364523967148,554016,468221,508584
653323364531400022,554059,468139,508633
653323364538832896,554209,468311,508718
653323364546172928,554386,468412,508864
653323364553611264,554419,468488,508732
653323364561049600,554336,468425,508837
653323364568487936,554553,468556,508852
653323364575926272,554607,468686,508988
653323364583364608,554677,468718,508995
653323364590802944,554777,468699,508999
653323364598241280,554797,468725,509140
653323364605679616,554995,468662,509177
653323364613117952,555058,468855,509175
653323364620556288,555142,469001,509318
653323364627994624,555232,469011,509381
653323364635432960,555162,469087,509492
653323364642871296,555295,469016,509495
653323364650309632,555459,469179,509632
653323364657747968,555499,469163,509737
653323364665186304,555632,469339,509804
653323364672624640,555628,469349,509858
653323364680062976,556110,469316,509677
653323364687501312,555989,469477,509970
653323364694939648,556107,469635,510162
653323364702377984,556249,469550,510324
653323364709816320,556302,469684,510367
653323364717254656,556396,469743,510517
653323364724692992,556279,469843,510504
653323364732131328,556622,469827,510638
653323364739569664,556639,469870,510741
6.53323E+17,556775,469835,510869
653323364754446336,556822,470081,511041
653323364761884672,557082,470100,511122
653323364769323008,557125,470131,511200
653323364776761344,557178,470157,511234
653323364784199680,557230,470097,511347
653323364791638016,557330,470350,511409
653323364799076352,557497,470358,511697
653323364806514688,557621,470447,511684
653323364814014921,557901,470539,511730
653323364821449616,558065,470750,511757
653323364828884311,557984,470818,511759
653323364836319006,558132,470882,511944
653323364843753701,558291,471024,512136
653323364851188396,558412,471092,512218
653323364858623091,558380,471234,512313
653323364866057786,558460,471131,512440
653323364873492481,558551,471203,512606
653323364880927176,558817,471399,512706
653323364888361871,558770,471411,512724
653323364895796566,559125,471408,512806
653323364903231261,559030,471518,512764
653323364910665956,559038,471656,512822
653323364918100651,558933,471525,512792
653323364925535346,558729,471395,512763
653323364932970041,558869,471417,512747
653323364940404736,558637,471303,512577
653323364947777536,558866,471624,512303
653323364955215872,558588,471318,512233
653323364962654208,558347,471122,512102
653323364970092544,558170,471039,511985
653323364977530880,557932,471038,511991
653323364984969216,557794,470758,511766
653323364992407552,557734,470756,511633
653323364999845888,557451,470648,511451
653323365007284224,557302,470596,511331
653323365014722560,557120,470443,511220
653323365022160896,556938,470356,511088
653323365029599232,556881,470272,510837
653323365037037568,556747,470221,510738
653323365044475904,556589,470174,510631
653323365051914240,556422,470191,510490
653323365059352576,556310,470095,510442
653323365066790912,556126,470031,510308
653323365074229248,555952,469855,510131
653323365081698541,555729,469940,510087
653323365089135056,555660,469824,510028
653323365096571571,555512,469591,509787
653323365104008086,555317,469675,509687
653323365111444601,555241,469675,509574
653323365118881116,555235,469523,509557
653323365126317631,555179,469443,509524
653323365133754146,555046,469352,509374
653323365141190661,554966,469308,509253
653323365148627176,554949,469287,509168
653323365156063691,554890,469237,509043
653323365163500206,554949,469295,509090
653323365170936721,554930,469328,509180
653323365178373236,554909,469296,509216
653323365185809751,555016,469431,509210
653323365193246266,554919,469430,509249
653323365200682781,555011,469315,509136
653323365208119296,555044,469431,509260
653323365215555821,554755,469203,509159
653323365222992336,554861,469345,509164
653323365230428851,554875,469379,509270
653323365237865366,554974,469396,509301
653323365245301881,554985,469463,509330
653323365252738396,555154,469497,509301
653323365260174911,555248,469392,509349
653323365267611426,555108,469391,509332
653323365275047941,555162,469411,509226
653323365282484456,555270,469415,509351
653323365289920971,555222,469505,509395
653323365297357486,555130,469597,509406
653323365304794001,555146,469551,509330
653323365312230516,555172,469642,509438
653323365319667031,555206,469737,509396
653323365327103546,555265,469711,509506
653323365334540061,555425,469796,509505
653323365341976576,555450,469802,509530
653323365349382144,555668,470069,509879
653323365356820480,555524,469963,509727
653323365364258816,555563,469942,509768
653323365371697152,555612,470028,509840
653323365379135488,555751,470061,509916
653323365386573824,555719,470092,510005
653323365394012160,555845,470136,510038
653323365401450496,555931,470100,510108
653323365408888832,556032,470280,510114
653323365416327168,556281,470272,510251
653323365423765504,556391,470320,510316
653323365431203840,556282,470426,510307
653323365438642176,556480,470399,510446
653323365446080512,556559,470483,510448
653323365453518848,556619,470403,510612
653323365460957184,556808,470595,510740
653323365468395520,556870,470637,510649
653323365475833856,556945,470676,510835
653323365483334089,556959,470806,510856
653323365490768784,556984,470909,510973
653323365498203479,557099,470912,511092
653323365505638174,557285,470893,511173
653323365513072869,557390,470990,511260
653323365520507564,557607,471003,511417
653323365527942259,557723,471137,511659
653323365535376954,557691,471311,511599
653323365542811649,557736,471195,511623
653323365550246344,557821,471386,511750
653323365557681039,558008,471491,511867
653323365565115734,558099,471421,511840
653323365572550429,558312,471533,511961
653323365579985124,558242,471577,512057
653323365587419819,558409,471658,512241
653323365594854514,558604,471761,512226
653323365602289209,558633,471749,512352
653323365609723904,558609,471753,512542
653323365617127661,558973,471661,512407
653323365624564176,559012,471899,512542
653323365632000691,559071,472091,512826
653323365639437206,559177,472260,512879
653323365646873721,559261,472297,513033
653323365654310236,559547,472411,513099
653323365661746751,559699,472487,513232
653323365669183266,559712,472631,512991
653323365676619781,559782,472608,513240
653323365684056296,560068,472674,513474
653323365691492811,560074,472753,513687
653323365698929326,560401,472801,513805
653323365706365841,560375,472895,513948
653323365713802356,560611,473036,514088
653323365721238871,560618,473203,514162
653323365728675386,560867,473338,514345
653323365736111901,560982,473385,514373
653323365743548416,561009,473332,514486
653323365750953984,560941,473211,514831
653323365758392320,561169,473480,514802
653323365765830656,561195,473591,514675
653323365773268992,561267,473475,514742
653323365780707328,561275,473383,514700
653323365788145664,561138,473427,514664
6.53323E+17,561105,473435,514590
653323365803022336,560934,473370,514572
653323365810460672,560745,473273,514485
653323365817899008,560521,473260,514403
653323365825337344,560447,473077,514171
653323365832775680,560308,472928,514025
653323365840214016,560265,472959,513937
653323365847652352,560213,472929,513993
653323365855090688,559984,472861,513643
653323365862529024,559911,472700,513534
653323365869967360,559859,472752,513621
653323365877405696,559752,472742,513528
653323365884874989,559610,472488,513406
653323365892311504,559489,472640,513280
653323365899748019,559283,472628,513108
653323365907184534,559091,472545,512879
653323365914621049,558984,472397,512816
653323365922057564,558814,472411,512712
653323365929494079,558788,472238,512736
653323365936930594,558747,472309,512695
653323365944367109,558639,472287,512592
653323365951803624,558526,472105,512534
653323365959240139,558493,472222,512476
653323365966676654,558503,472159,512395
653323365974113169,558138,472141,512256
653323365981549684,558194,472039,512280
653323365988986199,558216,472093,511975
653323365996422714,558141,472058,512000
653323366003859229,558117,472037,511977
653323366011295744,558125,471918,511949
653323366018763209,557996,472206,512062
653323366026197904,558085,472128,512015
653323366033632599,558117,472150,512100
653323366041067294,558066,472071,512106
653323366048501989,558200,472230,512073
653323366055936684,558267,471895,512034
653323366063371379,558253,472053,512066
653323366070806074,558350,472126,512116
653323366078240769,558356,472226,512028
653323366085675464,558405,472196,512025
653323366093110159,558374,472172,512075
653323366100544854,558431,472248,512101
653323366107979549,558393,472241,512024
653323366115414244,558296,472099,512109
653323366122848939,558383,472216,512107
653323366130283634,558398,472130,512171
653323366137718329,558372,472242,512254
653323366145153024,558393,472201,512169
653323366152587721,558234,472188,512229
653323366160022416,558373,472324,512184
653323366167457111,558426,472338,512259
653323366174891806,558384,472487,512252
653323366182326501,558494,472450,512229
653323366189761196,558526,472436,512333
653323366197195891,558703,472451,512466
653323366204630586,558680,472471,512610
653323366212065281,558792,472475,512580
653323366219499976,558887,472590,512682
653323366226934671,558927,472576,512599
653323366234369366,559101,472679,512838
653323366241804061,559109,472755,512957
653323366249238756,559117,472658,512879
653323366256673451,559303,472795,512809
653323366264108146,559434,472826,513016
653323366271542841,559450,472893,513132
653323366278977536,559450,472981,513200
653323366286381293,559761,473021,513376
653323366293817808,559699,473267,513421
653323366301254323,559730,473158,513385
653323366308690838,559800,473208,513506
653323366316127353,559905,473292,513633
653323366323563868,560017,473201,513572
653323366331000383,560189,473287,513671
653323366338436898,560307,473196,513810
653323366345873413,560197,473251,513760
653323366353309928,560258,473320,513923
653323366360746443,560445,473454,514011
653323366368182958,560428,473682,514152
653323366375619473,560563,473566,514169
653323366383055988,560607,473683,514232
653323366390492503,560844,473626,514315
653323366397929018,560967,473708,514390
653323366405365533,561038,473899,514533
653323366412802048,561125,473884,514676
653323366420238573,561425,473857,515004
653323366427675088,561431,474001,514943
653323366435111603,561438,474086,514951
653323366442548118,561413,474069,515153
653323366449984633,561454,474298,515080
653323366457421148,561682,474412,515238
653323366464857663,561795,474411,515175
653323366472294178,561789,474400,515266
653323366479730693,562057,474508,515465
653323366487167208,562176,474471,515529
653323366494603723,562064,474625,515544
653323366502040238,562182,474534,515650
653323366509476753,562372,474732,515723
653323366516913268,562603,474726,515967
653323366524349783,562708,474795,516049
653323366531786298,562871,474889,516165
653323366539222813,562877,475037,516153
653323366546659328,562830,475042,516280
653323366554064896,562936,475216,516433
653323366561503232,563100,475142,516406
653323366568941568,563096,475353,516490
653323366576379904,563316,475400,516565
653323366583818240,563322,475379,516667
653323366591256576,563459,475436,516789
653323366598694912,563512,475286,516797
653323366606133248,563507,475373,516917
653323366613571584,563532,475413,516772
653323366621009920,563451,475413,516759
653323366628448256,563184,475387,516686
653323366635886592,563060,475131,516573
653323366643324928,562938,475039,516347
653323366650763264,562666,475016,516184
653323366658201600,562519,474834,516107
653323366665639936,562469,474801,516013
653323366673078272,562381,474743,515884
653323366680516608,562346,474765,515810
653323366687954944,562218,474540,515804
653323366695393280,562141,474583,515528
653323366702831616,561998,474630,515539
653323366710269952,561904,474613,515447
653323366717708288,561663,474423,515244
653323366725146624,561512,474359,515178
653323366732584960,561425,474186,515042
653323366740023296,561266,474239,514875
653323366747461632,561185,474175,514841
653323366754899968,561149,474210,514720
653323366762338304,561002,473917,514717
653323366769776640,560930,474020,514563
653323366777214976,560752,474088,514520
653323366784653312,560828,473876,514345
653323366792091648,560615,473766,514288
653323366799529984,560662,473779,514182
653323366806968320,560565,473698,514052
653323366814406656,560333,473709,514002
653323366821875949,560236,473510,513873
653323366829312464,560155,473540,513746
653323366836748979,560148,473700,513797
653323366844185494,560204,473583,513660
653323366851622009,560186,473616,513748
653323366859058524,560210,473748,513800
653323366866495039,560157,473732,513808
653323366873931554,560161,473748,513787
653323366881368069,560200,473681,513782
653323366888804584,560208,473788,513811
653323366896241099,560209,473579,513828
653323366903677614,560059,473623,513774
653323366911114129,560223,473642,513793
653323366918550644,560202,473747,513816
653323366925987159,560277,473839,513823
653323366933423674,560388,473667,513843
653323366940860189,560250,473913,513933
653323366948296704,560256,473855,513742
653323366955733229,560397,474069,513654
653323366963169744,560346,473898,513781
653323366970606259,560328,473791,513820
653323366978042774,560391,473897,514051
653323366985479289,560396,473862,513944
653323366992915804,560458,473842,514004
653323367000352319,560506,473787,513996
653323367007788834,560596,473806,514063
653323367015225349,560441,473830,513963
653323367022661864,560440,473977,513986
653323367030098379,560525,473958,514068
653323367037534894,560679,474032,514175
653323367044971409,560747,474115,514206
653323367052407924,560846,474039,514273
653323367059844439,560830,474125,514291
653323367067280954,560983,474110,514458
653323367074717469,561032,474191,514482
653323367082153984,561038,474254,514522
653323367089590509,561060,474006,514714
653323367097027024,561161,474235,514732
653323367104463539,561001,474229,514657
653323367111900054,561239,474390,514632
653323367119336569,561390,474415,514827
653323367126773084,561539,474481,514906
653323367134209599,561585,474564,514909
653323367141646114,561591,474552,515014
653323367149082629,561607,474701,515074
653323367156519144,561574,474734,515066
653323367163955659,561806,474713,515172
653323367171392174,561768,474801,515242
653323367178828689,562007,474812,515363
653323367186265204,562026,474742,515306
653323367193701719,562024,474939,515392
653323367201138234,562230,474918,515567
653323367208574749,562439,475041,515652
653323367216011264,562485,475143,515623
653323367223447789,562760,474864,515919
653323367230884304,562678,475091,515942
653323367238320819,562769,475255,515957
653323367245757334,562898,475174,516095
653323367253193849,562801,475266,516078
653323367260630364,562933,475549,516184
653323367268066879,563071,475489,516291
653323367275503394,563257,475434,516473
653323367282939909,563195,475470,516460
653323367290376424,563343,475491,516550
653323367297812939,563371,475536,516560
653323367305249454,563605,475653,516735
653323367312685969,563549,475719,516783
653323367320122484,563705,475899,516946
653323367327558999,563849,475962,517073
653323367334995514,563902,476055,517235
653323367342432029,564074,475982,517273
653323367349868544,564120,476138,517341
653323367357305069,564079,476210,517517
653323367364741584,564284,476190,517518
653323367372178099,564404,476181,517661
653323367379614614,564469,476292,517722
653323367387051129,564547,476441,517751
653323367394487644,564510,476424,517827
653323367401924159,564777,476544,517968
653323367409360674,564946,476398,517986
653323367416797189,565067,476543,518077
653323367424233704,565199,476626,518182
653323367431670219,565357,476709,518251
653323367439106734,565480,476919,518472
653323367446543249,565375,476941,518396
653323367453979764,565493,476807,518441
653323367461416279,565506,476923,518543
653323367468852794,565557,476880,518516
653323367476289309,565497,476899,518473
653323367483725824,565370,476760,518492
653323367491193289,565042,476709,518203
653323367498627984,565077,476682,518233
653323367506062679,564915,476582,518150
653323367513497374,564882,476495,518108
653323367520932069,564686,476396,517951
653323367528366764,564527,476347,517865
653323367535801459,564472,476191,517715
653323367543236154,564205,476037,517500
653323367550670849,564193,476035,517321
653323367558105544,563950,475998,517223
653323367565540239,563822,475824,517100
653323367572974934,563721,475799,517115
653323367580409629,563527,475733,516909
653323367587844324,563422,475598,516785
653323367595279019,563324,475491,516436
653323367602713714,563183,475378,516484
653323367610148409,562956,475423,516350
653323367617583104,562904,475246,516219
653323367624955904,562699,475458,515753
653323367632394240,562533,475250,515825
653323367639832576,562494,475123,515808
653323367647270912,562314,474905,515715
653323367654709248,562097,474778,515537
653323367662147584,561979,474750,515380
653323367669585920,561902,474577,515402
653323367677024256,561756,474545,515313
653323367684462592,561715,474551,515256
653323367691900928,561575,474325,515138
653323367699339264,561593,474517,515002
653323367706777600,561375,474406,514910
653323367714215936,561403,474352,514784
653323367721654272,561308,474334,514874
653323367729092608,561283,474397,514827
653323367736530944,561262,474142,514617
653323367743969280,561217,474197,514695
653323367751407616,561193,474257,514729
653323367758938806,561447,474070,514683
653323367766371680,561101,474107,514519
653323367773804554,561134,474256,514543
653323367781237428,561175,474065,514575
653323367788670302,561187,474037,514630
653323367796103176,561205,474117,514572
653323367803536050,561172,474089,514451
653323367810968924,561208,474036,514566
653323367818401798,561227,474021,514517
653323367825834672,561241,474145,514542
653323367833267546,561102,474076,514465
653323367840700420,561175,474108,514506
653323367848133294,561087,473984,514531
653323367855566168,561155,474054,514602
653323367862999042,560909,474024,514536
653323367870431916,560908,473965,514527
653323367877864790,560868,473929,514506
653323367885297664,560892,473959,514462
653323367892606756,561292,474031,514401
653323367900046912,561245,474142,514542
653323367907487068,561272,474081,514480
653323367914927224,561244,473967,514549
653323367922367380,561293,474002,514524
653323367929807536,561260,474170,514489
653323367937247692,561329,474261,514645
653323367944687848,561360,474248,514533
653323367952128004,561393,474275,514776
653323367959568160,561437,474269,514838
653323367967008316,561533,474355,514925
653323367974448472,561565,474354,514829
653323367981888628,561538,474293,514870
653323367989328784,561664,474364,515007
653323367996768940,561779,474415,515070
653323368004209096,561824,474411,515072
653323368011649252,561762,474550,515034
653323368019089408,561825,474597,515045
653323368026560512,561813,474707,515373
653323368033998848,562015,474738,515413
653323368041437184,562059,474616,515363
653323368048875520,562258,474720,515459
653323368056313856,562375,474840,515509
653323368063752192,562311,474741,515686
653323368071190528,562434,474760,515760
653323368078628864,562558,474793,515825
653323368086067200,562553,474980,515788
653323368093505536,562561,474892,515851
653323368100943872,562832,475029,516030
653323368108382208,562957,475128,516134
653323368115820544,562938,475195,516102
653323368123258880,563043,475096,516219
653323368130697216,563090,475279,516226
653323368138135552,563275,475287,516217
653323368145573888,563219,475334,516393
653323368153012224,563307,475359,516472
653323368160512457,563612,475298,516727
653323368167947152,563592,475412,516757
653323368175381847,563785,475376,516796
653323368182816542,563828,475398,516955
653323368190251237,564010,475488,516939
653323368197685932,563923,475618,516969
653323368205120627,563917,475687,517057
653323368212555322,563950,475765,517236
653323368219990017,564157,475702,517194
653323368227424712,564249,475847,517252
653323368234859407,564320,475796,517290
653323368242294102,564408,475942,517484
653323368249728797,564469,476053,517378
653323368257163492,564680,476098,517648
653323368264598187,564598,476069,517728
653323368272032882,564855,476189,517942
653323368279467577,565016,476255,517956
653323368286902272,565008,476369,518131
653323368294306029,565372,476687,518144
653323368301742544,565460,476420,518188
653323368309179059,565685,476563,518364
653323368316615574,565563,476407,518449
653323368324052089,565475,476505,518459
653323368331488604,565673,476659,518450
653323368338925119,565865,476715,518560
653323368346361634,565694,476715,518668
653323368353798149,565837,476678,518541
653323368361234664,565982,476797,518636
653323368368671179,565960,476824,518706
653323368376107694,565823,476643,518598
653323368383544209,565641,476643,518473
653323368390980724,565724,476447,518396
653323368398417239,565455,476351,518319
653323368405853754,565183,476293,518124
653323368413290269,564986,476146,518028
653323368420726784,564872,475981,517875
653323368428194249,564468,475899,517449
653323368435628944,564394,475757,517363
653323368443063639,564361,475698,517399
653323368450498334,564191,475627,517287
653323368457933029,563941,475483,517031
653323368465367724,563750,475410,516905
653323368472802419,563690,475371,516691
653323368480237114,563577,475132,516552
653323368487671809,563352,474980,516352
653323368495106504,563167,475033,516268
653323368502541199,563093,474873,516133
653323368509975894,562913,474700,516050
653323368517410589,562817,474681,515820
653323368524845284,562629,474509,515634
653323368532279979,562525,474461,515554
653323368539714674,562408,474399,515417
653323368547149369,562146,474231,515306
653323368554584064,562028,474185,515159
653323368561925924,561590,473938,515028
653323368569366080,561666,474042,514995
653323368576806236,561465,473921,514717
653323368584246392,561477,473874,514502
653323368591686548,561396,473750,514462
653323368599126704,561402,473809,514454
653323368606566860,561311,473709,514387
653323368614007016,561297,473660,514345
653323368621447172,561250,473627,514293
653323368628887328,561248,473665,514219
653323368636327484,561257,473557,514155
653323368643767640,561257,473584,514231
653323368651207796,561225,473592,514213
