timestamp,ch1,ch2,ch3
653328730738632192,-45459,-77702,-68553
653328730746070528,-45812,-77791,-68752
653328730753508864,-46032,-77945,-68861
653328730760947200,-46167,-78066,-69028
653328730768385536,-46268,-78070,-69108
653328730775823872,-46336,-78154,-69402
653328730783262208,-46432,-78218,-69434
653328730790700544,-46557,-78373,-69653
653328730798138880,-46590,-78551,-69744
653328730805577216,-46848,-78528,-69887
653328730813015552,-46811,-78431,-69818
653328730820453888,-46886,-78519,-69912
653328730827892224,-46949,-78644,-70129
653328730835330560,-47195,-78852,-70250
653328730842768896,-46994,-78709,-70332
653328730850207232,-47279,-78835,-70598
653328730857645568,-47216,-78866,-70679
653328730865083904,-47386,-79025,-70808
653328730872584137,-47363,-79065,-71012
653328730880018832,-47483,-79143,-70978
653328730887453527,-47570,-79119,-71131
653328730894888222,-47647,-79153,-71330
653328730902322917,-47646,-79177,-71450
653328730909757612,-47594,-79275,-71362
653328730917192307,-47616,-79374,-71351
653328730924627002,-47774,-79375,-71539
653328730932061697,-47670,-79321,-71437
653328730939496392,-47699,-79330,-71696
653328730946931087,-47679,-79349,-71584
653328730954365782,-47754,-79312,-71616
653328730961800477,-47820,-79450,-71817
653328730969235172,-47967,-79466,-71940
653328730976669867,-48121,-79641,-72155
653328730984104562,-48262,-78935,-72242
653328730991539257,-48217,-79408,-72301
653328730998973952,-48335,-79692,-72370
653328731006377709,-48393,-79800,-72615
653328731013814224,-46983,-78383,-71129
653328731021250739,-48000,-79430,-72009
653328731028687254,-48404,-79838,-72484
653328731036123769,-48636,-80154,-72673
653328731043560284,-47351,-80302,-71640
653328731050996799,-48406,-80389,-72487
653328731058433314,-48759,-80421,-72882
653328731065869829,-48912,-80430,-73098
653328731073306344,-49136,-80617,-73094
653328731080742859,-49156,-80616,-73229
653328731088179374,-49337,-80701,-73305
653328731095615889,-49467,-80945,-73406
653328731103052404,-49479,-80797,-73539
653328731110488919,-49572,-80916,-73556
653328731117925434,-49774,-80840,-73697
653328731125361949,-49823,-80989,-73760
653328731132798464,-49867,-80808,-73771
653328731140234989,-49665,-80837,-74021
653328731147671504,-49923,-81007,-74103
653328731155108019,-49976,-81126,-74112
653328731162544534,-49880,-81072,-73935
653328731169981049,-50065,-81042,-73990
653328731177417564,-50228,-81231,-74124
653328731184854079,-50258,-81405,-74337
653328731192290594,-50105,-81393,-74282
653328731199727109,-50384,-81459,-74351
653328731207163624,-50588,-81529,-74580
653328731214600139,-50793,-81512,-74715
653328731222036654,-50647,-81504,-74566
653328731229473169,-50647,-81499,-74646
653328731236909684,-50716,-81648,-74677
653328731244346199,-50888,-81736,-74750
653328731251782714,-50988,-81845,-74660
653328731259219229,-50891,-81763,-74576
653328731266655744,-50940,-81755,-74734
653328731274123209,-50702,-82088,-74861
653328731281557904,-50968,-81904,-74864
653328731288992599,-51127,-81910,-74898
653328731296427294,-51161,-81915,-74960
653328731303861989,-51133,-81798,-75043
653328731311296684,-51160,-81900,-75024
653328731318731379,-51224,-82003,-75002
653328731326166074,-51217,-82010,-75050
653328731333600769,-50238,-80557,-73653
653328731341035464,-50890,-81533,-74577
653328731348470159,-51270,-81885,-74982
653328731355904854,-51409,-82111,-75214
653328731363339549,-50087,-82315,-73796
653328731370774244,-51007,-82352,-74716
653328731378208939,-51371,-82416,-75013
653328731385643634,-51695,-82568,-75253
653328731393078329,-51900,-82678,-75388
653328731400513024,-51840,-82595,-75426
653328731407916781,-51631,-82479,-75538
653328731415353296,-51849,-82747,-75608
653328731422789811,-52013,-82639,-75733
653328731430226326,-51994,-82647,-75627
653328731437662841,-51932,-82666,-75646
653328731445099356,-52087,-82913,-75781
653328731452535871,-52203,-82811,-75801
653328731459972386,-52187,-82818,-75838
653328731467408901,-52174,-82843,-75855
653328731474845416,-52322,-82903,-76051
653328731482281931,-52249,-82877,-75866
653328731489718446,-52350,-82893,-75908
653328731497154961,-52375,-82953,-75963
653328731504591476,-52599,-83114,-76195
653328731512027991,-52456,-83169,-75995
653328731519464506,-52532,-83117,-76109
653328731526901021,-52586,-83060,-76236
653328731534337536,-52655,-83123,-76359
653328731541805001,-52411,-82961,-76452
653328731549239696,-52659,-83231,-76303
653328731556674391,-52701,-83260,-76349
653328731564109086,-52904,-83270,-76379
653328731571543781,-52924,-83216,-76487
653328731578978476,-52910,-83332,-76433
653328731586413171,-52966,-83305,-76536
653328731593847866,-52939,-83217,-76523
653328731601282561,-52957,-83185,-76475
653328731608717256,-52846,-83378,-76292
653328731616151951,-52891,-83458,-76331
653328731623586646,-53002,-83341,-76381
653328731631021341,-53001,-83286,-76395
653328731638456036,-53013,-83342,-76303
653328731645890731,-53027,-83316,-76293
653328731653325426,-52993,-81855,-74827
653328731660760121,-52955,-82677,-75683
653328731668194816,-53009,-83034,-76052
653328731675598573,-53231,-83229,-76141
653328731683035088,-51693,-82224,-74585
653328731690471603,-52454,-82896,-75422
653328731697908118,-52813,-83101,-75871
653328731705344633,-52972,-83277,-75987
653328731712781148,-52948,-83470,-76059
653328731720217663,-52937,-83415,-76130
653328731727654178,-53018,-83484,-76164
653328731735090693,-52976,-83398,-76129
653328731742527208,-53013,-83307,-76202
653328731749963723,-53060,-83323,-76115
653328731757400238,-52983,-83280,-76034
653328731764836753,-52984,-83240,-76099
653328731772273268,-53039,-83268,-75979
653328731779709783,-52977,-83255,-76037
653328731787146298,-53114,-83200,-76013
653328731794582813,-53023,-83238,-75944
653328731802019328,-53113,-83075,-75950
653328731809486793,-53222,-83020,-75962
653328731816921488,-53153,-83225,-75983
653328731824356183,-53410,-83312,-76260
653328731831790878,-53211,-83355,-76190
653328731839225573,-53507,-83445,-76445
653328731846660268,-53558,-83592,-76609
653328731854094963,-53723,-83648,-76828
653328731861529658,-53771,-83696,-76825
653328731868964353,-53899,-83752,-77061
653328731876399048,-54014,-83882,-77058
653328731883833743,-54128,-83958,-77320
653328731891268438,-54279,-84172,-77285
653328731898703133,-54232,-84141,-77313
653328731906137828,-54378,-84191,-77462
653328731913572523,-54493,-84269,-77741
653328731921007218,-54612,-84294,-77839
653328731928441913,-54747,-84308,-77852
653328731935876608,-54853,-84469,-77953
653328731943249408,-54766,-84592,-78191
653328731950687744,-54884,-84255,-78058
653328731958126080,-54894,-84434,-78088
653328731965564416,-55138,-84548,-78179
653328731973002752,-55072,-83043,-76591
653328731980441088,-55035,-83985,-77368
653328731987879424,-55071,-84315,-77768
653328731995317760,-55187,-84591,-77913
653328732002756096,-53763,-83114,-76397
653328732010194432,-54545,-83967,-77237
653328732017632768,-54790,-84297,-77657
653328732025071104,-55131,-84609,-77764
653328732032509440,-53757,-84699,-77718
653328732039947776,-54521,-84674,-77709
653328732047386112,-54920,-84723,-77635
653328732054824448,-55084,-84844,-77821
653328732062262784,-55241,-84793,-77761
653328732069701120,-55279,-84778,-77599
653328732077232310,-55660,-84916,-77846
653328732084665184,-55648,-84820,-77662
653328732092098058,-55613,-84793,-77550
653328732099530932,-55629,-84698,-77513
653328732106963806,-55777,-84858,-77478
653328732114396680,-55755,-84729,-77425
653328732121829554,-55931,-84566,-77235
653328732129262428,-55998,-84670,-77298
653328732136695302,-55978,-84670,-77315
653328732144128176,-56009,-84754,-77365
653328732151561050,-56075,-84622,-77244
653328732158993924,-56215,-84832,-77399
653328732166426798,-56296,-84891,-77508
653328732173859672,-56279,-84898,-77504
653328732181292546,-56281,-84966,-77574
653328732188725420,-56441,-85003,-77599
653328732196158294,-56468,-85039,-77524
653328732203591168,-56467,-85105,-77648
653328732210962157,-56445,-85313,-77733
653328732218398672,-56453,-85179,-77745
653328732225835187,-56448,-85094,-78012
653328732233271702,-56386,-85110,-77999
653328732240708217,-56350,-85140,-77992
653328732248144732,-56375,-85105,-78227
653328732255581247,-56331,-85146,-78145
653328732263017762,-56283,-85137,-78146
653328732270454277,-56152,-85193,-78147
653328732277890792,-56185,-85173,-78181
653328732285327307,-56102,-85146,-78202
653328732292763822,-56210,-83859,-76941
653328732300200337,-56113,-84602,-77685
653328732307636852,-56034,-84978,-77932
653328732315073367,-56064,-85118,-78245
653328732322509882,-54592,-83615,-76747
653328732329946397,-55315,-84559,-77536
653328732337382912,-55629,-84839,-77901
653328732344819437,-56160,-85173,-77665
653328732352255952,-54485,-85089,-77935
653328732359692467,-55277,-85085,-77996
653328732367128982,-55570,-85036,-78034
653328732374565497,-55788,-85064,-78128
653328732382002012,-55839,-85059,-78039
653328732389438527,-55829,-85015,-77918
653328732396875042,-55900,-85051,-77987
653328732404311557,-55840,-85080,-77937
653328732411748072,-55880,-84924,-77779
653328732419184587,-55903,-84894,-77699
653328732426621102,-55843,-84943,-77667
653328732434057617,-55838,-84957,-77664
653328732441494132,-55870,-84670,-77456
653328732448930647,-55880,-84828,-77488
653328732456367162,-55886,-84847,-77476
653328732463803677,-55902,-84921,-77498
653328732471240192,-55701,-84773,-77234
653328732478676717,-55863,-84837,-77180
653328732486113232,-56104,-84789,-77447
653328732493549747,-56076,-84834,-77445
653328732500986262,-55924,-84827,-77507
653328732508422777,-55956,-84727,-77480
653328732515859292,-55986,-84828,-77513
653328732523295807,-56054,-84830,-77624
653328732530732322,-56053,-84867,-77387
653328732538168837,-56041,-84755,-77442
653328732545605352,-56030,-84786,-77513
653328732553041867,-56038,-84772,-77412
653328732560478382,-56033,-84702,-77404
653328732567914897,-55963,-84858,-77522
653328732575351412,-55940,-84927,-77673
653328732582787927,-55975,-84972,-77788
653328732590224442,-55905,-84957,-77801
653328732597660957,-56142,-84864,-77912
653328732605097472,-55985,-84900,-77995
653328732612533997,-55902,-83199,-76916
653328732619970512,-55885,-84021,-77532
653328732627407027,-55917,-84501,-77852
653328732634843542,-55997,-84759,-78071
653328732642280057,-54430,-83241,-76780
653328732649716572,-55280,-84219,-77768
653328732657153087,-55826,-84577,-78259
653328732664589602,-55906,-84767,-78350
653328732672026117,-54492,-84863,-78616
653328732679462632,-55400,-85001,-78638
653328732686899147,-55899,-85165,-78724
653328732694335662,-56230,-85180,-78942
653328732701772177,-56350,-85175,-78986
653328732709208692,-56534,-85224,-79007
653328732716645207,-56692,-85287,-79058
653328732724081722,-56816,-85404,-79285
653328732731518237,-56901,-85388,-79247
653328732738954752,-57060,-85415,-79277
653328732746422217,-56860,-85545,-79190
653328732753856912,-57153,-85508,-79309
653328732761291607,-57287,-85422,-79195
653328732768726302,-57410,-85537,-79305
653328732776160997,-57594,-85656,-79408
653328732783595692,-57714,-85691,-79375
653328732791030387,-57521,-85605,-79253
653328732798465082,-57812,-85661,-79424
653328732805899777,-57978,-85717,-79126
653328732813334472,-58211,-85732,-79459
653328732820769167,-58093,-85747,-79422
653328732828203862,-58340,-85761,-79476
653328732835638557,-58430,-85829,-79488
653328732843073252,-58390,-85840,-79464
653328732850507947,-58640,-85881,-79518
653328732857942642,-58758,-85952,-79580
653328732865377337,-58896,-86027,-79783
653328732872812032,-58890,-86004,-79780
653328732880246729,-58798,-85856,-79744
653328732887681424,-58840,-86020,-79791
653328732895116119,-58914,-86173,-79770
653328732902550814,-58932,-86246,-79797
653328732909985509,-59115,-86069,-79875
653328732917420204,-59103,-86169,-80000
653328732924854899,-59117,-86193,-80108
653328732932289594,-59043,-84679,-79053
653328732939724289,-58978,-85558,-79773
653328732947158984,-59020,-85921,-80114
653328732954593679,-59007,-86136,-80261
653328732962028374,-57529,-84862,-78865
653328732969463069,-58446,-85691,-79869
653328732976897764,-58947,-86139,-80319
653328732984332459,-59159,-86450,-80669
653328732991767154,-57722,-86495,-80681
653328732999201849,-58544,-86464,-80721
653328733006636544,-58947,-86581,-80757
653328733014040301,-59261,-86845,-80679
653328733021476816,-59419,-86735,-80915
653328733028913331,-59394,-86778,-81057
653328733036349846,-59404,-86741,-81081
653328733043786361,-59483,-86660,-81098
653328733051222876,-59510,-86674,-81177
653328733058659391,-59478,-86676,-81156
653328733066095906,-59504,-86587,-81184
653328733073532421,-59667,-86812,-81192
653328733080968936,-59537,-86518,-80942
653328733088405451,-59604,-86665,-81069
653328733095841966,-59572,-86706,-81153
653328733103278481,-59662,-86675,-81177
653328733110714996,-59499,-86599,-80986
653328733118151511,-59592,-86740,-81148
653328733125588026,-59672,-86765,-81177
653328733133024541,-59604,-86858,-81328
653328733140461056,-59448,-86734,-81334
653328733147897581,-59427,-86541,-81130
653328733155334096,-59581,-86739,-81173
653328733162770611,-59679,-86883,-81196
653328733170207126,-59740,-86905,-81109
653328733177643641,-59702,-86972,-81172
653328733185080156,-59723,-86879,-81229
653328733192516671,-59844,-86881,-81234
653328733199953186,-59867,-86897,-81164
653328733207389701,-59987,-86852,-81271
653328733214826216,-60072,-86909,-81251
653328733222262731,-59978,-86891,-81153
653328733229699246,-59935,-86799,-81167
653328733237135761,-59911,-86791,-81254
653328733244572276,-60033,-86899,-81211
653328733252008791,-59983,-85360,-80748
653328733259445306,-59912,-86213,-80994
653328733266881821,-59977,-86531,-81002
653328733274318336,-59974,-86651,-81221
653328733281785801,-58310,-85253,-79941
653328733289220496,-59314,-86153,-80848
653328733296655191,-59645,-86436,-81180
653328733304089886,-59851,-86743,-81293
653328733311524581,-58387,-86928,-81311
653328733318959276,-59304,-86974,-81470
653328733326393971,-59710,-87052,-81421
653328733333828666,-59898,-86953,-81445
653328733341263361,-60051,-86934,-81296
653328733348698056,-59951,-86866,-81385
653328733356132751,-59999,-86894,-81367
653328733363567446,-60025,-87147,-81394
653328733371002141,-60106,-86939,-81382
653328733378436836,-60138,-86881,-81393
653328733385871531,-60145,-86956,-81470
653328733393306226,-60184,-86873,-81500
653328733400740921,-60224,-86664,-81395
653328733408175616,-60018,-86855,-81499
653328733415579373,-60356,-86831,-81251
653328733423015888,-60235,-86844,-81396
653328733430452403,-59871,-86658,-81260
653328733437888918,-59920,-86965,-81344
653328733445325433,-60000,-86875,-81423
653328733452761948,-59950,-86821,-81456
653328733460198463,-59692,-86871,-81316
653328733467634978,-59867,-86825,-81494
653328733475071493,-59966,-86958,-81414
653328733482508008,-59952,-86898,-81536
653328733489944523,-59957,-86963,-81455
653328733497381038,-60086,-86943,-81443
653328733504817553,-60046,-86956,-81432
653328733512254068,-59972,-86928,-81408
653328733519690583,-60165,-87025,-81486
653328733527127098,-60211,-87068,-81561
653328733534563613,-60282,-87124,-81661
653328733542000128,-60241,-87190,-81783
653328733549498550,-60370,-86999,-81557
653328733556931424,-60435,-87233,-81701
653328733564364298,-60577,-87358,-81736
653328733571797172,-60545,-85908,-81115
653328733579230046,-60681,-86566,-81643
653328733586662920,-60740,-87036,-81921
653328733594095794,-60819,-87345,-82100
653328733601528668,-59359,-85955,-80539
653328733608961542,-60195,-86869,-81558
653328733616394416,-60616,-87287,-82083
653328733623827290,-60908,-87559,-82291
653328733631260164,-59571,-87567,-82269
653328733638693038,-60399,-87682,-82303
653328733646125912,-60867,-87726,-82377
653328733653558786,-61109,-87747,-82464
653328733660991660,-61112,-87735,-82597
653328733668424534,-61248,-87763,-82582
653328733675857408,-61346,-87846,-82540
653328733683228397,-61050,-88062,-82508
653328733690664912,-61193,-87977,-82535
653328733698101427,-61194,-87825,-82523
653328733705537942,-61356,-88012,-82578
653328733712974457,-61377,-87929,-82665
653328733720410972,-61383,-87806,-82418
653328733727847487,-61496,-87852,-82697
653328733735284002,-61541,-87922,-82678
653328733742720517,-61554,-87880,-82828
653328733750157032,-61294,-87893,-82743
653328733757593547,-61557,-87905,-82769
653328733765030062,-61625,-87991,-82785
653328733772466577,-61521,-88000,-82752
653328733779903092,-61339,-87888,-82844
653328733787339607,-61401,-88035,-82838
653328733794776122,-61644,-88046,-83051
653328733802212637,-61587,-88053,-82915
653328733809649152,-61621,-87967,-82835
653328733817085677,-61840,-87973,-82794
653328733824522192,-61744,-88116,-82740
653328733831958707,-61722,-88060,-82843
653328733839395222,-61632,-88099,-82815
653328733846831737,-61667,-88220,-82921
653328733854268252,-61711,-88208,-83014
653328733861704767,-61706,-88209,-82970
653328733869141282,-61656,-88127,-82868
653328733876577797,-61772,-88158,-82924
653328733884014312,-61658,-88170,-82939
653328733891450827,-61714,-86714,-82543
653328733898887342,-61564,-87472,-82730
653328733906323857,-61710,-87811,-82872
653328733913760372,-61801,-88108,-82972
653328733921196887,-60258,-86604,-81503
653328733928633402,-61175,-87495,-82293
653328733936069917,-61509,-87898,-82682
653328733943506432,-61722,-88133,-82933
6.53329E+17,-60497,-88195,-82885
653328733958350336,-61254,-88234,-82972
653328733965788672,-61663,-88176,-83102
653328733973227008,-61695,-88188,-83104
653328733980665344,-61750,-88219,-82977
653328733988103680,-61750,-88301,-82940
653328733995542016,-61811,-88293,-83063
653328734002980352,-61793,-88173,-83123
653328734010418688,-61767,-88086,-83120
653328734017857024,-61886,-88126,-83103
653328734025295360,-61795,-88141,-83059
653328734032733696,-61766,-88132,-83127
653328734040172032,-61754,-87953,-82879
653328734047610368,-61731,-88040,-82968
653328734055048704,-61862,-88081,-83088
653328734062487040,-61865,-88137,-83165
653328734069925376,-61672,-87889,-83042
653328734077363712,-61823,-88100,-83146
653328734084863945,-61771,-88020,-83219
653328734092298640,-61816,-87960,-83016
653328734099733335,-61695,-88008,-83141
653328734107168030,-61644,-88120,-83094
653328734114602725,-61646,-88093,-83038
653328734122037420,-61600,-88099,-82970
653328734129472115,-61675,-88051,-82870
653328734136906810,-61600,-88093,-82900
653328734144341505,-61655,-88052,-82904
653328734151776200,-61566,-88034,-82850
653328734159210895,-61599,-88004,-82850
653328734166645590,-61683,-88090,-82954
653328734174080285,-61626,-88073,-82866
653328734181514980,-61598,-88035,-82871
653328734188949675,-61560,-87952,-82854
653328734196384370,-61589,-88130,-82865
653328734203819065,-61451,-87990,-82839
653328734211253760,-61391,-86526,-82780
653328734218657517,-61333,-87334,-82480
653328734226094032,-61468,-87667,-82746
653328734233530547,-61510,-87853,-82817
653328734240967062,-60057,-86403,-81357
653328734248403577,-60828,-87249,-82067
653328734255840092,-61250,-87586,-82561
653328734263276607,-61301,-87760,-82573
653328734270713122,-60033,-87854,-82683
653328734278149637,-60769,-87924,-82785
653328734285586152,-61236,-87900,-83065
653328734293022667,-61369,-87912,-82854
653328734300459182,-61250,-87840,-82671
653328734307895697,-61304,-87824,-82611
653328734315332212,-61261,-87974,-82572
653328734322768727,-61294,-87957,-82527
653328734330205242,-61318,-87968,-82620
653328734337641757,-61391,-87984,-82619
653328734345078272,-61404,-88008,-82807
653328734352514797,-61338,-88221,-82774
653328734359951312,-61394,-87957,-82673
653328734367387827,-61558,-87945,-82816
653328734374824342,-61697,-88124,-82808
653328734382260857,-61840,-88076,-82909
653328734389697372,-61607,-87994,-82739
653328734397133887,-61727,-88157,-82943
653328734404570402,-61823,-88239,-82964
653328734412006917,-61835,-88145,-83089
653328734419443432,-61758,-88296,-83097
653328734426879947,-61975,-88323,-83182
653328734434316462,-62179,-88357,-83183
653328734441752977,-62138,-88394,-83107
653328734449189492,-62136,-88350,-83145
653328734456626007,-62147,-88399,-83201
653328734464062522,-62185,-88456,-83282
653328734471499037,-62102,-88411,-83163
653328734478935552,-62178,-88372,-83268
653328734486372077,-62462,-88274,-83323
653328734493808592,-62354,-88369,-83375
653328734501245107,-62452,-88414,-83483
653328734508681622,-62343,-88458,-83484
653328734516118137,-62363,-88560,-83411
653328734523554652,-62390,-88659,-83364
653328734530991167,-62408,-87664,-83497
653328734538427682,-62404,-88176,-83438
653328734545864197,-62345,-88536,-83474
653328734553300712,-62392,-88537,-83515
653328734560737227,-60995,-87147,-81973
653328734568173742,-61772,-88018,-82907
653328734575610257,-62057,-88350,-83316
653328734583046772,-62318,-88409,-83330
653328734590483287,-60847,-88440,-82303
653328734597919802,-61679,-88414,-82881
653328734605356317,-62150,-88625,-83247
653328734612792832,-62339,-88664,-83374
653328734620229357,-62405,-88329,-83486
653328734627665872,-62336,-88479,-83474
653328734635102387,-62412,-88543,-83449
653328734642538902,-62388,-88567,-83385
653328734649975417,-62324,-88487,-83293
653328734657411932,-62345,-88543,-83573
653328734664848447,-62232,-88594,-83384
653328734672284962,-62223,-88591,-83404
653328734679721477,-62307,-88581,-83467
653328734687157992,-62298,-88568,-83508
653328734694594507,-62350,-88622,-83589
653328734702031022,-62355,-88561,-83609
653328734709467537,-62188,-88429,-83362
653328734716904052,-62257,-88469,-83354
653328734724340567,-62426,-88479,-83526
653328734731777082,-62369,-88547,-83388
653328734739213597,-62216,-88580,-83387
653328734746650112,-62235,-88614,-83406
653328734754117577,-62329,-88389,-83452
653328734761552272,-62261,-88520,-83396
653328734768986967,-62282,-88416,-83350
653328734776421662,-62306,-88612,-83276
653328734783856357,-62351,-88524,-83209
653328734791291052,-62244,-88475,-83269
653328734798725747,-62166,-88564,-83272
653328734806160442,-62071,-88608,-83219
653328734813595137,-62031,-88553,-83203
653328734821029832,-62144,-88491,-83238
653328734828464527,-62157,-88442,-83243
653328734835899222,-62147,-88554,-83204
653328734843333917,-62101,-88380,-83083
653328734850768612,-62086,-88251,-83264
653328734858203307,-62061,-88290,-83184
653328734865638002,-62062,-88394,-83156
653328734873072697,-62131,-88469,-83209
653328734880507392,-60760,-86855,-81554
653328734887911149,-61644,-87998,-82428
653328734895347664,-61837,-88171,-82794
653328734902784179,-61783,-88224,-82866
653328734910220694,-60314,-88331,-81316
653328734917657209,-61193,-88472,-82245
653328734925093724,-61456,-88401,-82514
653328734932530239,-61567,-88337,-82683
653328734939966754,-61709,-88197,-82764
653328734947403269,-61796,-88127,-82557
653328734954839784,-61828,-88084,-82685
653328734962276299,-61671,-88104,-82812
653328734969712814,-61650,-88105,-82833
653328734977149329,-61741,-88128,-82763
653328734984585844,-61724,-88094,-82643
653328734992022359,-61637,-88042,-82654
653328734999458874,-61633,-87913,-82754
653328735006895389,-61652,-88079,-82711
653328735014331904,-61577,-87985,-82693
653328735021830326,-61379,-88069,-82834
653328735029263200,-61233,-87752,-82547
653328735036696074,-61313,-87897,-82419
653328735044128948,-61474,-87920,-82453
653328735051561822,-61543,-87817,-82560
653328735058994696,-61325,-87899,-82606
653328735066427570,-61384,-87912,-82562
653328735073860444,-61387,-87842,-82386
653328735081293318,-61384,-87813,-82386
653328735088726192,-61306,-87912,-82348
653328735096159066,-61377,-87776,-82411
653328735103591940,-61377,-87770,-82299
653328735111024814,-61270,-87770,-82261
653328735118457688,-61258,-87714,-82181
653328735125890562,-61180,-87762,-82147
653328735133323436,-61106,-87628,-81977
653328735140756310,-61063,-87582,-82043
653328735148189184,-60922,-87599,-81975
653328735155529216,-60980,-87345,-81928
653328735162967552,-61045,-87436,-81824
653328735170405888,-60821,-87427,-81806
653328735177844224,-60802,-87530,-81854
653328735185282560,-60885,-87462,-81739
653328735192720896,-60784,-87511,-81721
653328735200159232,-60307,-86015,-80162
653328735207597568,-60726,-86923,-81019
653328735215035904,-60864,-87192,-81459
653328735222474240,-60938,-87470,-81584
653328735229912576,-59483,-87079,-80111
653328735237350912,-60293,-87394,-80973
653328735244789248,-60599,-87514,-81450
653328735252227584,-60872,-87514,-81516
653328735259665920,-61058,-87556,-81691
653328735267104256,-61112,-87575,-81700
653328735274542592,-61223,-87660,-81826
653328735281980928,-61148,-87663,-81701
653328735289450221,-61496,-87561,-81384
653328735296886736,-61336,-87597,-81673
653328735304323251,-61210,-87665,-81690
653328735311759766,-61277,-87690,-81846
653328735319196281,-61332,-87624,-81802
653328735326632796,-61360,-87827,-81873
653328735334069311,-61332,-87766,-81954
653328735341505826,-61220,-87739,-81995
653328735348942341,-61028,-87467,-81815
653328735356378856,-61100,-87677,-81992
653328735363815371,-61117,-87726,-82026
653328735371251886,-61240,-87744,-82099
653328735378688401,-61077,-87887,-81887
653328735386124916,-61220,-87762,-82098
653328735393561431,-61244,-87756,-82120
653328735400997946,-61272,-87708,-82090
653328735408434461,-61279,-87728,-82207
653328735415870976,-61253,-87796,-82121
653328735423338441,-60962,-87904,-82035
653328735430773136,-61192,-87779,-81979
653328735438207831,-61207,-87739,-82024
653328735445642526,-61219,-87798,-82008
653328735453077221,-61134,-87714,-82126
653328735460511916,-61118,-87700,-81972
653328735467946611,-61091,-87768,-81906
653328735475381306,-61280,-87698,-82070
653328735482816001,-61186,-87577,-81962
653328735490250696,-61181,-87609,-81985
653328735497685391,-61172,-87646,-81814
653328735505120086,-61077,-87562,-81815
653328735512554781,-60969,-87522,-81807
653328735519989476,-60889,-86095,-80203
653328735527424171,-61134,-86961,-81124
653328735534858866,-61033,-87214,-81490
653328735542293561,-61086,-87301,-81632
653328735549728256,-59530,-86461,-80100
653328735557132013,-60141,-86988,-81177
653328735564568528,-60668,-87286,-81545
653328735572005043,-60633,-87394,-81459
653328735579441558,-60808,-87347,-81587
653328735586878073,-60935,-87283,-81713
653328735594314588,-60938,-87307,-81757
653328735601751103,-61013,-87318,-81704
653328735609187618,-60868,-87305,-81626
653328735616624133,-60939,-87196,-81580
653328735624060648,-60958,-87350,-81580
653328735631497163,-60857,-87304,-81517
653328735638933678,-60918,-87197,-81579
653328735646370193,-60787,-87324,-81537
653328735653806708,-60682,-87278,-81472
653328735661243223,-60688,-87277,-81418
653328735668679738,-60416,-87011,-81242
653328735676116253,-60552,-87104,-81334
653328735683552768,-60588,-87096,-81389
653328735691051190,-60388,-87079,-81672
653328735698484064,-60373,-86982,-81345
653328735705916938,-60460,-87026,-81382
653328735713349812,-60621,-87011,-81506
653328735720782686,-60530,-86978,-81445
653328735728215560,-60527,-87005,-81348
653328735735648434,-60517,-87085,-81317
653328735743081308,-60489,-87056,-81298
653328735750514182,-60450,-87011,-81243
653328735757947056,-60327,-86931,-81158
653328735765379930,-60431,-87010,-81172
653328735772812804,-60353,-86917,-81016
653328735780245678,-60336,-86883,-81033
653328735787678552,-60316,-86928,-81077
653328735795111426,-60347,-86993,-81155
653328735802544300,-60284,-86795,-81142
653328735809977174,-60428,-86705,-81146
653328735817410048,-60390,-86722,-81078
653328735824750080,-60382,-86849,-81272
653328735832188416,-60213,-86820,-81129
653328735839626752,-60108,-85240,-79493
653328735847065088,-60207,-86221,-80356
653328735854503424,-60165,-86426,-80617
653328735861941760,-60186,-86520,-80890
653328735869380096,-58642,-85056,-79477
653328735876818432,-59598,-85858,-80314
653328735884256768,-59868,-86247,-80668
653328735891695104,-59918,-86432,-80715
653328735899133440,-59329,-86467,-80795
653328735906571776,-59644,-86505,-80877
653328735914010112,-59731,-86438,-80865
653328735921448448,-59916,-86459,-80783
653328735928886784,-59889,-86524,-80777
653328735936325120,-59899,-86484,-80833
653328735943763456,-60030,-86509,-80778
653328735951201792,-59971,-86414,-80793
653328735958671085,-60014,-86186,-80472
653328735966107600,-59951,-86336,-80615
653328735973544115,-59919,-86419,-80569
653328735980980630,-59829,-86383,-80504
653328735988417145,-59757,-86326,-80336
653328735995853660,-59711,-86421,-80497
653328736003290175,-59646,-86221,-80386
653328736010726690,-59642,-86207,-80501
653328736018163205,-59520,-86170,-80301
653328736025599720,-59532,-86213,-80276
653328736033036235,-59551,-86180,-80289
653328736040472750,-59499,-86124,-80401
653328736047909265,-59647,-86140,-80303
653328736055345780,-59560,-86070,-80274
653328736062782295,-59530,-85964,-80176
653328736070218810,-59395,-85935,-80182
653328736077655325,-59437,-85939,-80222
653328736085091840,-59475,-85829,-80205
653328736092559305,-59450,-85935,-79924
6.53329E+17,-59466,-85905,-80077
653328736107428695,-59491,-85999,-80107
653328736114863390,-59466,-85991,-80103
653328736122298085,-59495,-86000,-80204
653328736129732780,-59490,-86009,-80205
653328736137167475,-59545,-86069,-80140
653328736144602170,-59468,-86028,-80211
653328736152036865,-59497,-85987,-80152
653328736159471560,-59552,-84679,-78710
653328736166906255,-59643,-85481,-79562
653328736174340950,-59694,-85766,-79997
653328736181775645,-59639,-85995,-80306
653328736189210340,-58209,-84721,-78993
653328736196645035,-59078,-85566,-79780
653328736204079730,-59559,-85930,-80202
653328736211514425,-59694,-86008,-80392
653328736218949120,-59582,-86164,-80559
653328736226383817,-60029,-86052,-80926
653328736233818512,-59875,-86157,-80774
653328736241253207,-59887,-86229,-80681
653328736248687902,-59905,-86243,-80689
653328736256122597,-59935,-86247,-80719
653328736263557292,-60026,-86216,-80667
653328736270991987,-60127,-86137,-80727
653328736278426682,-60202,-86273,-80718
653328736285861377,-60209,-86356,-80756
653328736293296072,-60282,-86349,-80891
653328736300730767,-60139,-86266,-80858
653328736308165462,-60150,-86196,-80766
653328736315600157,-60262,-86405,-80778
653328736323034852,-60240,-86268,-80759
653328736330469547,-60330,-86325,-80779
653328736337904242,-60224,-86398,-80720
653328736345338937,-60327,-86375,-80717
653328736352773632,-60290,-86343,-80723
653328736360177389,-60078,-86278,-80612
653328736367613904,-60275,-86306,-80806
653328736375050419,-60310,-86373,-80795
653328736382486934,-60261,-86408,-80821
653328736389923449,-60216,-86392,-80787
653328736397359964,-60277,-86330,-80766
653328736404796479,-60292,-86278,-80791
653328736412232994,-60264,-86246,-80685
653328736419669509,-60338,-86341,-80761
653328736427106024,-60349,-86310,-80676
653328736434542539,-60234,-86296,-80678
653328736441979054,-60212,-86335,-80793
653328736449415569,-60127,-86347,-80801
653328736456852084,-60282,-86365,-80876
653328736464288599,-60362,-86365,-80819
653328736471725114,-60194,-86285,-80797
653328736479161629,-60419,-84885,-79353
653328736486598144,-60431,-85746,-80206
653328736494096566,-60175,-86084,-80293
653328736501529440,-60285,-86237,-80649
653328736508962314,-58941,-84858,-79409
653328736516395188,-59728,-85634,-80219
653328736523828062,-59997,-86004,-80513
653328736531260936,-60184,-86113,-80714
653328736538693810,-59863,-86214,-80870
653328736546126684,-60276,-86265,-80889
653328736553559558,-60314,-86261,-80812
653328736560992432,-60254,-86156,-80750
653328736568425306,-60201,-86154,-80793
653328736575858180,-60327,-86247,-80718
653328736583291054,-60202,-86136,-80816
653328736590723928,-60134,-86138,-80852
653328736598156802,-60102,-86282,-80787
653328736605589676,-60116,-86098,-80787
653328736613022550,-60229,-86226,-80823
653328736620455424,-60169,-86241,-80812
653328736627795456,-60108,-86034,-80461
653328736635233792,-60064,-86073,-80625
653328736642672128,-60144,-85917,-80754
653328736650110464,-60253,-86041,-80802
653328736657548800,-60037,-86025,-80654
653328736664987136,-60066,-86118,-80682
653328736672425472,-60177,-86131,-80727
653328736679863808,-60115,-86038,-80784
653328736687302144,-60076,-86107,-80748
653328736694740480,-60138,-86074,-80784
653328736702178816,-60005,-85986,-80596
653328736709617152,-60014,-86013,-80684
653328736717055488,-60077,-86058,-80833
653328736724493824,-60069,-86026,-80714
653328736731932160,-60046,-85924,-80691
653328736739370496,-60000,-86000,-80611
653328736746808832,-60110,-85866,-80728
653328736754247168,-60008,-85931,-80796
653328736761778358,-60160,-85950,-80473
653328736769211232,-60178,-85800,-80487
653328736776644106,-60189,-85847,-80713
653328736784076980,-60167,-85847,-80677
653328736791509854,-60107,-85800,-80670
653328736798942728,-59967,-84458,-79178
653328736806375602,-59982,-85167,-80030
653328736813808476,-59919,-85523,-80405
653328736821241350,-59744,-85690,-80350
653328736828674224,-58337,-84409,-78938
653328736836107098,-59217,-85176,-79823
653328736843539972,-59517,-85514,-80183
653328736850972846,-59659,-85632,-80346
653328736858405720,-59551,-85695,-80380
653328736865838594,-59733,-85735,-80466
653328736873271468,-59805,-85747,-80293
653328736880704342,-59742,-85687,-80284
653328736888137216,-59855,-85798,-80286
653328736895477248,-59963,-85908,-80497
653328736902915584,-59733,-85760,-80318
653328736910353920,-59609,-85734,-80243
653328736917792256,-59528,-85652,-80192
653328736925230592,-59408,-85668,-80248
653328736932668928,-59424,-85504,-80166
653328736940107264,-59395,-85463,-80090
653328736947545600,-59382,-85334,-79964
653328736954983936,-59459,-85394,-80061
653328736962422272,-59332,-85408,-80098
653328736969860608,-59426,-85377,-80198
653328736977298944,-59199,-85421,-79932
653328736984737280,-59473,-85358,-79995
653328736992175616,-59414,-85471,-80130
653328736999613952,-59475,-85363,-80216
653328737007052288,-59381,-85392,-80183
653328737014490624,-59341,-85332,-80083
653328737021928960,-59386,-85393,-80033
653328737029460150,-59394,-85065,-80200
653328737036893024,-59435,-85283,-80088
653328737044325898,-59255,-85207,-79977
653328737051758772,-59133,-85179,-79898
653328737059191646,-59104,-85193,-79971
653328737066624520,-59093,-85288,-79796
653328737074057394,-59081,-85248,-79808
653328737081490268,-59115,-85180,-79812
653328737088923142,-59249,-85191,-79894
653328737096356016,-59206,-85352,-79899
653328737103788890,-59316,-85261,-79911
653328737111221764,-59317,-85341,-79933
653328737118654638,-59335,-83891,-78624
653328737126087512,-59435,-84784,-79347
653328737133520386,-59418,-85034,-79722
653328737140953260,-59416,-85302,-80020
653328737148386134,-58085,-84162,-78669
653328737155819008,-58846,-84874,-79401
653328737163159040,-59080,-85284,-79943
653328737170597376,-59295,-85447,-80057
653328737178035712,-59402,-85699,-80205
653328737185474048,-59509,-85602,-80286
653328737192912384,-59727,-85665,-80256
653328737200350720,-59820,-85578,-80404
653328737207789056,-59796,-85517,-80399
653328737215227392,-59902,-85574,-80343
653328737222665728,-59852,-85566,-80374
653328737230104064,-59983,-85615,-80448
653328737237542400,-60088,-85702,-80522
653328737244980736,-59937,-85591,-80555
653328737252419072,-59945,-85464,-80453
653328737259857408,-60048,-85564,-80566
653328737267295744,-59887,-85347,-80484
653328737274734080,-59887,-85509,-80534
653328737282172416,-60051,-85563,-80490
653328737289610752,-59998,-85740,-80390
653328737297080045,-59753,-85439,-80440
653328737304516560,-59980,-85460,-80440
653328737311953075,-59999,-85657,-80531
653328737319389590,-59971,-85633,-80523
653328737326826105,-59931,-85602,-80522
653328737334262620,-59909,-85445,-80548
653328737341699135,-59964,-85556,-80601
653328737349135650,-60089,-85554,-80578
653328737356572165,-60047,-85425,-80685
653328737364008680,-60030,-85461,-80534
653328737371445195,-60126,-85511,-80577
653328737378881710,-60049,-85467,-80482
653328737386318225,-60026,-85524,-80479
653328737393754740,-60036,-85421,-80460
653328737401191255,-59958,-85535,-80486
653328737408627770,-59962,-85578,-80545
653328737416064285,-60016,-85571,-80589
653328737423500800,-59934,-85511,-80431
653328737430968265,-59899,-85659,-80664
653328737438402960,-60030,-84136,-79110
653328737445837655,-59964,-84987,-80011
653328737453272350,-60016,-85269,-80297
653328737460707045,-60043,-85384,-80435
653328737468141740,-58593,-84075,-79053
653328737475576435,-59323,-84923,-80066
653328737483011130,-59655,-85287,-80200
653328737490445825,-59860,-85432,-80326
653328737497880520,-59247,-85499,-80437
653328737505315215,-59755,-85538,-80580
653328737512749910,-59979,-85472,-80627
653328737520184605,-59946,-85465,-80704
653328737527619300,-59939,-85428,-80555
653328737535053995,-59973,-85444,-80542
653328737542488690,-59899,-85472,-80415
653328737549923385,-60020,-85426,-80441
653328737557358080,-59851,-85343,-80361
653328737564761837,-59619,-85270,-79954
653328737572198352,-59654,-85311,-80132
653328737579634867,-59809,-85289,-80399
653328737587071382,-59792,-85132,-80225
653328737594507897,-59719,-85279,-80185
653328737601944412,-59693,-85333,-80348
653328737609380927,-59766,-85444,-80467
653328737616817442,-59562,-85369,-80182
653328737624253957,-59582,-85347,-80107
653328737631690472,-59592,-85233,-80225
653328737639126987,-59556,-85225,-80330
653328737646563502,-59678,-85312,-80302
653328737654000017,-59623,-85242,-80196
653328737661436532,-59598,-85214,-80211
653328737668873047,-59529,-85164,-80276
653328737676309562,-59565,-85227,-80334
653328737683746077,-59583,-85230,-80191
653328737691182592,-59569,-85201,-80021
653328737698681014,-59453,-85192,-80174
653328737706113888,-59505,-85207,-80210
653328737713546762,-59459,-85180,-80101
653328737720979636,-59469,-85167,-80103
653328737728412510,-59409,-85063,-80033
653328737735845384,-59364,-85091,-79976
653328737743278258,-59261,-85123,-79940
653328737750711132,-59278,-85085,-79981
653328737758144006,-59272,-83590,-78497
653328737765576880,-59246,-84547,-79219
653328737773009754,-59168,-84732,-79497
653328737780442628,-59180,-84848,-79605
653328737787875502,-57643,-83456,-78186
653328737795308376,-58575,-84320,-79147
653328737802741250,-58837,-84638,-79434
653328737810174124,-59003,-84767,-79672
653328737817606998,-58119,-84825,-79645
653328737825039872,-58667,-84902,-79691
653328737832379904,-58665,-85070,-79413
653328737839818240,-58851,-84975,-79535
653328737847256576,-59093,-85001,-79690
653328737854694912,-59134,-84847,-79664
653328737862133248,-59117,-84837,-79685
653328737869571584,-59057,-84855,-79665
653328737877009920,-59051,-84900,-79612
653328737884448256,-58990,-84815,-79555
653328737891886592,-58973,-84699,-79579
653328737899324928,-59002,-84709,-79520
653328737906763264,-58953,-84644,-79451
653328737914201600,-58928,-84625,-79580
653328737921639936,-58887,-84731,-79478
653328737929078272,-58993,-84824,-79608
653328737936516608,-58653,-84760,-79271
653328737943954944,-58718,-84696,-79262
653328737951393280,-58687,-84721,-79319
653328737958831616,-58791,-84672,-79371
653328737966362806,-58939,-84754,-79465
653328737973795680,-58899,-84668,-79405
653328737981228554,-58766,-84568,-79251
653328737988661428,-58810,-84716,-79219
653328737996094302,-58672,-84572,-79300
653328738003527176,-58590,-84509,-79185
653328738010960050,-58595,-84510,-79292
653328738018392924,-58618,-84447,-79239
653328738025825798,-58478,-84503,-79241
653328738033258672,-58746,-84448,-79305
653328738040691546,-58718,-84470,-79408
653328738048124420,-58864,-84589,-79400
653328738055557294,-58812,-84593,-79443
653328738062990168,-58899,-84577,-79475
653328738070423042,-58939,-84704,-79472
653328738077855916,-58929,-83242,-77981
653328738085288790,-59040,-84147,-78885
653328738092721664,-59087,-84439,-79196
653328738100092653,-59131,-84532,-79256
653328738107529168,-57710,-83330,-78184
653328738114965683,-58607,-84132,-79051
653328738122402198,-58982,-84494,-79460
653328738129838713,-59180,-84823,-79625
653328738137275228,-58269,-84793,-79724
653328738144711743,-58741,-84943,-79728
653328738152148258,-59013,-84812,-79801
653328738159584773,-59133,-84959,-79809
653328738167021288,-59206,-84889,-79929
653328738174457803,-59169,-84883,-79868
653328738181894318,-59335,-84912,-79821
653328738189330833,-59401,-84967,-79850
653328738196767348,-59333,-84978,-79921
653328738204203863,-59304,-84957,-79910
653328738211640378,-59325,-84952,-79899
653328738219076893,-59468,-85097,-79942
653328738226513408,-59393,-84760,-79667
653328738234011830,-59607,-84983,-79891
653328738241444704,-59367,-84895,-79879
653328738248877578,-59385,-84948,-79894
653328738256310452,-59219,-84901,-79712
653328738263743326,-59233,-84879,-79688
653328738271176200,-59219,-84957,-79726
653328738278609074,-59359,-84924,-79879
653328738286041948,-59409,-84948,-79860
653328738293474822,-59236,-84942,-79825
653328738300907696,-59240,-84970,-79789
653328738308340570,-59333,-84970,-79771
653328738315773444,-59406,-84950,-79846
653328738323206318,-59279,-84916,-79794
653328738330639192,-59347,-84890,-79792
653328738338072066,-59325,-84937,-79808
653328738345504940,-59207,-84864,-79723
653328738352937814,-59259,-84788,-79686
653328738360370688,-59226,-84914,-79779
653328738367710720,-59230,-84825,-79860
653328738375149056,-59239,-84864,-79846
653328738382587392,-59247,-84846,-79808
653328738390025728,-59226,-84817,-79816
653328738397464064,-59291,-83389,-78305
653328738404902400,-59287,-84200,-79085
653328738412340736,-59159,-84540,-79587
653328738419779072,-59259,-84765,-79702
653328738427217408,-57769,-83463,-78248
653328738434655744,-58517,-84161,-79077
653328738442094080,-58858,-84497,-79423
653328738449532416,-59046,-84609,-79617
653328738456970752,-58323,-84679,-79664
653328738464409088,-58727,-84684,-79770
653328738471847424,-59003,-84724,-79656
653328738479285760,-59137,-84693,-79755
653328738486724096,-59206,-84682,-79772
653328738494162432,-59211,-84686,-79799
653328738501631725,-59099,-84502,-79790
653328738509068240,-59033,-84604,-79755
653328738516504755,-59112,-84856,-79546
653328738523941270,-59074,-84711,-79664
653328738531377785,-59111,-84709,-79651
653328738538814300,-59177,-84557,-79607
653328738546250815,-58974,-84441,-79231
653328738553687330,-58988,-84496,-79409
653328738561123845,-58891,-84583,-79362
653328738568560360,-58934,-84601,-79453
653328738575996875,-58759,-84530,-79236
653328738583433390,-58713,-84521,-79319
653328738590869905,-58877,-84532,-79348
653328738598306420,-58879,-84599,-79448
653328738605742935,-58831,-84532,-79350
653328738613179450,-58747,-84544,-79329
653328738620615965,-58701,-84433,-79268
653328738628052480,-58733,-84390,-79331
653328738635519945,-58625,-84412,-79463
653328738642954640,-58704,-84380,-79307
653328738650389335,-58604,-84319,-79226
653328738657824030,-58699,-84365,-79228
653328738665258725,-58597,-84299,-79159
653328738672693420,-58687,-84305,-79114
653328738680128115,-58535,-84269,-79087
653328738687562810,-58550,-84235,-79116
653328738694997505,-58499,-84193,-78927
653328738702432200,-58602,-84187,-79118
653328738709866895,-58556,-84283,-78993
653328738717301590,-58402,-82646,-77437
653328738724736285,-58414,-83492,-78254
653328738732170980,-58316,-83872,-78638
653328738739605675,-58462,-84025,-78771
653328738747040370,-56907,-82660,-77480
653328738754475065,-57657,-83354,-78154
653328738761909760,-57978,-83802,-78466
653328738769344457,-58018,-83768,-78805
653328738776779152,-57798,-83926,-78846
653328738784213847,-58149,-83955,-78735
653328738791648542,-58206,-83974,-78686
653328738799083237,-58283,-83991,-78631
653328738806517932,-58250,-84041,-78645
653328738813952627,-58027,-83889,-78543
653328738821387322,-58062,-83930,-78484
653328738828822017,-58108,-83986,-78537
653328738836256712,-58113,-83944,-78437
653328738843691407,-58091,-83913,-78505
653328738851126102,-58096,-83930,-78461
653328738858560797,-58021,-83908,-78466
653328738865995492,-57863,-83735,-78244
653328738873430187,-57899,-83858,-78305
653328738880864882,-57952,-83801,-78356
653328738888299577,-57869,-83767,-78464
653328738895734272,-57693,-83777,-78101
653328738903138029,-58063,-83581,-78193
653328738910574544,-57896,-83721,-78215
653328738918011059,-57954,-83781,-78462
653328738925447574,-57791,-83741,-78365
653328738932884089,-57815,-83741,-78185
653328738940320604,-57832,-83721,-78316
653328738947757119,-57723,-83734,-78273
653328738955193634,-57831,-83663,-78310
653328738962630149,-57407,-83619,-78266
653328738970066664,-57569,-83782,-78167
653328738977503179,-57679,-83720,-78212
653328738984939694,-57924,-83695,-78236
653328738992376209,-57882,-83688,-78348
653328738999812724,-57909,-83704,-78279
653328739007249239,-57905,-83715,-78293
653328739014685754,-57986,-83740,-78390
653328739022122269,-58026,-83803,-78413
653328739029558784,-57986,-83920,-78474
653328739037057206,-58077,-82315,-77206
653328739044490080,-58029,-83132,-77861
653328739051922954,-58214,-83565,-78221
653328739059355828,-58192,-83754,-78366
653328739066788702,-56759,-82672,-76990
653328739074221576,-57525,-83370,-77848
653328739081654450,-57819,-83722,-78193
653328739089087324,-58273,-83856,-78543
653328739096520198,-58238,-84010,-78563
653328739103953072,-58249,-84025,-78584
653328739111385946,-58293,-83955,-78656
653328739118818820,-58468,-84050,-78765
653328739126251694,-58376,-84044,-78685
653328739133684568,-58367,-84065,-78706
653328739141117442,-58296,-84143,-78739
653328739148550316,-58364,-84115,-78845
653328739155983190,-58310,-83992,-78846
653328739163416064,-58466,-84118,-78822
653328739170756096,-58257,-84209,-78673
653328739178194432,-58438,-84126,-78815
653328739185632768,-58435,-84092,-78594
653328739193071104,-58515,-84074,-78829
653328739200509440,-58597,-84069,-78763
653328739207947776,-58554,-84132,-78829
653328739215386112,-58309,-84111,-78598
653328739222824448,-58379,-83960,-78754
653328739230262784,-58449,-83982,-78889
653328739237701120,-58479,-84012,-78817
653328739245139456,-58362,-83934,-78737
653328739252577792,-58464,-83908,-78769
653328739260016128,-58379,-83968,-78746
653328739267454464,-58452,-84151,-78774
653328739274892800,-58367,-84055,-78810
653328739282331136,-58335,-84025,-78730
653328739289769472,-58311,-84080,-78648
653328739297207808,-58436,-84124,-78767
653328739304677101,-58635,-84049,-78668
653328739312113616,-58462,-84074,-78738
653328739319550131,-58402,-83947,-78744
653328739326986646,-58140,-83936,-78805
653328739334423161,-58275,-83877,-78750
653328739341859676,-58334,-83946,-78695
653328739349296191,-58221,-83965,-78794
653328739356732706,-58239,-82563,-77172
653328739364169221,-58207,-83288,-78013
653328739371605736,-58267,-83687,-78418
653328739379042251,-58290,-83892,-78675
653328739386478766,-56705,-82450,-77177
653328739393915281,-57571,-83279,-77937
653328739401351796,-57856,-83618,-78279
653328739408788311,-58052,-83815,-78481
653328739416224826,-57291,-83855,-78662
653328739423661341,-57684,-83871,-78484
653328739431097856,-58062,-83929,-78628
653328739438627218,-57956,-84081,-78410
653328739446058272,-58102,-83925,-78508
653328739453489326,-58081,-83829,-78542
653328739460920380,-58017,-83845,-78494
653328739468351434,-58143,-83838,-78547
653328739475782488,-58016,-83823,-78530
653328739483213542,-57944,-83781,-78396
653328739490644596,-58002,-83824,-78339
653328739498075650,-57942,-83775,-78359
653328739505506704,-57897,-83683,-78150
653328739512937758,-57842,-83736,-78210
653328739520368812,-57874,-83704,-78275
653328739527799866,-57917,-83709,-78391
653328739535230920,-57742,-83685,-78185
653328739542661974,-57688,-83648,-78228
653328739550093028,-57796,-83651,-78412
653328739557524082,-57888,-83655,-78277
653328739564955136,-57819,-83565,-78259
653328739572262400,-57789,-83443,-78157
653328739579700736,-57806,-83534,-78206
653328739587139072,-57693,-83580,-78224
653328739594577408,-57645,-83683,-78164
653328739602015744,-57665,-83626,-78124
653328739609454080,-57789,-83731,-78286
653328739616892416,-57732,-83675,-78357
653328739624330752,-57606,-83566,-78158
653328739631769088,-57669,-83550,-78222
653328739639207424,-57638,-83583,-78130
653328739646645760,-57577,-83571,-78057
653328739654084096,-57521,-83494,-78140
653328739661522432,-57521,-83449,-77967
653328739668960768,-57557,-83498,-77957
653328739676399104,-57585,-81994,-76543
653328739683837440,-57487,-82705,-77282
653328739691275776,-57462,-83007,-77621
653328739698714112,-57481,-83285,-77963
653328739706214345,-55800,-81742,-76182
653328739713649040,-56552,-82725,-77200
653328739721083735,-57038,-83083,-77632
653328739728518430,-57239,-83227,-77799
653328739735953125,-56324,-83297,-77749
653328739743387820,-56944,-83226,-77835
653328739750822515,-57250,-83349,-77821
653328739758257210,-57313,-83307,-77798
653328739765691905,-57311,-83237,-77776
653328739773126600,-57316,-83279,-77691
653328739780561295,-57250,-83237,-77708
653328739787995990,-57329,-83264,-77753
653328739795430685,-57223,-83213,-77660
653328739802865380,-57135,-83059,-77692
653328739810300075,-57175,-83167,-77848
653328739817734770,-57217,-83313,-77730
653328739825169465,-57112,-83020,-77440
653328739832604160,-57199,-83111,-77586
653328739839976960,-56931,-83290,-77741
653328739847415296,-57049,-83188,-77634
653328739854853632,-56878,-83053,-77510
653328739862291968,-56902,-82995,-77339
653328739869730304,-56976,-83003,-77396
653328739877168640,-56991,-83070,-77412
653328739884606976,-56914,-83008,-77367
653328739892045312,-56954,-83042,-77375
653328739899483648,-57000,-83017,-77378
653328739906921984,-57027,-83006,-77450
653328739914360320,-56955,-82905,-77494
653328739921798656,-56855,-82931,-77259
653328739929236992,-56910,-83058,-77325
653328739936675328,-56988,-83074,-77322
653328739944113664,-56940,-83052,-77314
6.53329E+17,-56977,-83099,-77341
653328739958990336,-57040,-83150,-77426
653328739966428672,-57034,-83283,-77358
653328739973959862,-57296,-83277,-77364
653328739981392736,-57284,-83219,-77580
653328739988825610,-57308,-83211,-77606
653328739996258484,-57269,-81662,-76061
653328740003691358,-57249,-82599,-77083
653328740011124232,-57344,-82982,-77469
653328740018557106,-57278,-83211,-77607
653328740025989980,-55860,-81826,-76262
653328740033422854,-56789,-82713,-77308
653328740040855728,-57065,-83195,-77468
653328740048288602,-57399,-83442,-77770
653328740055721476,-55956,-83422,-77743
653328740063154350,-56744,-83410,-77917
653328740070587224,-57269,-83534,-77947
653328740078020098,-57490,-83423,-78009
653328740085452972,-57546,-83510,-77992
653328740092885846,-57634,-83582,-78128
653328740100318720,-57628,-83558,-78032
653328740107689709,-57470,-83433,-77851
653328740115126224,-57579,-83503,-78051
653328740122562739,-57658,-83550,-78016
653328740129999254,-57730,-83649,-78170
653328740137435769,-57674,-83650,-78063
653328740144872284,-57683,-83552,-77916
653328740152308799,-57753,-83573,-78017
653328740159745314,-57715,-83576,-78019
653328740167181829,-57703,-83563,-78087
653328740174618344,-57577,-83453,-77976
653328740182054859,-57737,-83542,-78072
653328740189491374,-57716,-83633,-78058
653328740196927889,-57923,-83681,-78450
653328740204364404,-57686,-83636,-78212
653328740211800919,-57805,-83576,-78093
653328740219237434,-57876,-83695,-78269
653328740226673949,-57681,-83621,-78161
653328740234110464,-57770,-83723,-78252
653328740241546989,-57916,-83722,-78265
653328740248983504,-57740,-83711,-78195
653328740256420019,-57777,-83697,-78291
653328740263856534,-57661,-83793,-78329
653328740271293049,-57743,-83845,-78329
653328740278729564,-57871,-83707,-78424
653328740286166079,-57803,-83679,-78321
653328740293602594,-57806,-83612,-78341
653328740301039109,-57729,-83692,-78278
653328740308475624,-57757,-83705,-78372
653328740315912139,-57796,-82284,-76939
653328740323348654,-57771,-83034,-77747
653328740330785169,-57876,-83472,-78104
653328740338221684,-57845,-83670,-78139
653328740345658199,-56475,-82235,-76784
653328740353094714,-57206,-83058,-77512
653328740360531229,-57616,-83461,-77955
653328740367967744,-57746,-83602,-78095
653328740375404269,-56544,-83782,-78305
653328740382840784,-57154,-83800,-78212
653328740390277299,-57631,-83697,-78289
653328740397713814,-57764,-83725,-78344
653328740405150329,-57788,-83588,-78219
653328740412586844,-57734,-83670,-78220
653328740420023359,-57903,-83569,-78209
653328740427459874,-57812,-83644,-78173
653328740434896389,-57710,-83615,-78140
653328740442332904,-57825,-83682,-78135
653328740449769419,-57752,-83677,-78268
653328740457205934,-57716,-83565,-78323
653328740464642449,-57703,-83443,-78099
653328740472078964,-57623,-83524,-78133
653328740479515479,-57681,-83617,-78181
653328740486951994,-57813,-83631,-78268
653328740494388509,-57566,-83509,-78006
653328740501825024,-57620,-83577,-78098
653328740509261549,-57526,-83367,-77986
653328740516698064,-57617,-83438,-78181
653328740524134579,-57458,-83533,-78106
653328740531571094,-57651,-83545,-78200
653328740539007609,-57593,-83629,-78138
653328740546444124,-57551,-83563,-78133
653328740553880639,-57529,-83618,-78178
653328740561317154,-57581,-83632,-78247
653328740568753669,-57631,-83682,-78243
653328740576190184,-57712,-83648,-78200
653328740583626699,-57629,-83562,-78013
653328740591063214,-57669,-83658,-78111
653328740598499729,-57628,-83689,-78099
653328740605936244,-57556,-83644,-78054
653328740613372759,-57634,-83578,-78137
653328740620809274,-57624,-83670,-78167
653328740628245789,-57494,-83636,-78105
653328740635682304,-57577,-82141,-77796
653328740643118829,-57269,-82970,-77763
653328740650555344,-57380,-83185,-77958
653328740657991859,-57552,-83324,-78152
653328740665428374,-56105,-82042,-76723
653328740672864889,-56808,-82897,-77481
653328740680301404,-57190,-83322,-77811
653328740687737919,-57306,-83483,-77911
653328740695174434,-56067,-83517,-78042
653328740702610949,-56892,-83500,-78071
653328740710047464,-57288,-83652,-78115
653328740717483979,-57351,-83535,-78134
653328740724920494,-57340,-83423,-78017
653328740732357009,-57337,-83417,-78032
653328740739793524,-57351,-83469,-77952
653328740747230039,-57375,-83551,-78136
653328740754666554,-57391,-83406,-78132
653328740762103069,-57393,-83444,-78041
653328740769539584,-57475,-83435,-77982
653328740777038006,-57282,-83434,-77778
653328740784470880,-57277,-83154,-77627
653328740791903754,-57316,-83283,-77838
653328740799336628,-57306,-83453,-77893
653328740806769502,-57367,-83514,-77902
653328740814202376,-57133,-83283,-77618
653328740821635250,-57284,-83400,-77662
653328740829068124,-57224,-83461,-77826
653328740836500998,-57360,-83423,-77860
653328740843933872,-57047,-83429,-77725
653328740851366746,-57118,-83304,-77855
653328740858799620,-57159,-83354,-77945
653328740866232494,-57200,-83273,-77851
653328740873665368,-57231,-83320,-77786
653328740881098242,-57322,-83401,-77955
653328740888531116,-57466,-83530,-77954
653328740895963990,-57423,-83538,-77884
653328740903396864,-57386,-83494,-77975
653328740910767853,-57394,-83655,-77702
653328740918204368,-57475,-83533,-77983
653328740925640883,-57574,-83661,-78093
653328740933077398,-57647,-83698,-78293
653328740940513913,-57740,-83714,-78396
653328740947950428,-57868,-83822,-78400
653328740955386943,-57953,-82307,-78553
653328740962823458,-57864,-83200,-78520
653328740970259973,-57902,-83677,-78536
653328740977696488,-57979,-83921,-78666
653328740985133003,-56537,-82476,-77159
653328740992569518,-57350,-83360,-77930
653328741000006033,-57858,-83803,-78433
653328741007442548,-58069,-84022,-78735
653328741014879063,-56603,-84083,-77868
653328741022315578,-57594,-84138,-78381
653328741029752093,-57983,-84173,-78628
653328741037188608,-58169,-84202,-78832
653328741044687030,-58538,-84282,-79073
653328741052119904,-58401,-84263,-79042
653328741059552778,-58462,-84357,-78954
653328741066985652,-58494,-84338,-79043
653328741074418526,-58374,-84264,-79060
653328741081851400,-58525,-84317,-79067
653328741089284274,-58518,-84418,-79162
653328741096717148,-58503,-84350,-79092
653328741104150022,-58515,-84186,-79126
653328741111582896,-58585,-84360,-79185
653328741119015770,-58561,-84384,-79106
653328741126448644,-58589,-84462,-79196
653328741133881518,-58330,-84289,-78865
653328741141314392,-58439,-84455,-79182
653328741148747266,-58500,-84504,-79221
653328741156180140,-58568,-84560,-79231
653328741163613014,-58353,-84554,-79209
653328741171045888,-58471,-84542,-79148
653328741178416877,-58648,-84659,-79224
653328741185853392,-58532,-84672,-79237
653328741193289907,-58564,-84661,-79167
653328741200726422,-58569,-84650,-79261
653328741208162937,-58535,-84535,-79292
653328741215599452,-58640,-84527,-79275
653328741223035967,-58668,-84599,-79261
653328741230472482,-58693,-84673,-79486
653328741237908997,-58708,-84708,-79408
653328741245345512,-58766,-84668,-79436
653328741252782027,-58732,-84702,-79364
653328741260218542,-58693,-84788,-79321
653328741267655057,-58713,-84672,-79460
653328741275091572,-58753,-84170,-79501
653328741282528087,-58655,-84418,-79421
653328741289964602,-58746,-84615,-79475
653328741297401117,-58928,-84676,-79546
653328741304837632,-57376,-83223,-77934
653328741312243200,-58007,-84050,-79009
653328741319681536,-58537,-84442,-79252
653328741327119872,-58661,-84438,-79323
653328741334558208,-57147,-84538,-78090
653328741341996544,-58058,-84642,-78896
653328741349434880,-58512,-84690,-79251
653328741356873216,-58773,-84792,-79441
653328741364311552,-58700,-84792,-79467
653328741371749888,-58754,-84789,-79503
653328741379188224,-58711,-84781,-79522
653328741386626560,-58732,-84711,-79517
653328741394064896,-58732,-84697,-79463
653328741401503232,-58878,-84753,-79525
653328741408941568,-58925,-84866,-79557
653328741416379904,-58781,-84762,-79408
653328741423818240,-58642,-84541,-79454
653328741431256576,-58615,-84656,-79368
653328741438694912,-58663,-84704,-79387
653328741446164205,-58745,-84466,-79217
653328741453600720,-58567,-84610,-79017
653328741461037235,-58593,-84678,-79176
653328741468473750,-58632,-84741,-79327
653328741475910265,-58571,-84735,-79214
653328741483346780,-58442,-84860,-79266
653328741490783295,-58576,-84800,-79332
653328741498219810,-58586,-84779,-79267
653328741505656325,-58513,-84820,-79230
653328741513092840,-58465,-84855,-79116
653328741520529355,-58675,-84857,-79260
653328741527965870,-58629,-84792,-79157
653328741535402385,-58544,-84808,-79217
653328741542838900,-58558,-84728,-79082
653328741550275415,-58566,-84694,-79105
653328741557711930,-58533,-84774,-79173
653328741565148445,-58519,-84775,-79156
653328741572584960,-58511,-84754,-79048
653328741580052425,-58708,-84558,-79034
653328741587487120,-58574,-84709,-78908
653328741594921815,-58491,-84737,-78937
653328741602356510,-58400,-84681,-79040
653328741609791205,-58425,-84658,-79027
653328741617225900,-58359,-84710,-79027
653328741624660595,-57776,-83228,-77441
653328741632095290,-58075,-84076,-78218
653328741639529985,-58246,-84487,-78710
653328741646964680,-58296,-84615,-78939
653328741654399375,-56865,-84293,-77393
653328741661834070,-57646,-84513,-78290
653328741669268765,-58084,-84633,-78823
653328741676703460,-58289,-84627,-78794
653328741684138155,-58264,-84544,-78829
653328741691572850,-58316,-84642,-78869
653328741699007545,-58303,-84637,-78873
653328741706442240,-58299,-84570,-78839
653328741713876937,-58025,-84329,-78534
653328741721311632,-58076,-84521,-78716
653328741728746327,-58162,-84594,-78755
653328741736181022,-58307,-84464,-78849
653328741743615717,-58342,-84466,-78880
653328741751050412,-58191,-84492,-78901
653328741758485107,-58101,-84522,-78863
653328741765919802,-57979,-84590,-78763
653328741773354497,-58005,-84404,-78615
653328741780789192,-58134,-84599,-78770
653328741788223887,-58306,-84758,-78955
653328741795658582,-58238,-84709,-78910
653328741803093277,-58266,-84732,-78922
653328741810527972,-58415,-84813,-79068
653328741817962667,-58427,-84841,-79149
653328741825397362,-58535,-84878,-79131
653328741832832057,-58601,-84918,-79234
653328741840266752,-58776,-85029,-79295
653328741847670509,-58494,-85069,-79031
653328741855107024,-58639,-85067,-79199
653328741862543539,-58775,-85179,-79348
653328741869980054,-58993,-85165,-79419
653328741877416569,-59020,-85182,-79519
653328741884853084,-59051,-85225,-79572
653328741892289599,-59136,-85321,-79648
653328741899726114,-59131,-85342,-79759
653328741907162629,-59156,-85463,-79761
653328741914599144,-59083,-85377,-79682
653328741922035659,-59068,-85475,-79570
653328741929472174,-59233,-85503,-79719
653328741936908689,-59230,-85643,-79668
653328741944345204,-59286,-84094,-78375
653328741951781719,-59366,-84947,-79340
653328741959218234,-59448,-85421,-79804
653328741966654749,-59422,-85532,-79901
653328741974091264,-57992,-84298,-78479
653328741981527789,-58770,-85189,-79428
653328741988964304,-59200,-85528,-79910
653328741996400819,-59348,-85580,-80066
653328742003837334,-59017,-85697,-80075
653328742011273849,-59370,-85697,-80222
653328742018710364,-59480,-85757,-80236
653328742026146879,-59467,-85814,-80124
653328742033583394,-59414,-85725,-80194
653328742041019909,-59465,-85817,-80243
653328742048456424,-59462,-85882,-80327
653328742055892939,-59665,-85909,-80356
653328742063329454,-59586,-85819,-80313
653328742070765969,-59633,-85923,-80301
653328742078202484,-59637,-85986,-80341
653328742085638999,-59555,-85932,-80345
653328742093075514,-59617,-85701,-80103
653328742100512029,-59559,-85793,-80198
653328742107948544,-59549,-85888,-80288
653328742115385069,-59711,-86121,-80007
653328742122821584,-59410,-85875,-80111
653328742130258099,-59680,-85987,-80319
653328742137694614,-59691,-85936,-80367
653328742145131129,-59581,-85879,-80454
653328742152567644,-59673,-85920,-80550
653328742160004159,-59713,-85942,-80545
653328742167440674,-59386,-85871,-80597
653328742174877189,-59414,-85874,-80489
653328742182313704,-59508,-85827,-80513
653328742189750219,-59577,-85998,-80529
653328742197186734,-59579,-86119,-80402
653328742204623249,-59617,-86146,-80411
653328742212059764,-59602,-86121,-80357
653328742219496279,-59659,-86090,-80338
653328742226932794,-59602,-86086,-80313
653328742234369309,-59576,-86020,-80467
653328742241805824,-59632,-86076,-80378
653328742249242349,-59825,-86198,-80357
653328742256678864,-59695,-85975,-80407
653328742264115379,-59593,-84482,-78922
653328742271551894,-59575,-85358,-79734
653328742278988409,-59548,-85716,-80070
653328742286424924,-59373,-85855,-80140
653328742293861439,-58029,-84433,-78705
653328742301297954,-58832,-85311,-79611
653328742308734469,-59217,-85632,-80031
653328742316170984,-59327,-85814,-80156
653328742323607499,-57897,-85804,-80310
653328742331044014,-58767,-85846,-80294
653328742338480529,-59095,-85821,-80237
653328742345917044,-59247,-85760,-80221
653328742353353559,-59436,-85821,-80247
653328742360790074,-59346,-85859,-80216
653328742368226589,-59346,-85920,-80291
653328742375663104,-59254,-85937,-80286
653328742383099629,-59343,-85633,-80054
653328742390536144,-59289,-85851,-80128
653328742397972659,-59249,-85901,-79999
653328742405409174,-59286,-85971,-80011
653328742412845689,-59175,-85733,-79928
653328742420282204,-59266,-85787,-79926
653328742427718719,-59279,-85898,-79992
653328742435155234,-59258,-85817,-79993
653328742442591749,-59065,-85630,-79868
653328742450028264,-59232,-85862,-79957
653328742457464779,-59141,-85821,-80063
653328742464901294,-59110,-85797,-79919
653328742472337809,-59141,-85786,-80014
653328742479774324,-59127,-85831,-79909
653328742487210839,-59069,-85713,-79908
653328742494647354,-59122,-85670,-79876
653328742502083869,-59065,-85782,-79892
653328742509520384,-59075,-85663,-79992
653328742516956909,-59152,-85560,-80089
653328742524393424,-58911,-85525,-79878
653328742531829939,-59018,-85782,-79766
653328742539266454,-59033,-85749,-79836
653328742546702969,-58965,-85700,-79737
653328742554139484,-58829,-85732,-79601
653328742561575999,-58876,-85616,-79600
653328742569012514,-58917,-85649,-79685
653328742576449029,-58916,-85683,-79619
653328742583885544,-58822,-84063,-78944
653328742591322059,-58874,-84991,-79323
653328742598758574,-58787,-85304,-79525
653328742606195089,-58946,-85478,-79590
653328742613631604,-57339,-83944,-78054
653328742621068119,-58142,-84829,-79012
653328742628504634,-58472,-85203,-79355
653328742635941149,-58648,-85374,-79476
653328742643377664,-57187,-85472,-79583
653328742650876086,-58203,-85418,-79838
653328742658308960,-58481,-85406,-79651
653328742665741834,-58570,-85555,-79497
653328742673174708,-58602,-85403,-79489
653328742680607582,-58640,-85417,-79508
653328742688040456,-58578,-85394,-79370
653328742695473330,-58545,-85379,-79296
653328742702906204,-58626,-85486,-79471
653328742710339078,-58775,-85690,-79486
653328742717771952,-58789,-85578,-79552
653328742725204826,-58717,-85576,-79485
653328742732637700,-58710,-85464,-79327
653328742740070574,-58784,-85594,-79559
653328742747503448,-58763,-85632,-79540
653328742754936322,-58844,-85721,-79608
653328742762369196,-58751,-85591,-79495
653328742769802070,-58934,-85793,-79741
653328742777234944,-59040,-85889,-79846
653328742784605933,-58858,-86109,-79646
653328742792042448,-58922,-86026,-79885
653328742799478963,-59192,-86100,-80044
653328742806915478,-59202,-86199,-80071
653328742814351993,-59248,-86102,-80057
653328742821788508,-59346,-86055,-80137
653328742829225023,-59495,-86155,-80217
653328742836661538,-59559,-86166,-80316
653328742844098053,-59551,-86165,-80323
653328742851534568,-59528,-86205,-80278
653328742858971083,-59509,-86305,-80207
653328742866407598,-59506,-86217,-80306
653328742873844113,-59546,-86285,-80277
653328742881280628,-59660,-86411,-80402
653328742888717143,-59660,-86324,-80408
653328742896153658,-59667,-86371,-80498
653328742903590173,-59715,-85065,-80387
653328742911026688,-59803,-85856,-80568
653328742918494153,-59991,-86087,-80303
653328742925928848,-59979,-86337,-80585
653328742933363543,-58426,-84865,-79167
653328742940798238,-59217,-85903,-79983
653328742948232933,-59599,-86398,-80327
653328742955667628,-59617,-86496,-80459
653328742963102323,-58295,-86398,-79746
653328742970537018,-59110,-86483,-80260
653328742977971713,-59435,-86494,-80452
653328742985406408,-59625,-86497,-80499
653328742992841103,-59838,-86575,-80672
653328743000275798,-59920,-86587,-80838
653328743007710493,-59898,-86656,-80752
653328743015145188,-59851,-86694,-80687
653328743022579883,-59878,-86619,-80628
653328743030014578,-59838,-86475,-80712
653328743037449273,-59918,-86548,-80659
653328743044883968,-59936,-86503,-80699
653328743052287725,-59719,-86205,-80516
653328743059724240,-59808,-86559,-80609
653328743067160755,-59929,-86629,-80747
653328743074597270,-59957,-86640,-80779
653328743082033785,-59668,-86504,-80584
653328743089470300,-59818,-86567,-80706
653328743096906815,-59861,-86672,-80662
653328743104343330,-59766,-86657,-80685
653328743111779845,-59679,-86852,-80797
653328743119216360,-59782,-86791,-80726
653328743126652875,-59912,-86792,-80759
653328743134089390,-59833,-86684,-80607
653328743141525905,-59887,-86622,-80756
653328743148962420,-59786,-86586,-80708
653328743156398935,-59769,-86629,-80716
653328743163835450,-59889,-86585,-80616
653328743171271965,-59902,-86595,-80733
653328743178708480,-59802,-86584,-80638
653328743186114048,-60054,-86668,-80336
653328743193552384,-59862,-86661,-80410
653328743200990720,-59750,-86709,-80470
653328743208429056,-59853,-86612,-80579
653328743215867392,-59800,-86576,-80610
653328743223305728,-59767,-86550,-80634
653328743230744064,-59743,-86642,-80599
653328743238182400,-59624,-86652,-80644
653328743245620736,-59729,-86616,-80665
653328743253059072,-59007,-85042,-79080
653328743260497408,-59341,-85869,-79852
653328743267935744,-59596,-86326,-80251
653328743275374080,-59582,-86385,-80363
653328743282812416,-58076,-85915,-78991
653328743290250752,-58907,-86333,-79842
653328743297689088,-59350,-86417,-80202
653328743305127424,-59426,-86494,-80441
653328743312565760,-59532,-86557,-80422
653328743320096950,-59700,-86690,-80666
653328743327529824,-59613,-86575,-80525
653328743334962698,-59611,-86519,-80405
653328743342395572,-59679,-86399,-80531
653328743349828446,-59569,-86549,-80629
653328743357261320,-59501,-86495,-80576
653328743364694194,-59395,-86450,-80339
653328743372127068,-59427,-86500,-80384
653328743379559942,-59446,-86458,-80316
653328743386992816,-59452,-86407,-80266
653328743394425690,-59392,-86411,-80262
653328743401858564,-59339,-86171,-80122
653328743409291438,-59372,-86339,-80331
653328743416724312,-59357,-86449,-80307
653328743424157186,-59301,-86404,-80237
653328743431590060,-59179,-86454,-80101
653328743439022934,-59147,-86324,-80216
653328743446455808,-59127,-86305,-80085
653328743453795840,-59013,-86357,-80106
653328743461234176,-59057,-86341,-80044
653328743468672512,-59111,-86354,-80038
653328743476110848,-59270,-86272,-80041
653328743483549184,-59080,-86271,-80004
653328743490987520,-59114,-86260,-80094
653328743498425856,-59154,-86229,-80070
653328743505864192,-59079,-86257,-80040
653328743513302528,-59028,-86282,-80000
653328743520740864,-59054,-86164,-79948
653328743528179200,-58974,-86177,-80027
653328743535617536,-58991,-86134,-79894
653328743543055872,-58947,-86151,-79942
653328743550494208,-59043,-86156,-79914
653328743557932544,-58974,-86171,-79827
653328743565370880,-58989,-85980,-79909
653328743572809216,-58944,-84469,-78330
653328743580247552,-58866,-85427,-79210
653328743587716845,-58990,-85457,-79349
653328743595153360,-58829,-85727,-79450
653328743602589875,-57382,-84455,-78150
653328743610026390,-58206,-85293,-78958
653328743617462905,-58529,-85646,-79261
653328743624899420,-58695,-85823,-79575
653328743632335935,-57196,-85889,-79583
653328743639772450,-58003,-85850,-79544
653328743647208965,-58324,-85885,-79540
653328743654645480,-58508,-85835,-79516
653328743662081995,-58630,-85816,-79687
653328743669518510,-58580,-85799,-79599
653328743676955025,-58603,-85950,-79614
653328743684391540,-58641,-85838,-79672
653328743691828055,-58779,-85896,-79589
653328743699264570,-58775,-85973,-79693
653328743706701085,-58742,-85982,-79758
653328743714137600,-58771,-86026,-79841
653328743721636022,-58725,-86181,-79884
653328743729068896,-58795,-86117,-79847
653328743736501770,-58855,-86175,-79853
653328743743934644,-58990,-86162,-79800
653328743751367518,-58857,-86123,-79807
653328743758800392,-58977,-86081,-79911
653328743766233266,-59040,-86198,-80148
653328743773666140,-59059,-86307,-80105
653328743781099014,-59104,-86349,-80213
653328743788531888,-59278,-86408,-80196
653328743795964762,-59295,-86516,-80288
653328743803397636,-59257,-86400,-80261
653328743810830510,-59391,-86481,-80320
653328743818263384,-59490,-86468,-80295
653328743825696258,-59403,-86511,-80271
653328743833129132,-59461,-86567,-80379
653328743840562006,-59439,-86579,-80482
653328743847994880,-59484,-86554,-80471
653328743855334912,-59306,-86531,-80345
653328743862773248,-59412,-86601,-80423
653328743870211584,-59409,-86769,-80457
653328743877649920,-59454,-86668,-80362
653328743885088256,-59479,-86619,-80420
653328743892526592,-59585,-85115,-79870
653328743899964928,-59668,-86041,-80267
653328743907403264,-59605,-86314,-80377
653328743914841600,-59597,-86462,-80501
653328743922279936,-58039,-85051,-79050
653328743929718272,-58937,-85999,-79902
653328743937156608,-59306,-86334,-80325
653328743944594944,-59659,-86411,-80381
653328743952033280,-58058,-86496,-80404
653328743959471616,-58849,-86514,-80449
653328743966909952,-59386,-86523,-80569
653328743974348288,-59497,-86616,-80543
653328743981786624,-59497,-86633,-80523
653328743989317814,-59702,-86691,-80715
653328743996750688,-59750,-86737,-80612
653328744004183562,-59768,-86663,-80579
653328744011616436,-59564,-86690,-80590
653328744019049310,-59553,-86714,-80642
653328744026482184,-59576,-86649,-80633
653328744033915058,-59628,-86719,-80770
653328744041347932,-59644,-86473,-80541
653328744048780806,-59621,-86737,-80620
653328744056213680,-59531,-86629,-80652
653328744063646554,-59606,-86737,-80749
653328744071079428,-59490,-86658,-80566
653328744078512302,-59543,-86656,-80570
653328744085945176,-59563,-86698,-80685
653328744093378050,-59540,-86678,-80778
653328744100810924,-59446,-86707,-80813
653328744108243798,-59561,-86630,-80728
653328744115676672,-59530,-86692,-80574
653328744123109558,-59300,-86418,-80447
653328744130542432,-59321,-86527,-80604
653328744137975306,-59424,-86590,-80572
653328744145408180,-59419,-86586,-80551
653328744152841054,-59474,-86581,-80557
653328744160273928,-59589,-86641,-80663
653328744167706802,-59486,-86667,-80589
653328744175139676,-59513,-86584,-80482
653328744182572550,-59522,-86575,-80543
653328744190005424,-59511,-86619,-80608
653328744197438298,-59453,-86680,-80517
653328744204871172,-59512,-86568,-80466
653328744212304046,-59499,-85333,-80452
653328744219736920,-59475,-85976,-80484
653328744227169794,-59400,-86278,-80472
653328744234602668,-59437,-86392,-80592
653328744242035542,-57900,-84976,-79046
653328744249468416,-58634,-85853,-79746
653328744256777508,-59159,-86298,-79867
653328744264217664,-59321,-86373,-80290
653328744271657820,-57949,-86458,-79636
653328744279097976,-58686,-86455,-80070
653328744286538132,-58962,-86396,-80217
653328744293978288,-59236,-86449,-80316
653328744301418444,-59236,-86407,-80360
653328744308858600,-59332,-86421,-80460
653328744316298756,-59266,-86359,-80412
653328744323738912,-59272,-86446,-80425
653328744331179068,-59211,-86346,-80310
653328744338619224,-59201,-86412,-80513
653328744346059380,-59145,-86297,-80276
653328744353499536,-59103,-86308,-80375
653328744360939692,-59165,-86172,-80308
653328744368379848,-59086,-86239,-80261
653328744375820004,-59051,-86240,-80253
653328744383260160,-59194,-86297,-80231
653328744390824118,-59348,-86310,-80113
653328744398256992,-59080,-86138,-80138
653328744405689866,-59002,-86265,-80199
653328744413122740,-59040,-86136,-80119
653328744420555614,-58763,-86183,-80135
653328744427988488,-58837,-86136,-80068
653328744435421362,-58823,-86108,-80122
653328744442854236,-58897,-86160,-80041
653328744450287110,-58997,-86049,-80100
653328744457719984,-58978,-86070,-80056
653328744465152858,-58847,-86054,-80109
653328744472585732,-58825,-86089,-80079
653328744480018606,-58853,-86208,-80036
653328744487451480,-58880,-86115,-79940
653328744494884354,-58746,-86038,-80001
653328744502317228,-58883,-86105,-80105
653328744509750102,-58756,-86039,-80005
653328744517182976,-58661,-85933,-80060
653328744524523008,-58764,-85701,-80199
653328744531961344,-58665,-85867,-79942
653328744539399680,-58622,-86078,-79874
653328744546838016,-58576,-86001,-79781
653328744554276352,-58655,-85915,-79751
653328744561714688,-57920,-84357,-78273
653328744569153024,-58230,-85118,-79079
653328744576591360,-58349,-85720,-79362
653328744584029696,-58459,-85577,-79612
653328744591468032,-57035,-85556,-78207
653328744598906368,-57887,-85557,-79005
653328744606344704,-58242,-85677,-79370
653328744613783040,-58235,-85690,-79463
653328744621221376,-58278,-85677,-79495
653328744628659712,-58326,-85694,-79461
653328744636098048,-58373,-85710,-79552
653328744643536384,-58407,-85696,-79572
653328744650974720,-58314,-85652,-79574
653328744658474953,-58182,-85486,-79620
653328744665909648,-58300,-85646,-79443
653328744673344343,-58391,-85700,-79571
653328744680779038,-58352,-85673,-79679
653328744688213733,-58430,-85852,-79587
653328744695648428,-58443,-85833,-79647
653328744703083123,-58499,-85865,-79668
653328744710517818,-58334,-85707,-79532
653328744717952513,-58486,-85813,-79679
653328744725387208,-58550,-85854,-79707
653328744732821903,-58660,-86012,-79860
653328744740256598,-58542,-86047,-79799
653328744747691293,-58685,-85981,-79875
653328744755125988,-58742,-85995,-79895
653328744762560683,-58705,-86026,-80009
653328744769995378,-58775,-86101,-80103
653328744777430073,-58849,-86061,-80136
653328744784864768,-58873,-86037,-80247
653328744792299465,-58957,-85914,-80449
653328744799734160,-58958,-86148,-80317
653328744807168855,-59049,-86129,-80393
653328744814603550,-58998,-86153,-80352
653328744822038245,-59023,-86302,-80214
653328744829472940,-59215,-86172,-80247
653328744836907635,-59132,-86160,-80239
653328744844342330,-59005,-86118,-80365
653328744851777025,-58985,-86233,-80326
653328744859211720,-59031,-86312,-80384
653328744866646415,-59217,-86151,-80427
653328744874081110,-59073,-86162,-80330
653328744881515805,-59059,-84688,-78776
653328744888950500,-59010,-85518,-79504
653328744896385195,-59086,-85963,-79887
653328744903819890,-59041,-86132,-80084
653328744911254585,-57606,-84656,-78703
653328744918689280,-58499,-85508,-79589
653328744926093037,-58563,-85889,-79897
653328744933529552,-58872,-86016,-80106
653328744940966067,-57582,-86067,-80224
653328744948402582,-58380,-86148,-80340
653328744955839097,-58684,-86033,-80334
653328744963275612,-58909,-86052,-80402
653328744970712127,-59030,-86123,-80378
653328744978148642,-58977,-86060,-80262
653328744985585157,-58891,-86102,-80225
653328744993021672,-59108,-86063,-80252
653328745000458187,-59218,-86101,-80245
653328745007894702,-59164,-86107,-80345
653328745015331217,-59223,-86164,-80342
653328745022767732,-59052,-86128,-80312
653328745030204247,-59085,-86042,-80237
653328745037640762,-59095,-86169,-80321
653328745045077277,-59130,-86165,-80353
653328745052513792,-59109,-86208,-80363
653328745060012214,-59134,-85845,-80362
653328745067445088,-59069,-85936,-80344
653328745074877962,-59003,-86040,-80329
653328745082310836,-59081,-86211,-80209
653328745089743710,-59077,-86091,-80181
653328745097176584,-59045,-86069,-80201
653328745104609458,-59029,-86126,-80210
653328745112042332,-59061,-86098,-80290
653328745119475206,-59120,-86129,-80285
653328745126908080,-59097,-86036,-80156
653328745134340954,-58963,-85966,-80175
653328745141773828,-58925,-86012,-80274
653328745149206702,-59045,-86119,-80316
653328745156639576,-59000,-86057,-80292
653328745164072450,-58932,-85950,-80307
653328745171505324,-58990,-85981,-80250
653328745178938198,-58986,-85886,-80260
653328745186371072,-58891,-85854,-80157
653328745193680164,-58637,-85920,-80033
653328745201120320,-58769,-84409,-78735
653328745208560476,-58820,-85409,-79480
653328745216000632,-58869,-85673,-79823
653328745223440788,-59005,-85780,-79997
653328745230880944,-57483,-84339,-78669
653328745238321100,-58188,-85213,-79432
653328745245761256,-58633,-85601,-79934
653328745253201412,-58734,-85808,-80062
653328745260641568,-57322,-85816,-80170
653328745268081724,-58205,-85909,-80141
653328745275521880,-58604,-85882,-80103
653328745282962036,-58710,-85855,-80140
653328745290402192,-58810,-85879,-80126
653328745297842348,-58728,-85745,-80039
653328745305282504,-58686,-85794,-79976
653328745312722660,-58734,-85808,-79972
653328745320162816,-58654,-85823,-80013
653328745327695817,-58422,-85974,-79739
653328745335130512,-58717,-85752,-79841
653328745342565207,-58804,-85778,-79907
653328745349999902,-58750,-85635,-79875
653328745357434597,-58640,-85583,-79856
653328745364869292,-58603,-85548,-79915
653328745372303987,-58584,-85568,-79933
653328745379738682,-58380,-85482,-79787
653328745387173377,-58352,-85674,-79761
653328745394608072,-58415,-85559,-79792
653328745402042767,-58438,-85630,-79751
653328745409477462,-58337,-85534,-79851
653328745416912157,-58549,-85513,-79898
653328745424346852,-58467,-85467,-79756
653328745431781547,-58558,-85489,-79819
653328745439216242,-58432,-85444,-79792
653328745446650937,-58412,-85472,-79821
653328745454085632,-58315,-85423,-79783
653328745461520329,-58191,-85410,-79542
653328745468955024,-58201,-85360,-79648
653328745476389719,-58336,-85494,-79655
653328745483824414,-58214,-85386,-79601
653328745491259109,-58326,-85346,-79698
653328745498693804,-58292,-85363,-79695
653328745506128499,-58224,-85338,-79701
653328745513563194,-58248,-85291,-79711
653328745520997889,-58237,-83918,-79552
653328745528432584,-58179,-84733,-79578
653328745535867279,-58097,-85027,-79596
653328745543301974,-58062,-85135,-79448
653328745550736669,-56696,-83667,-78069
653328745558171364,-57429,-84513,-78809
653328745565606059,-57727,-84825,-79149
653328745573040754,-57900,-84997,-79244
653328745580475449,-56592,-85095,-79470
653328745587910144,-57255,-85022,-79326
653328745595344841,-57355,-85019,-79062
653328745602779536,-57837,-85139,-79253
653328745610214231,-57994,-85061,-79377
653328745617648926,-57911,-85086,-79365
653328745625083621,-57896,-85162,-79311
653328745632518316,-57942,-85106,-79370
653328745639953011,-57971,-85117,-79385
653328745647387706,-57927,-85112,-79351
653328745654822401,-57987,-85135,-79406
653328745662257096,-58153,-85180,-79466
653328745669691791,-58103,-84943,-79473
653328745677126486,-58180,-85186,-79541
653328745684561181,-58385,-85315,-79577
653328745691995876,-58418,-85428,-79634
653328745699430571,-58222,-85170,-79525
653328745706865266,-58233,-85305,-79685
653328745714299961,-58418,-85328,-79781
653328745721734656,-58420,-85327,-79707
653328745729107456,-58418,-85472,-79894
653328745736545792,-58451,-85455,-79897
653328745743984128,-58442,-85333,-79919
653328745751422464,-58667,-85388,-79934
653328745758860800,-58602,-85460,-79958
653328745766299136,-58518,-85345,-79851
653328745773737472,-58711,-85469,-79986
653328745781175808,-58669,-85458,-79967
653328745788614144,-58671,-85470,-80084
653328745796052480,-58791,-85390,-80075
653328745803490816,-58701,-85472,-80183
653328745810929152,-58770,-85574,-80125
653328745818367488,-58794,-85559,-80102
653328745825805824,-58819,-85506,-80067
653328745833244160,-58837,-85653,-80121
653328745840682496,-58818,-85418,-80258
653328745848120832,-58879,-85613,-80243
653328745855559168,-58840,-85568,-80165
653328745863090358,-58873,-85691,-79807
653328745870523232,-57661,-84111,-78439
653328745877956106,-58232,-84837,-79313
653328745885388980,-58555,-85227,-79746
653328745892821854,-58797,-85403,-80075
653328745900254728,-57368,-85454,-78670
653328745907687602,-58139,-85449,-79487
653328745915120476,-58390,-85484,-79828
653328745922553350,-58759,-85473,-80016
653328745929986224,-58719,-85474,-80120
653328745937419098,-58747,-85470,-80083
653328745944851972,-58490,-85516,-79782
653328745952284846,-58663,-85597,-80032
653328745959717720,-58698,-85608,-80027
653328745967150594,-58680,-85475,-80053
653328745974583468,-58709,-85611,-80117
653328745982016342,-58834,-85619,-80204
653328745989449216,-58778,-85462,-80193
653328745996820205,-58557,-85473,-80179
653328746004256720,-58802,-85452,-80224
653328746011693235,-58793,-85486,-80273
653328746019129750,-58597,-85264,-80095
653328746026566265,-58636,-85461,-80184
653328746034002780,-58841,-85380,-80089
653328746041439295,-58786,-85347,-80166
653328746048875810,-58625,-85363,-79948
653328746056312325,-58701,-85308,-79881
653328746063748840,-58780,-85325,-80016
653328746071185355,-58705,-85344,-80147
653328746078621870,-58830,-85424,-80060
653328746086058385,-58700,-85300,-80038
653328746093494900,-58733,-85347,-80152
653328746100931415,-58721,-85307,-80225
653328746108367930,-58675,-85330,-80386
653328746115804445,-58530,-85255,-80230
653328746123240960,-58517,-85255,-80168
653328746130708425,-58717,-85152,-80194
653328746138143120,-58786,-85139,-80057
653328746145577815,-58580,-85140,-80004
653328746153012510,-58512,-85204,-79883
653328746160447205,-58586,-85357,-79909
653328746167881900,-58487,-85343,-79900
653328746175316595,-58541,-85259,-79952
653328746182751290,-58528,-85145,-79900
653328746190185985,-58586,-83786,-78479
653328746197620680,-58532,-84553,-79168
653328746205055375,-58563,-84931,-79629
653328746212490070,-58570,-85050,-79732
653328746219924765,-57075,-83711,-78271
653328746227359460,-57744,-84479,-79116
653328746234794155,-58107,-84796,-79507
653328746242228850,-58302,-84988,-79751
653328746249663545,-56897,-85089,-79739
653328746257098240,-57692,-85061,-79661
653328746264471040,-57870,-85119,-79686
653328746271909376,-58130,-85209,-79743
653328746279347712,-58310,-85142,-79652
653328746286786048,-58378,-85080,-79676
653328746294224384,-58300,-84985,-79706
653328746301662720,-58364,-85060,-79710
653328746309101056,-58196,-85040,-79568
653328746316539392,-58244,-84996,-79533
653328746323977728,-58137,-85002,-79611
653328746331416064,-58290,-85002,-79506
653328746338854400,-58183,-84747,-79277
653328746346292736,-58155,-84771,-79354
653328746353731072,-58095,-84935,-79531
653328746361169408,-58083,-84925,-79464
653328746368607744,-57989,-84894,-79252
653328746376046080,-58047,-84806,-79320
653328746383484416,-58138,-84823,-79531
653328746390922752,-58066,-84834,-79515
653328746398422985,-58003,-84820,-79468
653328746405857680,-58053,-84704,-79477
653328746413292375,-58013,-84786,-79382
653328746420727070,-57975,-84721,-79343
653328746428161765,-57966,-84647,-79384
653328746435596460,-57961,-84621,-79299
653328746443031155,-57979,-84801,-79284
653328746450465850,-57972,-84850,-79227
653328746457900545,-57780,-84650,-79169
653328746465335240,-57840,-84654,-79126
653328746472769935,-57795,-84688,-79170
653328746480204630,-57708,-84679,-79251
653328746487639325,-57682,-84595,-79091
653328746495074020,-57662,-84613,-79180
653328746502508715,-57698,-84639,-79164
653328746509943410,-57713,-83150,-78606
653328746517378105,-57662,-83924,-78846
653328746524812800,-57632,-84261,-78865
653328746532216557,-57521,-84473,-78722
653328746539653072,-55963,-83035,-77334
653328746547089587,-56910,-83849,-78269
653328746554526102,-57308,-84250,-78747
653328746561962617,-57447,-84419,-78928
653328746569399132,-56143,-84476,-79037
653328746576835647,-56934,-84440,-78962
653328746584272162,-57345,-84554,-79032
653328746591708677,-57601,-84587,-79145
653328746599145192,-57675,-84584,-79107
653328746606581707,-57726,-84685,-79133
653328746614018222,-57811,-84655,-79096
653328746621454737,-57918,-84794,-79241
653328746628891252,-57865,-84845,-79303
653328746636327767,-57905,-84864,-79266
653328746643764282,-57954,-84766,-79334
653328746651200797,-57955,-84929,-79397
653328746658637312,-58176,-84653,-79329
653328746666135734,-57779,-84812,-79199
653328746673568608,-58054,-84855,-79296
653328746681001482,-58088,-84758,-79336
653328746688434356,-57938,-84587,-79207
653328746695867230,-57917,-84645,-79289
653328746703300104,-58050,-84737,-79356
653328746710732978,-58107,-84807,-79322
653328746718165852,-57909,-84712,-79474
653328746725598726,-58023,-84817,-79395
653328746733031600,-58201,-84841,-79597
653328746740464474,-58109,-84875,-79500
653328746747897348,-58119,-84884,-79413
653328746755330222,-58171,-84861,-79447
653328746762763096,-58193,-84846,-79452
653328746770195970,-58162,-84838,-79579
653328746777628844,-58181,-84892,-79492
653328746785061718,-58167,-84834,-79446
653328746792494592,-58139,-84832,-79558
653328746799865581,-58137,-85020,-79591
653328746807302096,-58125,-84978,-79365
653328746814738611,-58129,-84848,-79348
653328746822175126,-58096,-84787,-79328
653328746829611641,-58233,-83644,-79474
653328746837048156,-57990,-84192,-79477
653328746844484671,-57989,-84419,-79411
653328746851921186,-58121,-84613,-79366
653328746859357701,-56651,-83175,-78016
653328746866794216,-57420,-83950,-78759
653328746874230731,-57720,-84384,-78986
653328746881667246,-57954,-84519,-79168
653328746889103761,-56535,-84574,-78247
653328746896540276,-57344,-84626,-78858
653328746903976791,-57752,-84682,-79067
653328746911413306,-57893,-84661,-79155
653328746918849821,-57889,-84619,-79179
653328746926286336,-57862,-84503,-79298
653328746933753801,-57749,-84678,-79487
653328746941188496,-57790,-84613,-79300
653328746948623191,-57967,-84538,-79369
653328746956057886,-58100,-84601,-79227
653328746963492581,-57961,-84641,-79229
653328746970927276,-57944,-84642,-79191
653328746978361971,-57871,-84436,-79220
653328746985796666,-57938,-84367,-79179
653328746993231361,-57863,-84535,-79057
653328747000666056,-57931,-84468,-79179
653328747008100751,-57703,-84251,-78877
653328747015535446,-57742,-84270,-79074
653328747022970141,-57738,-84388,-78996
653328747030404836,-57759,-84432,-79012
653328747037839531,-57503,-84334,-78913
653328747045274226,-57663,-84322,-79005
653328747052708921,-57732,-84297,-78891
653328747060143616,-57691,-84296,-78982
653328747067609270,-57744,-84363,-79000
653328747075042144,-57685,-84348,-79042
653328747082475018,-57685,-84339,-79007
653328747089907892,-57627,-84320,-78854
653328747097340766,-57586,-84165,-78862
653328747104773640,-57550,-84220,-78924
653328747112206514,-57503,-84138,-78810
653328747119639388,-57426,-84318,-78748
653328747127072262,-57379,-84195,-78633
653328747134505136,-57412,-84094,-78725
653328747141938010,-57486,-84190,-78719
653328747149370884,-57542,-84203,-78747
653328747156803758,-57352,-84045,-78732
653328747164236632,-57276,-84130,-78712
653328747171669506,-57231,-84084,-78499
653328747179102380,-56637,-82573,-77018
653328747186535254,-56983,-83332,-77770
653328747193968128,-57147,-83690,-78312
653328747201308160,-56950,-83893,-78237
653328747208746496,-55500,-83756,-76845
653328747216184832,-56416,-83823,-77642
653328747223623168,-56833,-83814,-78096
653328747231061504,-57044,-83918,-78321
653328747238499840,-57028,-83798,-78277
653328747245938176,-57048,-83746,-78283
653328747253376512,-57089,-83747,-78396
653328747260814848,-57131,-83826,-78222
653328747268253184,-57163,-83775,-78277
653328747275691520,-57019,-83613,-78232
653328747283129856,-56985,-83796,-78265
653328747290568192,-56995,-83764,-78168
653328747298006528,-56984,-83587,-78038
653328747305444864,-56952,-83660,-78166
653328747312883200,-56951,-83637,-78348
653328747320321536,-56996,-83674,-78156
653328747327759872,-56688,-83329,-77950
653328747335291062,-56553,-83189,-78185
653328747342723936,-56839,-83427,-78158
653328747350156810,-56784,-83419,-77961
653328747357589684,-56701,-83447,-77819
653328747365022558,-56678,-83524,-77861
653328747372455432,-56782,-83493,-77999
653328747379888306,-56917,-83618,-77878
653328747387321180,-56830,-83550,-77972
653328747394754054,-56762,-83502,-77904
653328747402186928,-56733,-83548,-77921
653328747409619802,-56664,-83503,-77978
653328747417052676,-56591,-83409,-77889
653328747424485550,-56572,-83465,-77819
653328747431918424,-56529,-83459,-77741
653328747439351298,-56508,-83291,-77863
653328747446784172,-56503,-83277,-77802
653328747454217046,-56485,-83275,-77733
653328747461649920,-56441,-83295,-77769
653328747469020909,-56688,-83364,-77736
653328747476457424,-56456,-83280,-77598
653328747483893939,-56529,-83313,-77521
653328747491330454,-56561,-83158,-77601
653328747498766969,-56596,-81721,-76121
653328747506203484,-56454,-82484,-76858
653328747513639999,-56395,-82973,-77263
653328747521076514,-56418,-83146,-77510
653328747528513029,-54932,-81831,-76072
653328747535949544,-55878,-82630,-76973
653328747543386059,-56292,-83088,-77451
653328747550822574,-56499,-83208,-77547
653328747558259089,-56302,-83307,-77622
653328747565695604,-56585,-83383,-77790
653328747573132119,-56778,-83476,-77822
653328747580568634,-56707,-83451,-77770
653328747588005149,-56823,-83543,-77765
653328747595441664,-56784,-83397,-77790
653328747602878189,-56555,-83500,-77507
653328747610314704,-56687,-83542,-77674
653328747617751219,-56821,-83468,-77905
653328747625187734,-56770,-83382,-77948
653328747632624249,-56949,-83443,-77957
653328747640060764,-57014,-83476,-78075
653328747647497279,-56954,-83307,-77836
653328747654933794,-57003,-83461,-77782
653328747662370309,-56986,-83550,-77944
653328747669806824,-57002,-83537,-78067
653328747677243339,-56793,-83450,-77906
653328747684679854,-56861,-83513,-78001
653328747692116369,-57053,-83631,-77992
653328747699552884,-56999,-83494,-78029
653328747706989399,-57017,-83514,-78001
653328747714425914,-57044,-83415,-77928
653328747721862429,-56955,-83546,-77972
653328747729298944,-56921,-83469,-78064
653328747736766409,-56928,-83736,-77814
653328747744201104,-56869,-83518,-77850
653328747751635799,-56833,-83562,-77868
653328747759070494,-56833,-83407,-77881
653328747766505189,-56834,-83320,-77818
653328747773939884,-56770,-83380,-77813
653328747781374579,-56876,-83453,-77854
653328747788809274,-56978,-83534,-77931
653328747796243969,-56856,-83372,-77842
653328747803678664,-57069,-83528,-77865
653328747811113359,-56869,-83439,-77877
653328747818548054,-56925,-81882,-76374
653328747825982749,-56825,-82644,-77021
653328747833417444,-56835,-83060,-77574
653328747840852139,-56852,-83213,-77802
653328747848286834,-55296,-81756,-76229
653328747855721529,-56068,-82493,-77172
653328747863156224,-56505,-82983,-77599
653328747870559981,-56903,-83099,-77916
653328747877996496,-55350,-83188,-77911
653328747885433011,-56085,-83255,-77774
653328747892869526,-56441,-83326,-77795
653328747900306041,-56626,-83211,-77810
653328747907742556,-56661,-83262,-77626
653328747915179071,-56682,-83260,-77603
653328747922615586,-56852,-83297,-77734
653328747930052101,-56800,-83218,-77692
653328747937488616,-56657,-83155,-77641
653328747944925131,-56671,-83115,-77696
653328747952361646,-56676,-83162,-77655
653328747959798161,-56631,-83121,-77588
653328747967234676,-56643,-82932,-77345
653328747974671191,-56522,-83085,-77480
653328747982107706,-56595,-83091,-77628
653328747989544221,-56681,-83115,-77659
653328747996980736,-56488,-82947,-77567
653328748004417261,-56460,-83314,-77452
653328748011853776,-56602,-83222,-77549
653328748019290291,-56586,-83152,-77647
653328748026726806,-56523,-83212,-77506
653328748034163321,-56475,-83107,-77625
653328748041599836,-56474,-83128,-77648
653328748049036351,-56532,-83036,-77559
653328748056472866,-56586,-82985,-77611
653328748063909381,-56492,-83025,-77454
653328748071345896,-56456,-83043,-77577
653328748078782411,-56588,-82954,-77622
653328748086218926,-56536,-83000,-77594
653328748093655441,-56386,-83059,-77460
653328748101091956,-56398,-83032,-77491
653328748108528471,-56436,-82945,-77370
653328748115964986,-56378,-82883,-77322
653328748123401501,-56346,-82970,-77421
653328748130838016,-56280,-82922,-77263
653328748138336438,-56650,-81581,-76889
653328748145769312,-56449,-82279,-77076
653328748153202186,-56396,-82589,-77232
653328748160635060,-56346,-82722,-77274
653328748168067934,-54868,-81265,-75744
653328748175500808,-55605,-82115,-76567
653328748182933682,-55970,-82576,-76952
653328748190366556,-56098,-82723,-77147
653328748197799430,-54669,-82827,-77233
653328748205232304,-55488,-82865,-77156
653328748212665178,-55925,-82864,-77218
653328748220098052,-56030,-82811,-77148
653328748227530926,-56121,-82656,-77207
653328748234963800,-56142,-82690,-77080
653328748242396674,-56189,-82710,-77122
653328748249829548,-56121,-82700,-77202
653328748257262422,-56200,-82664,-77120
653328748264695296,-56212,-82745,-77110
653328748272097225,-55999,-82796,-77194
653328748279531920,-56063,-82709,-77183
653328748286966615,-56063,-82508,-76876
653328748294401310,-56004,-82433,-76903
653328748301836005,-56170,-82598,-77101
653328748309270700,-56109,-82604,-77031
653328748316705395,-55742,-82372,-76755
653328748324140090,-55821,-82563,-76794
653328748331574785,-55916,-82538,-76872
653328748339009480,-55867,-82411,-76774
653328748346444175,-55739,-82486,-76841
653328748353878870,-55811,-82441,-76859
653328748361313565,-55816,-82439,-76804
653328748368748260,-55758,-82470,-76754
653328748376182955,-55746,-82274,-76717
653328748383617650,-55826,-82427,-76707
653328748391052345,-55665,-82391,-76727
653328748398487040,-55666,-82302,-76548
653328748405890797,-55480,-82368,-76665
653328748413327312,-55568,-82384,-76648
653328748420763827,-55736,-82386,-76668
653328748428200342,-55622,-82307,-76576
653328748435636857,-55585,-82440,-76525
653328748443073372,-55596,-82423,-76557
653328748450509887,-55638,-82384,-76682
653328748457946402,-55667,-81184,-76589
653328748465382917,-55737,-81830,-76599
653328748472819432,-55775,-82218,-76615
653328748480255947,-55754,-82356,-76606
653328748487692462,-54276,-80841,-75160
653328748495128977,-55095,-81821,-76051
653328748502565492,-55714,-82270,-76535
653328748510002007,-55767,-82456,-76636
653328748517438522,-54419,-82461,-75931
653328748524875037,-55245,-82551,-76475
653328748532311552,-55740,-82467,-76774
653328748539779017,-55697,-82236,-76577
653328748547213712,-55934,-82520,-76742
653328748554648407,-56117,-82558,-76840
653328748562083102,-56159,-82648,-76884
653328748569517797,-56215,-82650,-77114
653328748576952492,-56169,-82684,-76990
653328748584387187,-56232,-82731,-76939
653328748591821882,-56365,-82685,-77114
653328748599256577,-56377,-82685,-77075
653328748606691272,-56371,-82464,-77118
653328748614125967,-56319,-82568,-77083
653328748621560662,-56353,-82660,-77030
653328748628995357,-56260,-82623,-76996
653328748636430052,-56104,-82552,-76875
653328748643864747,-56286,-82632,-76933
653328748651299442,-56247,-82633,-77138
653328748658734137,-56225,-82696,-77169
653328748666168832,-56080,-82753,-77155
653328748673572589,-55901,-82828,-77159
653328748681009104,-56097,-82716,-77063
653328748688445619,-56194,-82671,-76960
653328748695882134,-56299,-82725,-76998
653328748703318649,-56328,-82749,-77036
653328748710755164,-56299,-82834,-77059
653328748718191679,-56282,-82622,-76911
653328748725628194,-56350,-82621,-77020
653328748733064709,-56304,-82640,-77028
653328748740501224,-56271,-82847,-77151
653328748747937739,-56387,-82719,-77083
653328748755374254,-56297,-82688,-77007
653328748762810769,-56349,-82646,-77170
653328748770247284,-56250,-82740,-77129
653328748777683799,-56253,-82422,-77029
653328748785120314,-56333,-82554,-77169
653328748792556829,-56338,-82558,-77280
653328748799993344,-56283,-82666,-77187
653328748807491766,-54897,-81230,-75654
653328748814924640,-55688,-82129,-76568
653328748822357514,-56117,-82409,-76890
653328748829790388,-56237,-82736,-77058
653328748837223262,-54699,-82672,-75516
653328748844656136,-55651,-82765,-76332
653328748852089010,-56139,-82611,-76709
653328748859521884,-56147,-82709,-76855
653328748866954758,-56231,-82675,-76893
653328748874387632,-56399,-82559,-77033
653328748881820506,-56398,-82648,-77078
653328748889253380,-56345,-82578,-77072
653328748896686254,-56276,-82612,-77101
653328748904119128,-56323,-82544,-77078
653328748911552002,-56349,-82531,-77144
653328748918984876,-56283,-82600,-76966
653328748926417750,-56320,-82441,-76974
653328748933850624,-56302,-82532,-77026
653328748941221613,-56040,-82553,-77156
653328748948658128,-56145,-82486,-76989
653328748956094643,-56074,-82498,-76837
653328748963531158,-56281,-82546,-76994
653328748970967673,-56254,-82563,-76976
653328748978404188,-56245,-82548,-76995
653328748985840703,-56130,-82529,-76977
653328748993277218,-56184,-82534,-76999
653328749000713733,-56237,-82603,-77040
653328749008150248,-56193,-82569,-77017
653328749015586763,-56335,-82727,-77015
653328749023023278,-56345,-82651,-77088
653328749030459793,-56348,-82671,-77028
653328749037896308,-56250,-82645,-76899
653328749045332823,-56178,-82589,-76985
653328749052769338,-56199,-82536,-77088
653328749060205853,-56068,-82642,-77031
653328749067642368,-56133,-82620,-76948
653328749075140790,-56390,-82602,-76688
653328749082573664,-56181,-82541,-76720
653328749090006538,-56192,-82459,-76900
653328749097439412,-56065,-82489,-76872
653328749104872286,-56105,-82365,-76961
653328749112305160,-56156,-82374,-76882
653328749119738034,-56100,-82463,-76827
653328749127170908,-56161,-80928,-75378
653328749134603782,-56132,-81809,-76204
653328749142036656,-56129,-82160,-76596
653328749149469530,-56040,-82266,-76876
653328749156902404,-54573,-81379,-75308
653328749164335278,-55410,-81895,-76166
653328749171768152,-55889,-82165,-76662
653328749179201026,-55959,-82315,-76643
653328749186633900,-55978,-82290,-76833
653328749194066774,-56029,-82343,-76775
653328749201499648,-56061,-82285,-76748
653328749208839680,-56352,-82199,-76795
653328749216278016,-56093,-82267,-76727
653328749223716352,-56027,-82236,-76802
653328749231154688,-55978,-82301,-76870
653328749238593024,-55957,-82317,-76745
653328749246031360,-55894,-82298,-76835
653328749253469696,-55933,-82254,-76698
653328749260908032,-55950,-82218,-76630
653328749268346368,-55963,-82190,-76608
653328749275784704,-55735,-82036,-76557
653328749283223040,-55882,-82128,-76653
653328749290661376,-55848,-82207,-76883
653328749298099712,-55852,-82230,-76664
653328749305538048,-55611,-82247,-76466
653328749312976384,-55759,-82306,-76611
653328749320414720,-55686,-82162,-76545
653328749327853056,-55827,-82134,-76419
653328749335291392,-55807,-82129,-76653
653328749342760685,-55835,-82007,-76785
653328749350197200,-55869,-82135,-76678
653328749357633715,-55710,-82131,-76655
653328749365070230,-55824,-82027,-76528
653328749372506745,-55788,-82081,-76569
653328749379943260,-55794,-82340,-76347
653328749387379775,-55682,-82131,-76368
653328749394816290,-55673,-82255,-76292
653328749402252805,-55819,-82176,-76392
653328749409689320,-55717,-82145,-76382
653328749417125835,-55704,-82158,-76358
653328749424562350,-55741,-82162,-76378
653328749431998865,-55747,-82164,-76337
653328749439435380,-55768,-82145,-76438
653328749446871895,-55852,-80611,-75099
653328749454308410,-55905,-81504,-75879
653328749461744925,-55890,-81874,-76275
653328749469181440,-55972,-82169,-76439
653328749476648905,-54430,-81074,-75088
653328749484083600,-55383,-81728,-76044
653328749491518295,-55760,-82082,-76430
653328749498952990,-55986,-82207,-76634
653328749506387685,-55428,-82299,-76865
653328749513822380,-55913,-82403,-76944
653328749521257075,-56140,-82348,-76962
653328749528691770,-56133,-82384,-76832
653328749536126465,-56289,-82420,-76877
653328749543561160,-56269,-82382,-76881
653328749550995855,-56241,-82451,-76921
653328749558430550,-56360,-82463,-76976
653328749565865245,-56263,-82579,-76978
653328749573299940,-56405,-82641,-77024
653328749580734635,-56456,-82602,-76999
653328749588169330,-56403,-82572,-77016
653328749595604025,-56411,-82351,-76821
653328749603038720,-56416,-82603,-76973
653328749610473417,-56276,-82467,-77118
653328749617908112,-56329,-82578,-77013
653328749625342807,-56253,-82598,-76894
653328749632777502,-56578,-82633,-77153
653328749640212197,-56522,-82616,-77177
653328749647646892,-56527,-82638,-77110
653328749655081587,-56589,-82674,-77222
653328749662516282,-56635,-82753,-77154
653328749669950977,-56556,-82688,-77093
653328749677385672,-56590,-82766,-77207
653328749684820367,-56667,-82696,-77210
653328749692255062,-56604,-82719,-77187
653328749699689757,-56580,-82705,-77172
653328749707124452,-56523,-82658,-77208
653328749714559147,-56597,-82698,-77259
653328749721993842,-56565,-82773,-77145
653328749729428537,-56646,-82773,-77230
653328749736863232,-56579,-82808,-77136
653328749744266989,-56463,-82751,-77169
653328749751703504,-56559,-82825,-77225
653328749759140019,-56463,-82819,-77117
653328749766576534,-56505,-81361,-75671
653328749774013049,-56591,-82147,-76500
653328749781449564,-56557,-82708,-76892
653328749788886079,-56648,-82643,-77016
653328749796322594,-55136,-81266,-75649
653328749803759109,-56062,-82235,-76554
653328749811195624,-56440,-82488,-76847
653328749818632139,-56562,-82677,-77156
653328749826068654,-55126,-82798,-77255
653328749833505169,-55957,-82783,-77349
653328749840941684,-56187,-82774,-77115
653328749848378199,-56455,-82863,-77149
653328749855814714,-56601,-82831,-77285
653328749863251229,-56498,-82880,-77196
653328749870687744,-56546,-82875,-77319
653328749878155209,-56697,-82831,-77134
653328749885589904,-56738,-82838,-77139
653328749893024599,-56578,-82799,-77142
653328749900459294,-56557,-82821,-77125
653328749907893989,-56532,-82733,-77136
653328749915328684,-56460,-82503,-76995
653328749922763379,-56671,-82692,-77144
653328749930198074,-56725,-82832,-77268
653328749937632769,-56606,-82724,-77154
653328749945067464,-56259,-82781,-76842
653328749952502159,-56542,-82832,-77162
653328749959936854,-56517,-82693,-77082
653328749967371549,-56479,-82803,-77057
653328749974806244,-56262,-82752,-77042
653328749982240939,-56407,-82712,-77018
653328749989675634,-56459,-82598,-76955
653328749997110329,-56395,-82579,-77049
653328750004545024,-56447,-82744,-76990
653328750011948781,-56576,-82879,-76918
653328750019385296,-56430,-82845,-76917
653328750026821811,-56243,-82791,-76876
653328750034258326,-56380,-82856,-77051
653328750041694841,-56303,-82826,-77001
653328750049131356,-56338,-82791,-77015
653328750056567871,-56284,-82684,-76909
653328750064004386,-56411,-82706,-77063
653328750071440901,-56273,-82565,-76969
653328750078877416,-56130,-82598,-76944
653328750086313931,-56202,-81130,-76746
653328750093750446,-56145,-82016,-76776
653328750101186961,-56224,-82421,-76874
653328750108623476,-56226,-82513,-76891
653328750116059991,-54598,-81096,-75318
653328750123496506,-55429,-81981,-76160
653328750130933021,-55759,-82300,-76417
653328750138369536,-55899,-82376,-76737
653328750145837001,-54261,-82521,-76728
653328750153271696,-55279,-82538,-76724
653328750160706391,-55651,-82561,-76636
653328750168141086,-55896,-82509,-76722
653328750175575781,-55835,-82420,-76620
653328750183010476,-55885,-82555,-76607
653328750190445171,-55947,-82529,-76590
653328750197879866,-55840,-82502,-76566
653328750205314561,-55902,-82471,-76543
653328750212749256,-55831,-82484,-76589
653328750220183951,-55878,-82439,-76542
653328750227618646,-55867,-82322,-76639
653328750235053341,-55827,-82278,-76344
653328750242488036,-55809,-82296,-76466
653328750249922731,-55703,-82330,-76535
653328750257357426,-55887,-82348,-76549
653328750264792121,-55597,-82125,-76258
653328750272226816,-55646,-82266,-76432
653328750279692470,-55903,-82285,-76506
653328750287125344,-55857,-82421,-76365
653328750294558218,-55658,-82281,-76226
653328750301991092,-55578,-82202,-76302
653328750309423966,-55610,-82304,-76279
653328750316856840,-55635,-82349,-76263
653328750324289714,-55606,-82446,-76183
653328750331722588,-55562,-82339,-76296
653328750339155462,-55655,-82289,-76260
653328750346588336,-55537,-82323,-76149
653328750354021210,-55603,-82355,-76270
653328750361454084,-55569,-82309,-76187
653328750368886958,-55599,-82391,-76252
653328750376319832,-55620,-82339,-76291
653328750383752706,-55723,-82446,-76380
653328750391185580,-55732,-82561,-76364
653328750398618454,-55761,-82526,-76200
653328750406051328,-55806,-82030,-76273
653328750413391360,-55645,-82036,-76645
653328750420829696,-55780,-82369,-76529
653328750428268032,-55832,-82564,-76486
653328750435706368,-54432,-81214,-74939
653328750443144704,-55390,-81984,-75894
653328750450583040,-55740,-82377,-76287
653328750458021376,-55956,-82634,-76478
653328750465459712,-54523,-82698,-75043
653328750472898048,-55447,-82756,-75892
653328750480336384,-55791,-82707,-76273
653328750487774720,-56030,-82674,-76489
653328750495213056,-56004,-82717,-76530
653328750502651392,-56161,-82800,-76614
653328750510089728,-56011,-82850,-76587
653328750517528064,-56112,-82855,-76591
653328750524966400,-56250,-82877,-76671
653328750532404736,-56172,-82829,-76789
653328750539843072,-56115,-82881,-76963
653328750547374262,-56286,-82602,-76632
653328750554807136,-56272,-82630,-76728
653328750562240010,-56230,-82790,-76692
653328750569672884,-56159,-82839,-76719
653328750577105758,-56165,-82855,-76683
653328750584538632,-56048,-82810,-76513
653328750591971506,-56104,-82837,-76615
653328750599404380,-56093,-82955,-76614
653328750606837254,-56136,-82871,-76772
653328750614270128,-56020,-82868,-76605
653328750621703002,-56080,-82954,-76616
653328750629135876,-55993,-82853,-76644
653328750636568750,-56115,-82802,-76704
653328750644001624,-56212,-82785,-76698
653328750651434498,-56164,-82827,-76615
653328750658867372,-56084,-82873,-76540
653328750666300246,-56078,-82805,-76672
653328750673733120,-56123,-82969,-76573
653328750681073152,-56168,-82739,-76360
653328750688511488,-56119,-82915,-76453
653328750695949824,-56178,-82870,-76454
653328750703388160,-56135,-82905,-76604
653328750710826496,-56015,-82778,-76533
653328750718264832,-56113,-82860,-76531
653328750725703168,-56161,-82824,-76649
653328750733141504,-56118,-82839,-76606
653328750740579840,-56019,-82854,-76617
653328750748018176,-56021,-82829,-76555
653328750755456512,-55527,-81296,-75007
653328750762894848,-55785,-82189,-75805
653328750770333184,-55964,-82510,-76192
653328750777771520,-56022,-82647,-76242
653328750785209856,-54434,-82500,-74917
653328750792648192,-55336,-82620,-75739
653328750800086528,-55623,-82700,-76194
653328750807524864,-55826,-82660,-76341
653328750814994157,-56112,-82781,-76180
653328750822430672,-56091,-82722,-76207
653328750829867187,-55987,-82758,-76273
653328750837303702,-55849,-82693,-76385
653328750844740217,-55860,-82734,-76336
653328750852176732,-55783,-82683,-76437
653328750859613247,-55730,-82664,-76358
653328750867049762,-55768,-82705,-76259
653328750874486277,-55764,-82535,-76156
653328750881922792,-55751,-82598,-76187
653328750889359307,-55600,-82604,-76150
653328750896795822,-55760,-82616,-76231
653328750904232337,-55512,-82464,-75940
653328750911668852,-55621,-82583,-75990
653328750919105367,-55586,-82515,-76043
653328750926541882,-55708,-82597,-76035
653328750933978397,-55436,-82593,-75879
653328750941414912,-55509,-82609,-76031
653328750948882377,-55310,-82445,-75945
653328750956317072,-55470,-82630,-75911
653328750963751767,-55429,-82649,-75873
653328750971186462,-55458,-82504,-75910
653328750978621157,-55467,-82443,-75886
653328750986055852,-55468,-82490,-75962
653328750993490547,-55349,-82587,-75897
653328751000925242,-55398,-82469,-75864
653328751008359937,-55285,-82414,-75751
653328751015794632,-55338,-82404,-75694
653328751023229327,-55269,-82419,-75722
653328751030664022,-55346,-82406,-75644
653328751038098717,-55303,-82350,-75720
653328751045533412,-55308,-82415,-75789
653328751052968107,-55311,-82355,-75719
653328751060402802,-55181,-82315,-75643
653328751067837497,-55209,-82285,-75644
653328751075272192,-55047,-80822,-74091
653328751082737846,-55124,-81343,-75091
653328751090170720,-55089,-81803,-75267
653328751097603594,-55091,-81983,-75386
653328751105036468,-53596,-81282,-73934
653328751112469342,-54459,-81772,-74687
653328751119902216,-54630,-81946,-74944
653328751127335090,-54777,-82037,-75133
653328751134767964,-54992,-82132,-75354
653328751142200838,-54933,-82130,-75359
653328751149633712,-54869,-82065,-75324
653328751157066586,-54886,-82119,-75433
653328751164499460,-54999,-82127,-75333
653328751171932334,-54862,-82138,-75317
653328751179365208,-54848,-82122,-75306
653328751186798082,-54798,-82165,-75261
653328751194230956,-54831,-82129,-75324
653328751201663830,-54757,-82050,-75321
653328751209096704,-54757,-82030,-75244
653328751216467693,-54942,-82056,-74979
653328751223904208,-54607,-81818,-74914
653328751231340723,-54627,-81973,-74945
653328751238777238,-54671,-81883,-74915
653328751246213753,-54627,-81810,-74998
653328751253650268,-54401,-81944,-74787
653328751261086783,-54496,-81872,-74932
653328751268523298,-54544,-81937,-75006
653328751275959813,-54587,-81931,-75054
653328751283396328,-54699,-81920,-75131
653328751290832843,-54574,-82002,-75065
653328751298269358,-54608,-82071,-75107
653328751305705873,-54775,-81997,-75136
653328751313142388,-54832,-82158,-75138
653328751320578903,-54831,-82134,-75107
653328751328015418,-54935,-82248,-75149
653328751335451933,-54902,-82176,-75228
653328751342888448,-54924,-82254,-75288
653328751350324973,-54655,-82470,-74942
653328751357761488,-54803,-82342,-75124
653328751365198003,-54959,-82325,-75222
653328751372634518,-54834,-82368,-75255
653328751380071033,-54940,-82429,-75272
653328751387507548,-54971,-82436,-75239
653328751394944063,-54834,-80964,-73920
653328751402380578,-55057,-81742,-74880
653328751409817093,-55057,-82051,-75176
653328751417253608,-55089,-82342,-75314
653328751424690123,-53645,-81834,-73930
653328751432126638,-54628,-82132,-74814
653328751439563153,-54972,-82375,-75195
653328751446999668,-55047,-82492,-75329
653328751454436183,-55185,-82538,-75535
653328751461872698,-55315,-82683,-75631
653328751469309213,-55259,-82613,-75589
653328751476745728,-55324,-82642,-75628
653328751484182253,-55621,-82657,-75770
653328751491618768,-55435,-82658,-75608
653328751499055283,-55443,-82596,-75713
653328751506491798,-55482,-82747,-75741
653328751513928313,-55565,-82641,-75805
653328751521364828,-55456,-82641,-75673
653328751528801343,-55429,-82566,-75603
653328751536237858,-55353,-82655,-75661
653328751543674373,-55146,-82474,-75500
653328751551110888,-55299,-82606,-75508
653328751558547403,-55433,-82672,-75521
653328751565983918,-55449,-82728,-75644
653328751573420433,-55222,-82693,-75552
653328751580856948,-55310,-82748,-75513
653328751588293463,-55329,-82622,-75576
653328751595729978,-55484,-82704,-75648
653328751603166493,-55399,-82760,-75603
653328751610603008,-55330,-82679,-75756
653328751618101430,-55483,-82804,-75576
653328751625534304,-55442,-82901,-75646
653328751632967178,-55424,-82827,-75542
653328751640400052,-55343,-82769,-75655
653328751647832926,-55445,-82869,-75618
653328751655265800,-55432,-82783,-75723
653328751662698674,-55311,-82748,-75599
653328751670131548,-55624,-82749,-75689
653328751677564422,-55502,-82715,-75645
653328751684997296,-55484,-82770,-75693
653328751692430170,-55517,-82762,-75613
653328751699863044,-55377,-82724,-75574
653328751707295918,-55510,-82808,-75741
653328751714728792,-55398,-81298,-74158
653328751722161666,-55310,-82131,-74925
653328751729594540,-55353,-82512,-75472
653328751737027414,-55413,-82797,-75651
653328751744460288,-53750,-81701,-73990
653328751751831277,-54504,-82285,-74624
653328751759267792,-54837,-82654,-75133
653328751766704307,-55093,-82711,-75468
653328751774140822,-55254,-82782,-75545
653328751781577337,-55299,-82785,-75580
653328751789013852,-55308,-82773,-75625
653328751796450367,-55321,-82832,-75635
653328751803886882,-55359,-82852,-75627
653328751811323397,-55324,-82783,-75656
653328751818759912,-55336,-82763,-75604
653328751826196427,-55285,-82760,-75617
653328751833632942,-55260,-82966,-75580
653328751841069457,-55348,-82853,-75624
653328751848505972,-55303,-82779,-75540
653328751855942487,-55291,-82741,-75521
653328751863379002,-55217,-82545,-75394
653328751870815517,-55175,-82695,-75480
653328751878252032,-55253,-82820,-75536
653328751885719497,-55279,-82898,-75288
653328751893154192,-55143,-82757,-75261
653328751900588887,-55142,-82774,-75433
653328751908023582,-55032,-82744,-75456
653328751915458277,-55155,-82715,-75467
653328751922892972,-55086,-82717,-75417
653328751930327667,-55115,-82599,-75406
653328751937762362,-55039,-82659,-75511
653328751945197057,-55245,-82832,-75220
653328751952631752,-55185,-82825,-75282
653328751960066447,-55123,-82764,-75310
653328751967501142,-55175,-82730,-75312
653328751974935837,-55145,-82739,-75443
653328751982370532,-55059,-82641,-75426
653328751989805227,-55027,-82662,-75429
653328751997239922,-54980,-82739,-75420
653328752004674617,-55067,-82662,-75413
653328752012109312,-54961,-82655,-75386
653328752019574966,-54768,-82335,-75296
653328752027007840,-54886,-82436,-75323
653328752034440714,-54936,-80954,-73867
653328752041873588,-54895,-81747,-74704
653328752049306462,-54844,-82341,-74947
653328752056739336,-54811,-82517,-75124
653328752064172210,-53447,-81336,-73718
653328752071605084,-54368,-82062,-74642
653328752079037958,-54575,-82317,-74879
653328752086470832,-54853,-82538,-74998
653328752093903706,-54842,-82575,-75035
653328752101336580,-54865,-82571,-75182
653328752108769454,-54771,-82540,-75173
653328752116202328,-54813,-82548,-75234
653328752123635202,-54734,-82535,-75165
653328752131068076,-54702,-82585,-75178
653328752138500950,-54734,-82501,-75174
653328752145933824,-54708,-82477,-75182
653328752153273856,-54466,-82497,-74964
653328752160712192,-54495,-82453,-75047
653328752168150528,-54508,-82454,-74977
653328752175588864,-54630,-82473,-74998
653328752183027200,-54506,-82238,-74796
653328752190465536,-54454,-82218,-74753
653328752197903872,-54581,-82290,-74935
653328752205342208,-54491,-82266,-74880
653328752212780544,-54389,-82359,-74612
653328752220218880,-54468,-82283,-74704
653328752227657216,-54547,-82335,-74795
653328752235095552,-54620,-82417,-74800
653328752242533888,-54541,-82248,-74707
653328752249972224,-54485,-82374,-74791
653328752257410560,-54454,-82332,-74844
653328752264848896,-54501,-82352,-74878
653328752272287232,-54513,-82463,-74877
653328752279725568,-54565,-82491,-74843
653328752287256758,-54756,-82542,-75006
653328752294689632,-54784,-82521,-75135
653328752302122506,-54676,-82626,-75075
653328752309555380,-54725,-82575,-75114
653328752316988254,-54676,-82582,-75021
653328752324421128,-54726,-82795,-75066
653328752331854002,-54746,-82801,-75090
653328752339286876,-54752,-82800,-75082
653328752346719750,-54951,-82762,-75251
653328752354152624,-54813,-81319,-73704
653328752361585498,-54919,-82172,-74689
653328752369018372,-54837,-82548,-74999
653328752376451246,-54931,-82724,-75297
653328752383884120,-53572,-81996,-73820
653328752391316994,-54299,-82483,-74558
653328752398749868,-54654,-82757,-75171
653328752406182742,-54855,-82860,-75277
653328752413615616,-54988,-82967,-75500
653328752420986605,-55265,-82886,-75739
653328752428423120,-55065,-82946,-75616
653328752435859635,-55188,-83137,-75492
653328752443296150,-55192,-83093,-75609
653328752450732665,-55171,-83035,-75596
653328752458169180,-55287,-83080,-75710
653328752465605695,-55181,-83088,-75611
653328752473042210,-55228,-83127,-75746
653328752480478725,-55163,-83110,-75572
653328752487915240,-55171,-83150,-75720
653328752495351755,-55353,-83349,-75600
653328752502788270,-55111,-83114,-75457
653328752510224785,-55295,-83275,-75462
653328752517661300,-55300,-83233,-75566
653328752525097815,-55232,-83207,-75578
653328752532534330,-55159,-83190,-75647
653328752539970845,-55180,-83193,-75696
653328752547407360,-55236,-83258,-75741
653328752554843885,-54999,-82955,-75396
653328752562280400,-55134,-83196,-75726
653328752569716915,-55207,-83158,-75706
653328752577153430,-55263,-83195,-75808
653328752584589945,-55234,-83402,-75766
653328752592026460,-55218,-83321,-75737
653328752599462975,-55210,-83307,-75762
653328752606899490,-55191,-83400,-75762
653328752614336005,-55338,-83456,-75769
653328752621772520,-55324,-83397,-75778
653328752629209035,-55346,-83378,-75831
653328752636645550,-55408,-83432,-75825
653328752644082065,-55252,-83272,-75834
653328752651518580,-55187,-83333,-75796
653328752658955095,-55237,-83356,-75787
653328752666391610,-55361,-83326,-75781
653328752673828125,-54996,-81922,-74388
653328752681264640,-55105,-82732,-75054
653328752688763062,-55297,-83414,-75544
653328752696195936,-55411,-83381,-75678
653328752703628810,-53886,-82790,-74307
653328752711061684,-54631,-83155,-75099
653328752718494558,-55004,-83226,-75527
653328752725927432,-55124,-83276,-75559
653328752733360306,-55173,-83537,-75706
653328752740793180,-55297,-83433,-75744
653328752748226054,-55144,-83445,-75676
653328752755658928,-55172,-83482,-75687
653328752763091802,-55159,-83401,-75727
653328752770524676,-55282,-83404,-75650
653328752777957550,-55288,-83441,-75842
653328752785390424,-55121,-83408,-75671
653328752792823298,-55133,-83293,-75773
653328752800256172,-55204,-83347,-75738
653328752807689046,-55167,-83373,-75717
653328752815121920,-55157,-83405,-75816
653328752822461952,-54660,-83393,-75733
653328752829900288,-54858,-83402,-75624
653328752837338624,-54965,-83345,-75555
653328752844776960,-55051,-83313,-75574
653328752852215296,-54837,-83291,-75322
653328752859653632,-54967,-83397,-75454
653328752867091968,-55060,-83272,-75475
653328752874530304,-55013,-83340,-75495
653328752881968640,-54912,-83257,-75663
653328752889406976,-54985,-83362,-75577
653328752896845312,-54991,-83370,-75618
653328752904283648,-55085,-83392,-75654
653328752911721984,-55048,-83312,-75681
653328752919160320,-55067,-83410,-75638
653328752926598656,-54985,-83400,-75532
653328752934036992,-55030,-83315,-75587
653328752941475328,-54923,-83291,-75604
653328752948913664,-54962,-83285,-75489
653328752956413897,-54765,-83080,-75405
653328752963848592,-54771,-83238,-75389
653328752971283287,-54863,-83361,-75396
653328752978717982,-54879,-83288,-75462
653328752986152677,-54928,-83291,-75447
653328752993587372,-54871,-81775,-73906
653328753001022067,-54850,-82573,-74710
653328753008456762,-54918,-82911,-75133
653328753015891457,-54819,-83178,-75342
653328753023326152,-53292,-81777,-73845
653328753030760847,-54079,-82507,-74640
