timestamp,ch1,ch2,ch3
653329139994863104,-55803,-81375,-78033
653329140002301440,-55838,-81329,-77872
653329140009739776,-55799,-81385,-77868
653329140017178112,-55905,-81396,-77902
653329140024616448,-55982,-81498,-78021
653329140032054784,-55870,-81365,-77735
653329140039493120,-55977,-81633,-77997
653329140046931456,-55863,-81631,-77984
653329140054369792,-56025,-81666,-78049
653329140061808128,-55975,-81822,-77911
653329140069246464,-56335,-81949,-78432
653329140076684800,-56364,-81990,-78382
653329140084123136,-56416,-81951,-78338
653329140091561472,-56386,-82005,-78331
653329140098999808,-56236,-82057,-78457
653329140106438144,-56426,-81999,-78405
653329140113876480,-56514,-82056,-78504
653329140121314816,-56703,-82111,-78580
653329140128815049,-56821,-82604,-78371
653329140136249744,-56663,-82375,-78654
653329140143684439,-56799,-82360,-78508
653329140151119134,-56825,-82380,-78567
653329140158553829,-56903,-82333,-78704
653329140165988524,-56942,-82425,-78752
653329140173423219,-56946,-82470,-78902
653329140180857914,-57057,-82514,-79023
653329140188292609,-57087,-82551,-79010
653329140195727304,-57102,-82471,-79030
653329140203161999,-57151,-81218,-77685
653329140210596694,-57188,-81971,-78469
653329140218031389,-57133,-82291,-78757
653329140225466084,-57104,-82433,-78980
653329140232900779,-55824,-81200,-77752
653329140240335474,-56641,-82075,-78578
653329140247770169,-56976,-82424,-78968
653329140255204864,-57092,-82542,-79022
653329140262577664,-56357,-82716,-79478
6.53329E+17,-56934,-82814,-79422
653329140277454336,-57216,-82810,-79322
653329140284892672,-57360,-82813,-79221
653329140292331008,-57389,-82804,-79161
653329140299769344,-57420,-82768,-79335
653329140307207680,-57376,-82850,-79235
653329140314646016,-57393,-82690,-79242
653329140322084352,-57413,-82689,-79331
653329140329522688,-57505,-82805,-79295
653329140336961024,-57299,-82898,-79370
653329140344399360,-57395,-82876,-79338
653329140351837696,-57539,-82571,-79160
653329140359276032,-57602,-82824,-79298
653329140366714368,-57449,-82886,-79275
653329140374152704,-57534,-82923,-79414
653329140381591040,-57421,-82966,-79138
653329140389029376,-57373,-82869,-79235
653329140396529609,-57384,-83055,-79126
653329140403964304,-57658,-82841,-79324
653329140411398999,-57608,-82771,-79336
653329140418833694,-57751,-82872,-79457
653329140426268389,-57679,-82762,-79413
653329140433703084,-57564,-82827,-79374
653329140441137779,-57534,-83027,-79361
653329140448572474,-57457,-82918,-79355
653329140456007169,-57446,-82895,-79441
653329140463441864,-57527,-82921,-79317
653329140470876559,-57544,-82972,-79402
653329140478311254,-57680,-82902,-79439
653329140485745949,-57629,-82850,-79318
653329140493180644,-57496,-82866,-79250
653329140500615339,-57599,-82880,-79353
653329140508050034,-57474,-82883,-79253
653329140515484729,-57458,-82740,-79271
653329140522919424,-57471,-81468,-77904
653329140530292224,-57265,-82460,-78543
653329140537730560,-57499,-82554,-78919
653329140545168896,-57546,-82655,-79033
653329140552607232,-56061,-81451,-77809
653329140560045568,-56739,-82099,-78636
653329140567483904,-57231,-82440,-78959
653329140574922240,-57369,-82574,-79024
653329140582360576,-56100,-82558,-79262
653329140589798912,-56847,-82709,-79358
653329140597237248,-57230,-82641,-79330
653329140604675584,-57364,-82677,-79280
653329140612113920,-57401,-82649,-79178
653329140619552256,-57459,-82671,-79232
653329140626990592,-57304,-82743,-79174
653329140634428928,-57264,-82714,-79063
653329140641867264,-57301,-82606,-79011
653329140649305600,-57347,-82627,-79101
653329140656743936,-57204,-82611,-79025
653329140664244169,-57470,-82620,-78757
653329140671678864,-57370,-82346,-78732
653329140679113559,-57414,-82456,-78893
653329140686548254,-57281,-82547,-79030
653329140693982949,-57239,-82479,-79036
653329140701417644,-57022,-82268,-78765
653329140708852339,-57203,-82530,-78887
653329140716287034,-57148,-82434,-78883
653329140723721729,-57116,-82488,-78855
653329140731156424,-57162,-82393,-79007
653329140738591119,-57143,-82405,-78990
653329140746025814,-57042,-82444,-78900
653329140753460509,-57115,-82530,-78876
653329140760895204,-57141,-82473,-78833
653329140768329899,-57133,-82469,-78785
653329140775764594,-57079,-82476,-78918
653329140783199289,-57134,-82399,-78999
653329140790633984,-57068,-82347,-78763
653329140798006784,-56987,-82095,-78721
653329140805445120,-57028,-82191,-78719
653329140812883456,-56875,-82240,-78675
653329140820321792,-56894,-82237,-78514
653329140827760128,-56857,-82150,-78662
653329140835198464,-57029,-82185,-78576
653329140842636800,-56992,-80869,-77717
653329140850075136,-56850,-81511,-78152
653329140857513472,-56987,-81826,-78470
653329140864951808,-56884,-82118,-78431
653329140872390144,-55541,-80782,-76974
653329140879828480,-56223,-81510,-77866
653329140887266816,-56515,-81756,-78206
653329140894705152,-56697,-81973,-78449
653329140902143488,-55514,-82142,-78475
653329140909581824,-56377,-82134,-78473
653329140917020160,-56657,-82210,-78622
653329140924458496,-56796,-82314,-78537
653329140932020626,-57016,-82390,-78381
653329140939451680,-57103,-82464,-78558
653329140946882734,-57027,-82339,-78654
653329140954313788,-57193,-82318,-78664
653329140961744842,-57198,-82319,-78687
653329140969175896,-57241,-82434,-78815
653329140976606950,-57387,-82506,-78743
653329140984038004,-57382,-82544,-78824
653329140991469058,-57359,-82334,-78775
653329140998900112,-57422,-82524,-78799
653329141006331166,-57361,-82527,-78827
653329141013762220,-57392,-82655,-78919
653329141021193274,-57334,-82543,-78884
653329141028624328,-57338,-82627,-79007
653329141036055382,-57505,-82714,-78903
653329141043486436,-57594,-82766,-79062
653329141050917490,-57480,-82818,-79142
653329141058348544,-57698,-82892,-79062
653329141065717705,-57795,-82892,-79180
653329141073152400,-57683,-82921,-79127
653329141080587095,-57590,-82811,-79139
653329141088021790,-57598,-82784,-79121
653329141095456485,-57547,-82796,-79148
653329141102891180,-57515,-82837,-79110
653329141110325875,-57548,-82799,-79178
653329141117760570,-57422,-82843,-79166
653329141125195265,-57607,-82865,-79145
653329141132629960,-57606,-82897,-79185
653329141140064655,-57683,-82920,-79242
653329141147499350,-57730,-82866,-79096
653329141154934045,-57602,-82876,-79186
653329141162368740,-57648,-81525,-79102
653329141169803435,-57783,-82532,-79201
653329141177238130,-57728,-82909,-79210
653329141184672825,-57695,-82987,-79186
653329141192107520,-56475,-81657,-77910
653329141199480320,-57128,-82824,-78627
653329141206918656,-57408,-83125,-79012
653329141214356992,-57784,-83110,-79183
653329141221795328,-56548,-83234,-79315
653329141229233664,-57343,-83233,-79411
6.53329E+17,-57657,-83264,-79379
653329141244110336,-57795,-83165,-79384
653329141251548672,-57928,-83234,-79395
653329141258987008,-57961,-83170,-79382
653329141266425344,-58037,-83191,-79397
653329141273863680,-57889,-83237,-79348
653329141281302016,-57899,-83350,-79403
653329141288740352,-57889,-83375,-79406
653329141296178688,-57940,-83392,-79407
653329141303617024,-57952,-83231,-79516
653329141311055360,-57982,-83088,-79311
653329141318493696,-57976,-83283,-79301
653329141325932032,-57890,-83212,-79575
653329141333308488,-58089,-83111,-79276
653329141340750464,-57844,-83018,-79198
653329141348192440,-57953,-83161,-79405
653329141355634416,-57800,-83160,-79286
653329141363076392,-57845,-83271,-79357
653329141370518368,-57790,-83285,-79470
653329141377960344,-57704,-83339,-79368
653329141385402320,-57837,-83251,-79233
653329141392844296,-57822,-83192,-79330
653329141400286272,-57865,-83149,-79326
653329141407728248,-57931,-83116,-79207
653329141415170224,-57748,-83053,-79183
653329141422612200,-57745,-83074,-79201
653329141430054176,-57700,-83039,-79227
653329141437496152,-57716,-83110,-79237
653329141444938128,-57745,-83087,-79242
653329141452380104,-57742,-83006,-79156
653329141459822080,-57820,-83089,-79227
653329141467449746,-57788,-83287,-78981
653329141474880800,-57602,-82999,-78998
653329141482311854,-57691,-82377,-79138
653329141489742908,-57695,-82682,-79115
653329141497173962,-57663,-82834,-79126
653329141504605016,-57650,-82897,-79030
653329141512036070,-56258,-81630,-77741
653329141519467124,-57083,-82351,-78611
653329141526898178,-57300,-82655,-78915
653329141534329232,-57475,-82877,-78970
653329141541760286,-56203,-82879,-77918
653329141549191340,-57082,-82887,-78605
653329141556622394,-57428,-82846,-78748
653329141564053448,-57537,-82850,-78964
653329141571484502,-57732,-82914,-79021
653329141578915556,-57682,-82956,-79163
653329141586346610,-57582,-82934,-79023
653329141593777664,-57621,-82909,-79112
653329141601084928,-57746,-82882,-79256
653329141608523264,-57683,-82836,-79091
653329141615961600,-57534,-82794,-79057
653329141623399936,-57472,-82832,-79055
653329141630838272,-57649,-82622,-79045
653329141638276608,-57654,-82805,-78974
653329141645714944,-57629,-82816,-78957
653329141653153280,-57662,-82797,-78934
653329141660591616,-57384,-82621,-78850
653329141668029952,-57454,-82726,-78858
653329141675468288,-57542,-82776,-78866
653329141682906624,-57467,-82768,-78928
653329141690344960,-57395,-82871,-78866
653329141697783296,-57497,-82777,-78951
653329141705221632,-57448,-82803,-78841
653329141712659968,-57452,-82647,-78844
653329141720098304,-57369,-82691,-78831
653329141727536640,-57322,-82723,-78731
653329141735036873,-57261,-82409,-78504
653329141742471568,-57357,-82633,-78504
653329141749906263,-57273,-82645,-78595
653329141757340958,-57256,-82561,-78691
653329141764775653,-57255,-82452,-78627
653329141772210348,-57186,-82502,-78621
653329141779645043,-57087,-82428,-78652
653329141787079738,-57094,-82525,-78573
653329141794514433,-57085,-82395,-78490
653329141801949128,-57048,-82101,-78462
653329141809383823,-57107,-82359,-78468
653329141816818518,-57038,-82266,-78518
653329141824253213,-56940,-82259,-78410
653329141831687908,-55695,-80976,-77078
653329141839122603,-56488,-81695,-77801
653329141846557298,-56781,-81947,-78278
653329141853991993,-56909,-82147,-78332
653329141861426688,-55605,-82246,-77113
653329141868923282,-56199,-82406,-77761
653329141876354336,-56498,-82177,-78004
653329141883785390,-56819,-82134,-78174
653329141891216444,-56899,-82309,-78417
653329141898647498,-56941,-82301,-78439
653329141906078552,-56801,-82233,-78363
653329141913509606,-57051,-82279,-78536
653329141920940660,-57146,-82401,-78411
653329141928371714,-57135,-82468,-78473
653329141935802768,-57021,-82451,-78462
653329141943233822,-57113,-82474,-78504
653329141950664876,-57184,-82180,-78541
653329141958095930,-57207,-82266,-78653
653329141965526984,-57221,-82373,-78599
653329141972958038,-57274,-82480,-78654
653329141980389092,-57097,-82341,-78467
653329141987820146,-57168,-82505,-78668
653329141995251200,-57137,-82569,-78632
653329142002496584,-57233,-82335,-78481
653329142009938560,-57048,-82565,-78651
653329142017380536,-57282,-82522,-78713
653329142024822512,-57311,-82591,-78792
653329142032264488,-57407,-82707,-78873
653329142039706464,-57514,-82667,-78869
653329142047148440,-57454,-82818,-78894
653329142054590416,-57408,-82760,-78868
653329142062032392,-57298,-82769,-78842
653329142069474368,-57470,-82922,-78930
653329142076916344,-57567,-83033,-79025
653329142084358320,-57578,-82824,-78892
653329142091800296,-57669,-82879,-78854
653329142099242272,-57726,-82894,-78987
653329142106684248,-57609,-82905,-78976
653329142114126224,-57567,-82933,-79030
653329142121568200,-57706,-82913,-78880
653329142129010176,-57753,-82957,-78918
653329142136637842,-57441,-82866,-78991
653329142144068896,-57788,-82964,-79074
653329142151499950,-57658,-81859,-77715
653329142158931004,-57822,-82654,-78582
653329142166362058,-57786,-82797,-78940
653329142173793112,-57850,-83031,-79163
653329142181224166,-56631,-82444,-77812
653329142188655220,-57243,-82802,-78539
653329142196086274,-57574,-82999,-78839
653329142203517328,-57684,-82989,-78997
653329142210948382,-57780,-83208,-79017
653329142218379436,-57868,-83260,-79097
653329142225810490,-58001,-83205,-79212
653329142233241544,-57839,-83154,-79158
653329142240672598,-57808,-83177,-79271
653329142248103652,-57961,-83081,-79322
653329142255534706,-57849,-83101,-79238
653329142262965760,-57942,-83103,-79231
653329142270273024,-58051,-83056,-79507
653329142277711360,-58110,-83031,-79361
653329142285149696,-57916,-83051,-79168
653329142292588032,-57965,-83140,-79153
653329142300026368,-57856,-83094,-79167
653329142307464704,-57896,-83203,-79147
653329142314903040,-57952,-83305,-79108
653329142322341376,-57954,-83238,-79224
653329142329779712,-57737,-83206,-79115
653329142337218048,-57889,-83139,-79307
653329142344656384,-57948,-83030,-79232
653329142352094720,-57851,-83089,-79121
653329142359533056,-57874,-83228,-79213
653329142366971392,-57944,-83106,-79148
653329142374409728,-57854,-83039,-79165
653329142381848064,-57873,-83129,-79229
653329142389286400,-57896,-83075,-79200
653329142396724736,-57836,-82988,-79239
653329142404101192,-58070,-82978,-79224
653329142411543168,-57972,-82972,-79224
653329142418985144,-57876,-82974,-79230
653329142426427120,-57966,-82960,-79201
653329142433869096,-57840,-83036,-79317
653329142441311072,-57931,-83041,-79224
653329142448753048,-57884,-83177,-79314
653329142456195024,-57859,-83109,-79224
6.53329E+17,-57888,-83051,-79183
653329142471078976,-57916,-81717,-77921
653329142478520952,-57862,-82576,-78611
653329142485962928,-57956,-82760,-78979
653329142493404904,-57928,-82934,-79087
653329142500846880,-56742,-81751,-77860
653329142508288856,-57399,-82538,-78584
653329142515730832,-57752,-82816,-78929
653329142523172808,-57838,-82932,-79128
653329142530614784,-56814,-82961,-79170
653329142538242450,-57472,-82767,-79054
653329142545673504,-57697,-82878,-79119
653329142553104558,-57727,-82836,-79022
653329142560535612,-57782,-82898,-79118
653329142567966666,-57810,-82931,-79100
653329142575397720,-57803,-83019,-79114
653329142582828774,-57837,-83007,-79029
653329142590259828,-57813,-83080,-79011
653329142597690882,-57842,-82900,-79057
653329142605121936,-57651,-82820,-78962
653329142612552990,-57695,-82875,-78878
653329142619984044,-57737,-82811,-78702
653329142627415098,-57652,-82833,-78871
653329142634846152,-57611,-82793,-78927
653329142642277206,-57530,-82675,-78888
653329142649708260,-57435,-82486,-78838
653329142657139314,-57534,-82621,-78917
653329142664570368,-57525,-82699,-78808
653329142671877632,-57520,-83040,-79006
653329142679315968,-57621,-82973,-78977
653329142686754304,-57528,-82784,-78860
653329142694192640,-57466,-82748,-78817
653329142701630976,-57554,-82811,-78705
653329142709069312,-57491,-82749,-78788
653329142716507648,-57540,-82642,-78852
653329142723945984,-57463,-82623,-78712
653329142731384320,-57517,-82596,-78771
653329142738822656,-57447,-82497,-78769
653329142746260992,-57433,-82464,-78644
653329142753699328,-57385,-82622,-78645
653329142761137664,-57414,-82599,-78638
6.53329E+17,-57441,-82505,-78661
653329142776014336,-57303,-82609,-78531
653329142783452672,-57207,-82560,-78473
653329142790891008,-57214,-81273,-77116
653329142798329344,-57298,-81960,-77973
653329142805829577,-57134,-81943,-78159
653329142813264272,-57235,-82178,-78346
653329142820698967,-55905,-80942,-77137
653329142828133662,-56602,-81723,-77895
653329142835568357,-57011,-82032,-78224
653329142843003052,-57230,-82153,-78402
653329142850437747,-55913,-82321,-78414
653329142857872442,-56678,-82304,-78450
653329142865307137,-56962,-82416,-78401
653329142872741832,-56945,-82325,-78375
653329142880176527,-57072,-82253,-78481
653329142887611222,-57086,-82335,-78384
653329142895045917,-57134,-82357,-78356
653329142902480612,-57173,-82258,-78451
653329142909915307,-57146,-82442,-78450
653329142917350002,-57160,-82319,-78449
653329142924784697,-57016,-82231,-78405
653329142932219392,-57173,-82343,-78419
653329142939592192,-57512,-82219,-78321
653329142947030528,-57345,-82425,-78511
653329142954468864,-57236,-82416,-78496
653329142961907200,-57244,-82385,-78554
653329142969345536,-57125,-82292,-78333
653329142976783872,-57214,-82407,-78419
653329142984222208,-57221,-82334,-78425
653329142991660544,-57321,-82436,-78627
653329142999098880,-57140,-82538,-78610
653329143006537216,-57404,-82485,-78597
653329143013975552,-57396,-82522,-78630
653329143021413888,-57335,-82511,-78530
653329143028852224,-57380,-82592,-78526
653329143036290560,-57373,-82615,-78477
653329143043728896,-57325,-82594,-78602
653329143051167232,-57456,-82561,-78542
653329143058605568,-57478,-82599,-78614
653329143066043904,-57405,-82557,-78617
653329143073544137,-57312,-82677,-78377
653329143080978832,-57387,-82712,-78534
653329143088413527,-57385,-82608,-78642
653329143095848222,-57404,-82630,-78666
653329143103282917,-57355,-82848,-78720
653329143110717612,-57398,-81382,-78594
653329143118152307,-57389,-82051,-78618
653329143125587002,-57452,-82258,-78692
653329143133021697,-57520,-82440,-78710
653329143140456392,-56229,-81200,-77334
653329143147891087,-56931,-82020,-78087
653329143155325782,-57264,-82429,-78444
653329143162760477,-57338,-82480,-78575
653329143170195172,-56085,-82663,-78563
653329143177629867,-56850,-82661,-78736
653329143185064562,-57155,-82585,-78681
653329143192499257,-57288,-82582,-78712
653329143199933952,-57474,-82570,-78797
653329143207368649,-57310,-82314,-78502
653329143214803344,-57227,-82377,-78492
653329143222238039,-57240,-82492,-78545
653329143229672734,-57311,-82543,-78588
653329143237107429,-57310,-82509,-78583
653329143244542124,-57220,-82408,-78568
653329143251976819,-57388,-82410,-78586
653329143259411514,-57313,-82342,-78434
653329143266846209,-57304,-82286,-78446
653329143274280904,-57312,-82359,-78413
653329143281715599,-57350,-82432,-78476
653329143289150294,-57049,-82299,-78357
653329143296584989,-57141,-82384,-78369
653329143304019684,-57256,-82458,-78348
653329143311454379,-57289,-82464,-78447
653329143318889074,-57066,-82451,-78434
653329143326323769,-57103,-82334,-78385
653329143333758464,-57197,-82263,-78380
653329143341131264,-57347,-82253,-78157
653329143348569600,-57221,-82262,-78264
653329143356007936,-57163,-82381,-78345
653329143363446272,-57153,-82285,-78460
653329143370884608,-57121,-82331,-78464
653329143378322944,-57288,-82298,-78412
653329143385761280,-57249,-82254,-78320
653329143393199616,-57163,-82287,-78242
653329143400637952,-57131,-82275,-78316
653329143408076288,-57175,-82239,-78329
653329143415514624,-57203,-82302,-78210
653329143422952960,-57022,-82335,-78192
653329143430391296,-57080,-81654,-78200
653329143437829632,-56974,-81915,-78219
653329143445267968,-56999,-82066,-78078
653329143452706304,-57083,-82113,-78089
653329143460144640,-55761,-80829,-76827
653329143467582976,-56462,-81583,-77594
653329143475021312,-56679,-81728,-77971
653329143482459648,-56863,-81898,-77992
653329143489897984,-55641,-82110,-76853
653329143497336320,-56413,-82070,-77498
653329143504774656,-56724,-82232,-77669
653329143512212992,-56938,-82056,-77905
653329143519651328,-56942,-82108,-77948
653329143527089664,-56864,-81899,-77970
6.53329E+17,-56834,-81929,-77924
653329143541966336,-56778,-81898,-77981
653329143549404672,-56792,-81964,-77835
653329143556843008,-56839,-81906,-77964
653329143564281344,-56797,-81859,-77940
653329143571719680,-56844,-81848,-77936
653329143579158016,-56654,-81631,-77822
653329143586596352,-56600,-81634,-77816
653329143594034688,-56685,-81665,-77799
653329143601473024,-56599,-81738,-77869
653329143609035154,-56731,-81599,-77736
653329143616466208,-56625,-81655,-77643
653329143623897262,-56549,-81675,-77737
653329143631328316,-56479,-81671,-77722
653329143638759370,-56232,-81511,-77574
653329143646190424,-56361,-81575,-77494
653329143653621478,-56448,-81604,-77579
653329143661052532,-56406,-81669,-77460
653329143668483586,-56556,-81620,-77451
653329143675914640,-56330,-81576,-77386
653329143683345694,-56305,-81574,-77396
653329143690776748,-56307,-81624,-77385
653329143698207802,-56391,-81690,-77520
653329143705638856,-56234,-81584,-77469
653329143713069910,-56218,-81416,-77381
653329143720500964,-56335,-81388,-77395
653329143727932018,-56203,-81419,-77451
653329143735363072,-56225,-81467,-77352
653329143742670336,-56318,-81144,-77040
653329143750108672,-56303,-81371,-77183
653329143757547008,-56158,-81294,-77200
653329143764985344,-56021,-81206,-77138
653329143772423680,-56107,-81275,-77294
653329143779862016,-55968,-79911,-75882
653329143787300352,-56047,-80705,-76519
653329143794738688,-56131,-80896,-76869
653329143802177024,-56066,-81197,-77092
653329143809615360,-54712,-80450,-75809
653329143817053696,-55449,-80972,-76498
653329143824492032,-55706,-80934,-76809
653329143831930368,-55941,-81007,-76972
653329143839368704,-56112,-81124,-77165
653329143846807040,-56089,-81181,-77143
653329143854245376,-56017,-81186,-77146
653329143861683712,-56088,-81285,-77219
653329143869122048,-56144,-81250,-77203
653329143876622281,-56360,-81275,-77302
653329143884056976,-56193,-81289,-77239
653329143891491671,-56238,-81289,-77320
653329143898926366,-56216,-81400,-77270
653329143906361061,-56287,-81446,-77318
653329143913795756,-56209,-81429,-77115
653329143921230451,-56269,-81395,-77272
653329143928665146,-56135,-81254,-77138
653329143936099841,-56197,-81317,-77253
653329143943534536,-56267,-81345,-77323
653329143950969231,-56195,-81525,-77193
653329143958403926,-56000,-81493,-77099
653329143965838621,-56114,-81559,-77178
653329143973273316,-56203,-81484,-77228
653329143980708011,-56265,-81534,-77229
653329143988142706,-56258,-81561,-77339
653329143995577401,-56290,-81681,-77362
653329144003012096,-56304,-81542,-77296
653329144010446793,-56525,-81599,-77131
653329144017881488,-56519,-81573,-77299
653329144025316183,-56490,-81678,-77296
653329144032750878,-56272,-81635,-77317
653329144040185573,-56472,-81620,-77340
653329144047620268,-56473,-81494,-77368
653329144055054963,-56424,-81553,-77394
653329144062489658,-56301,-81556,-77598
653329144069924353,-56373,-81504,-77579
653329144077359048,-56312,-81467,-77573
653329144084793743,-56272,-81486,-77481
653329144092228438,-56413,-81453,-77506
653329144099663133,-56328,-80172,-76061
653329144107097828,-56138,-80900,-76748
653329144114532523,-56162,-81154,-77088
653329144121967218,-56192,-81371,-77170
653329144129401913,-55025,-80137,-75993
653329144136836608,-55629,-80805,-76678
653329144144209408,-56048,-81021,-76838
653329144151647744,-56118,-81299,-77139
653329144159086080,-55275,-81425,-77296
653329144166524416,-55746,-81490,-77288
653329144173962752,-55974,-81503,-77388
653329144181401088,-56113,-81444,-77370
653329144188839424,-56215,-81469,-77405
653329144196277760,-56282,-81396,-77381
653329144203716096,-56226,-81432,-77289
653329144211154432,-56333,-81486,-77390
653329144218592768,-56266,-81478,-77294
653329144226031104,-56292,-81460,-77255
653329144233469440,-56151,-81379,-77211
653329144240907776,-56250,-81385,-77322
653329144248346112,-56135,-81191,-77057
653329144255784448,-56062,-81396,-77033
653329144263222784,-55989,-81500,-77042
653329144270661120,-56034,-81472,-76994
653329144278161353,-55918,-80801,-76964
653329144285596048,-55954,-81068,-76872
653329144293030743,-55952,-81150,-76886
653329144300465438,-55849,-81132,-76965
653329144307900133,-55789,-81099,-76935
653329144315334828,-55638,-81139,-76896
653329144322769523,-55674,-80984,-76986
653329144330204218,-55746,-81058,-77003
653329144337638913,-55587,-80991,-76933
653329144345073608,-55450,-80911,-76762
653329144352508303,-55372,-80853,-76781
653329144359942998,-55376,-80826,-76797
653329144367377693,-55308,-80744,-76718
653329144374812388,-55249,-80614,-76669
653329144382247083,-55299,-80613,-76807
653329144389681778,-55507,-80811,-76735
653329144397116473,-55425,-80700,-76789
653329144404551168,-55224,-80685,-76735
653329144411923968,-55122,-80449,-76644
653329144419362304,-55227,-79200,-75668
653329144426800640,-55136,-79829,-76276
653329144434238976,-55081,-80222,-76450
653329144441677312,-55125,-80363,-76566
653329144449115648,-53831,-79277,-75222
653329144456553984,-54513,-80084,-76006
653329144463992320,-54780,-80347,-76241
653329144471430656,-55082,-80568,-76384
653329144478868992,-53877,-80475,-76440
653329144486307328,-54554,-80420,-76381
653329144493745664,-54802,-80421,-76473
6.53329E+17,-54947,-80593,-76532
653329144508622336,-55102,-80560,-76428
653329144516060672,-55195,-80415,-76516
653329144523499008,-55319,-80411,-76594
653329144530937344,-55197,-80555,-76672
653329144538375680,-55238,-80433,-76517
653329144545875913,-55402,-80642,-76746
653329144553310608,-55406,-80640,-76556
653329144560745303,-55364,-80510,-76460
653329144568179998,-55254,-80353,-76296
653329144575614693,-55203,-80309,-76326
653329144583049388,-55108,-80407,-76263
653329144590484083,-55072,-80392,-76331
653329144597918778,-54880,-80196,-76139
653329144605353473,-54966,-80170,-76189
653329144612788168,-55055,-80224,-76127
653329144620222863,-54989,-80196,-76200
653329144627657558,-54696,-80337,-76156
653329144635092253,-54685,-80378,-76126
653329144642526948,-54803,-80317,-76069
653329144649961643,-54685,-80214,-76094
653329144657396338,-54800,-80106,-76150
653329144664831033,-54632,-80000,-76010
653329144672265728,-54659,-80011,-75997
653329144679700425,-54891,-79862,-75872
653329144687135120,-54771,-79938,-75917
653329144694569815,-54695,-80012,-75910
653329144702004510,-54627,-80065,-75958
653329144709439205,-54537,-80029,-75959
653329144716873900,-54594,-80115,-75918
653329144724308595,-54580,-80004,-75917
653329144731743290,-54629,-79980,-75939
653329144739177985,-54579,-79143,-75966
653329144746612680,-54470,-79664,-75871
653329144754047375,-54506,-79794,-75832
653329144761482070,-54612,-79788,-75891
653329144768916765,-53087,-78536,-74514
653329144776351460,-53797,-79370,-75279
653329144783786155,-54102,-79660,-75465
653329144791220850,-54317,-79794,-75639
653329144798655545,-53092,-79977,-74560
653329144806090240,-53871,-79917,-75303
653329144813524937,-54128,-79976,-75521
653329144820959632,-54425,-79980,-75846
653329144828394327,-54458,-79965,-75951
653329144835829022,-54461,-79927,-75900
653329144843263717,-54618,-80005,-75950
653329144850698412,-54695,-80112,-75886
653329144858133107,-54720,-80207,-75983
653329144865567802,-54764,-80182,-75850
653329144873002497,-54776,-80056,-75915
653329144880437192,-54876,-80074,-76033
653329144887871887,-54748,-79928,-76106
653329144895306582,-54745,-80086,-76030
653329144902741277,-54812,-80217,-76042
653329144910175972,-54873,-80280,-76101
653329144917610667,-54746,-80201,-75995
653329144925045362,-54916,-80301,-76141
653329144932480057,-54870,-80398,-76199
653329144939914752,-54940,-80397,-76217
653329144947287552,-55129,-80419,-75918
653329144954725888,-55064,-80411,-76121
653329144962164224,-55055,-80496,-76323
653329144969602560,-55074,-80514,-76488
653329144977040896,-55080,-80488,-76422
653329144984479232,-55104,-80446,-76421
653329144991917568,-55124,-80501,-76492
653329144999355904,-55071,-80604,-76552
653329145006794240,-55056,-80608,-76405
653329145014232576,-55075,-80517,-76364
653329145021670912,-55039,-80621,-76437
653329145029109248,-55153,-80595,-76471
653329145036547584,-55275,-80609,-76618
653329145043985920,-55254,-80548,-76624
653329145051424256,-55306,-80562,-76649
653329145058862592,-55345,-80715,-76660
653329145066300928,-55245,-80614,-76670
653329145073739264,-55222,-80551,-76685
653329145081177600,-55105,-80541,-76507
653329145088615936,-55201,-79307,-75303
653329145096054272,-55235,-79994,-76053
653329145103492608,-55316,-80242,-76346
653329145110930944,-55316,-80611,-76586
653329145118369280,-54036,-79367,-75396
653329145125807616,-54729,-80082,-76167
653329145133245952,-55053,-80356,-76384
653329145140684288,-55194,-80576,-76660
653329145148122624,-54835,-80698,-76720
653329145155560960,-55141,-80661,-76666
653329145162999296,-55397,-80767,-76787
653329145170437632,-55519,-80766,-76949
653329145177875968,-55450,-80748,-76792
653329145185314304,-55487,-80703,-76736
653329145192752640,-55450,-80752,-76720
653329145200190976,-55567,-80740,-76889
653329145207629312,-55561,-80709,-76877
653329145215129545,-55261,-80776,-77058
653329145222564240,-55377,-80717,-77037
653329145229998935,-55356,-80713,-76978
653329145237433630,-55491,-80645,-76641
653329145244868325,-55525,-80853,-76742
653329145252303020,-55453,-80764,-76806
653329145259737715,-55658,-80766,-76929
653329145267172410,-55342,-80769,-76775
653329145274607105,-55448,-80769,-76880
653329145282041800,-55542,-80876,-76827
653329145289476495,-55414,-80868,-76939
653329145296911190,-55619,-80841,-76886
653329145304345885,-55664,-80823,-77010
653329145311780580,-55600,-80815,-76949
653329145319215275,-55662,-80745,-76920
653329145326649970,-55628,-80735,-76998
653329145334084665,-55590,-80709,-76852
653329145341519360,-55782,-80799,-76935
653329145348954057,-55792,-80933,-76943
653329145356388752,-55674,-80824,-77006
653329145363823447,-55618,-80817,-77106
653329145371258142,-55648,-80813,-77091
653329145378692837,-55677,-80858,-77252
653329145386127532,-55653,-80843,-77075
653329145393562227,-55582,-80834,-77103
653329145400996922,-55695,-80839,-77109
653329145408431617,-55622,-79534,-75650
653329145415866312,-55605,-80192,-76366
653329145423301007,-55564,-80606,-76649
653329145430735702,-55628,-80700,-76840
653329145438170397,-54244,-79408,-75574
653329145445605092,-54947,-80156,-76272
653329145453039787,-55200,-80427,-76693
653329145460474482,-55423,-80613,-76950
653329145467909177,-54298,-80604,-77016
653329145475343872,-54962,-80574,-76993
653329145482716672,-55328,-80375,-76702
653329145490155008,-55487,-80674,-76896
653329145497593344,-55560,-80813,-76972
653329145505031680,-55570,-80680,-76948
653329145512470016,-55517,-80573,-76911
653329145519908352,-55596,-80654,-76967
653329145527346688,-55556,-80726,-76954
653329145534785024,-55513,-80610,-76864
653329145542223360,-55550,-80570,-76863
653329145549661696,-55604,-80641,-76940
653329145557100032,-55663,-80483,-76807
653329145564538368,-55602,-80566,-76831
653329145571976704,-55524,-80607,-76745
653329145579415040,-55478,-80624,-76837
653329145586853376,-55275,-80406,-76662
653329145594291712,-55326,-80503,-76731
653329145601730048,-55518,-80579,-76937
653329145609168384,-55668,-80672,-77092
653329145616606720,-55679,-80781,-76796
653329145624045056,-55723,-80642,-76774
653329145631483392,-55701,-80597,-76949
653329145638921728,-55763,-80601,-76957
653329145646360064,-55585,-80520,-76770
653329145653798400,-55549,-80488,-76849
653329145661236736,-55401,-80456,-76838
653329145668675072,-55462,-80373,-76906
653329145676113408,-55355,-80408,-76828
653329145683551744,-55374,-80408,-76883
653329145690990080,-55299,-80430,-76884
653329145698428416,-55399,-80313,-76860
653329145705866752,-55361,-80376,-76906
653329145713305088,-55366,-80350,-76853
653329145720743424,-55392,-80365,-76859
653329145728181760,-55342,-79113,-76440
653329145735620096,-55519,-79850,-76771
653329145743058432,-55480,-80154,-76789
653329145750558665,-55215,-80440,-76895
653329145757993360,-53935,-79207,-75596
653329145765428055,-54807,-79850,-76405
653329145772862750,-55270,-80291,-76557
653329145780297445,-55512,-80440,-76787
653329145787732140,-54129,-80493,-76787
653329145795166835,-54865,-80409,-76940
653329145802601530,-55210,-80466,-76932
653329145810036225,-55431,-80535,-76920
653329145817470920,-55526,-80498,-76941
653329145824905615,-55484,-80499,-76910
653329145832340310,-55462,-80501,-77024
653329145839775005,-55553,-80628,-77069
653329145847209700,-55633,-80755,-76979
653329145854644395,-55594,-80761,-76975
653329145862079090,-55723,-80709,-77122
653329145869513785,-55684,-80693,-77188
653329145876948480,-55691,-80493,-77083
653329145884321280,-55846,-80695,-76944
653329145891759616,-55793,-80730,-77123
653329145899197952,-55874,-80933,-77248
653329145906636288,-55641,-80641,-77119
653329145914074624,-55725,-80789,-77310
653329145921512960,-55788,-80824,-77316
653329145928951296,-55738,-80776,-77416
653329145936389632,-55657,-80806,-77426
653329145943827968,-55819,-80880,-77489
653329145951266304,-55809,-80886,-77495
653329145958704640,-55933,-81073,-77554
653329145966142976,-55902,-81004,-77480
653329145973581312,-55950,-80928,-77458
653329145981019648,-56009,-80933,-77543
653329145988457984,-55985,-80988,-77600
653329145995896320,-56058,-80979,-77505
653329146003334656,-56101,-81017,-77652
653329146010772992,-56053,-81088,-77733
653329146018273225,-55825,-81238,-77726
653329146025707920,-55816,-81047,-77709
653329146033142615,-55865,-81055,-77819
653329146040577310,-55920,-81017,-77752
653329146048012005,-56143,-79883,-77729
653329146055446700,-56009,-80484,-77679
653329146062881395,-55994,-80784,-78010
653329146070316090,-56195,-80925,-77924
653329146077750785,-54830,-79804,-76435
653329146085185480,-55538,-80585,-77043
653329146092620175,-55851,-80941,-77510
653329146100054870,-56090,-81096,-77664
653329146107489565,-54838,-81033,-76993
653329146114924260,-55469,-81127,-77378
653329146122358955,-55893,-81063,-77526
653329146129793650,-55990,-81071,-77643
653329146137228345,-56029,-81003,-77694
653329146144663040,-55973,-81142,-77751
653329146152035840,-56341,-81227,-77377
653329146159474176,-56286,-81193,-77709
653329146166912512,-56278,-81269,-77812
653329146174350848,-56185,-81248,-77705
653329146181789184,-56112,-81227,-77680
653329146189227520,-56076,-81047,-77742
653329146196665856,-56031,-80842,-77785
653329146204104192,-56047,-80855,-77812
653329146211542528,-56021,-80934,-77842
653329146218980864,-56080,-80985,-77878
653329146226419200,-55926,-80982,-77564
653329146233857536,-56077,-81011,-77716
653329146241295872,-55968,-81019,-77723
653329146248734208,-55965,-80978,-77882
653329146256172544,-55804,-81013,-77855
653329146263610880,-55883,-80990,-77852
653329146271049216,-55955,-81096,-77897
653329146278487552,-55975,-81022,-77796
653329146285987785,-55821,-80887,-77584
653329146293422480,-55904,-80931,-77718
653329146300857175,-55975,-81071,-77802
653329146308291870,-55931,-81045,-77872
653329146315726565,-55978,-80976,-77921
653329146323161260,-55959,-80914,-77905
653329146330595955,-56050,-80953,-77930
653329146338030650,-56104,-81041,-77804
653329146345465345,-56002,-80955,-77749
653329146352900040,-55946,-80951,-77722
653329146360334735,-55953,-80876,-77867
653329146367769430,-55856,-80873,-77784
653329146375204125,-55836,-80950,-77801
653329146382638820,-55894,-80901,-77778
653329146390073515,-55874,-80947,-77795
653329146397508210,-55289,-79678,-76479
653329146404942905,-55537,-80260,-77079
653329146412377600,-55749,-80533,-77447
653329146419812297,-55795,-80751,-77794
653329146427246992,-54576,-80558,-76575
653329146434681687,-55257,-80760,-77188
653329146442116382,-55519,-80736,-77503
653329146449551077,-55747,-80804,-77695
653329146456985772,-55742,-80717,-77689
653329146464420467,-55793,-80647,-77839
653329146471855162,-55838,-80833,-77740
653329146479289857,-56030,-80907,-77883
653329146486724552,-55824,-80867,-77676
653329146494159247,-55802,-80771,-77651
653329146501593942,-55764,-80854,-77589
653329146509028637,-55850,-81011,-77681
653329146516463332,-55723,-80703,-77671
653329146523898027,-55684,-80651,-77698
653329146531332722,-55615,-80685,-77727
653329146538767417,-55696,-80635,-77726
653329146546202112,-55479,-80490,-77436
653329146553636809,-55302,-80286,-77743
653329146561071504,-55567,-80658,-77598
653329146568506199,-55680,-80674,-77737
653329146575940894,-55432,-80521,-77541
653329146583375589,-55552,-80648,-77667
653329146590810284,-55631,-80670,-77709
653329146598244979,-55766,-80677,-77784
653329146605679674,-55612,-80612,-77650
653329146613114369,-55648,-80636,-77569
653329146620549064,-55556,-80624,-77472
653329146627983759,-55592,-80583,-77535
653329146635418454,-55613,-80507,-77419
653329146642853149,-55610,-80671,-77472
653329146650287844,-55547,-80692,-77518
653329146657722539,-55617,-80592,-77491
653329146665157234,-55417,-80531,-77403
653329146672591929,-55514,-80583,-77479
653329146680026624,-55550,-80609,-77515
653329146687399424,-55604,-80136,-77087
653329146694837760,-55594,-80387,-77280
653329146702276096,-55590,-80484,-77328
653329146709714432,-55556,-80557,-77563
653329146717152768,-55592,-79194,-76323
653329146724591104,-55742,-80115,-76961
653329146732029440,-55611,-80339,-77258
653329146739467776,-55683,-80611,-77504
653329146746906112,-54398,-79562,-76278
653329146754344448,-55125,-80083,-77149
653329146761782784,-55582,-80504,-77588
653329146769221120,-55782,-80576,-77752
653329146776659456,-55787,-80636,-77760
653329146784097792,-55729,-80587,-77726
653329146791536128,-55759,-80701,-77870
653329146798974464,-55896,-80783,-77981
653329146806412800,-55907,-80883,-77924
653329146813851136,-55928,-80842,-77893
653329146821351369,-55942,-80941,-77965
653329146828786064,-55944,-81016,-78070
653329146836220759,-55904,-81043,-78058
653329146843655454,-56112,-81051,-78065
653329146851090149,-55983,-81051,-78093
653329146858524844,-56036,-81112,-78109
653329146865959539,-55859,-80905,-77964
653329146873394234,-55928,-81066,-78001
653329146880828929,-56135,-81107,-78159
653329146888263624,-56088,-81109,-78260
653329146895698319,-55861,-81166,-77973
653329146903133014,-56043,-81023,-78162
653329146910567709,-56081,-81088,-78184
653329146918002404,-56258,-81097,-78228
653329146925437099,-56042,-81040,-78286
653329146932871794,-56224,-81032,-78229
653329146940306489,-56247,-81115,-78376
653329146947741184,-56219,-81177,-78409
653329146955113984,-56296,-81281,-78075
653329146962552320,-56082,-81167,-78091
653329146969990656,-56102,-81142,-78257
653329146977428992,-56054,-81076,-78334
653329146984867328,-56053,-81039,-78325
653329146992305664,-56051,-81050,-78380
6.53329E+17,-56141,-81052,-78356
653329147007182336,-56115,-81203,-78278
653329147014620672,-56060,-81223,-78325
653329147022059008,-56084,-81237,-78229
653329147029497344,-56330,-81216,-78466
653329147036935680,-56233,-79863,-77058
653329147044374016,-56153,-80387,-77814
653329147051812352,-56024,-80839,-78063
653329147059250688,-56075,-80928,-78259
653329147066689024,-54715,-79744,-76991
653329147074127360,-55440,-80410,-77701
653329147081565696,-55934,-80842,-78091
653329147089127826,-56151,-80899,-78448
653329147096558880,-55085,-81004,-78393
653329147103989934,-55653,-81148,-78265
653329147111420988,-55866,-81165,-78208
653329147118852042,-55981,-81113,-78293
653329147126283096,-55928,-81139,-78265
653329147133714150,-56029,-81038,-78380
653329147141145204,-56008,-80957,-78362
653329147148576258,-56080,-80998,-78389
653329147156007312,-56046,-81121,-78213
653329147163438366,-56019,-81200,-78155
653329147170869420,-56010,-81096,-78265
653329147178300474,-56110,-80999,-78220
653329147185731528,-56026,-80803,-77986
653329147193162582,-56060,-80949,-78066
653329147200593636,-56063,-80984,-78244
653329147208024690,-56148,-80993,-78274
653329147215455744,-55695,-80778,-78050
653329147222701128,-55679,-81135,-78201
653329147230143104,-55811,-81019,-78194
653329147237585080,-55920,-80921,-78229
653329147245027056,-55768,-80891,-78242
653329147252469032,-55905,-80889,-78215
653329147259911008,-55981,-80909,-78167
653329147267352984,-56022,-80888,-78144
653329147274794960,-55939,-80871,-78096
653329147282236936,-55946,-80883,-78127
653329147289678912,-56241,-80923,-78172
653329147297120888,-56041,-80770,-78118
653329147304562864,-55978,-80857,-78116
653329147312004840,-55875,-80964,-77983
653329147319446816,-55908,-80999,-77915
653329147326888792,-55836,-80926,-78078
653329147334330768,-55757,-80825,-78166
653329147341772744,-55653,-80863,-78112
653329147349214720,-55783,-80887,-78142
653329147356718592,-55878,-79522,-76938
653329147364156928,-55726,-80251,-77511
653329147371595264,-55768,-80424,-77712
653329147379033600,-55769,-80527,-77894
653329147386471936,-54340,-79332,-76537
653329147393910272,-55131,-79946,-77159
653329147401348608,-55296,-80273,-77573
653329147408786944,-55486,-80493,-77698
653329147416225280,-54026,-80393,-77685
653329147423663616,-54873,-80552,-77799
653329147431101952,-55099,-80463,-77658
653329147438540288,-55323,-80546,-77678
653329147445978624,-55296,-80427,-77531
653329147453416960,-55348,-80396,-77626
653329147460855296,-55346,-80375,-77724
653329147468293632,-55322,-80235,-77657
653329147475731968,-55221,-80128,-77628
653329147483170304,-55114,-80150,-77515
653329147490670537,-54827,-80013,-77698
653329147498105232,-54920,-80013,-77546
653329147505539927,-54898,-79749,-77165
653329147512974622,-54955,-79894,-77205
653329147520409317,-54917,-79972,-77166
653329147527844012,-54831,-79895,-77203
653329147535278707,-54729,-79778,-76849
653329147542713402,-54781,-79792,-76986
653329147550148097,-54700,-79817,-76998
653329147557582792,-54673,-79800,-77006
653329147565017487,-54622,-79750,-77024
653329147572452182,-54637,-79745,-76894
653329147579886877,-54644,-79734,-76825
653329147587321572,-54624,-79609,-76768
653329147594756267,-54475,-79389,-76655
653329147602190962,-54496,-79596,-76655
653329147609625657,-54591,-79745,-76592
653329147617060352,-54453,-79584,-76558
653329147624433152,-54570,-79296,-76645
653329147631871488,-54548,-79362,-76551
653329147639309824,-54515,-79458,-76706
653329147646748160,-54436,-79463,-76625
653329147654186496,-54466,-79472,-76625
653329147661624832,-54429,-79625,-76557
653329147669063168,-54600,-79578,-76625
653329147676501504,-54525,-78265,-75271
653329147683939840,-54472,-78908,-75971
653329147691378176,-54556,-79222,-76352
653329147698816512,-54583,-79652,-76541
653329147706254848,-53232,-78255,-75215
653329147713693184,-53916,-79023,-76037
653329147721131520,-54349,-79343,-76367
653329147728569856,-54512,-79576,-76670
653329147736008192,-53344,-79757,-76574
653329147743446528,-53942,-79688,-76539
653329147750884864,-54274,-79656,-76551
653329147758446994,-54224,-79910,-76574
653329147765878048,-54273,-79636,-76359
653329147773309102,-54280,-79538,-76318
653329147780740156,-54116,-79372,-76285
653329147788171210,-54048,-79277,-76116
653329147795602264,-53931,-79130,-76020
653329147803033318,-53696,-79107,-75733
653329147810464372,-53428,-78924,-75695
653329147817895426,-53195,-78537,-75427
653329147825326480,-52948,-78145,-75052
653329147832757534,-52669,-77944,-74863
653329147840188588,-52287,-77849,-74600
653329147847619642,-52039,-77691,-74364
653329147855050696,-51584,-77398,-74011
653329147862481750,-51478,-77439,-73817
653329147869912804,-51489,-77240,-73760
653329147877343858,-51267,-77044,-73608
653329147884774912,-50920,-76776,-73391
653329147892082176,-50470,-76381,-73316
653329147899520512,-50358,-76249,-72940
653329147906958848,-50024,-76094,-72605
653329147914397184,-49683,-75828,-72298
653329147921835520,-49498,-75611,-71999
653329147929273856,-49335,-75468,-71765
653329147936712192,-48825,-75180,-71465
653329147944150528,-48520,-74999,-71290
653329147951588864,-48308,-74867,-70977
653329147959027200,-48191,-74676,-70878
653329147966465536,-47967,-74443,-70613
653329147973903872,-47681,-74288,-70386
653329147981342208,-47702,-74185,-70365
653329147988780544,-47544,-74031,-70199
653329147996218880,-47340,-72767,-68948
653329148003657216,-47119,-73184,-69405
653329148011095552,-47074,-73430,-69648
653329148018533888,-46921,-73467,-69602
653329148026034121,-45798,-72013,-68356
653329148033468816,-46162,-72632,-68871
653329148040903511,-46396,-72965,-69054
653329148048338206,-46459,-72958,-69013
653329148055772901,-45114,-73039,-68912
653329148063207596,-45274,-72937,-68808
653329148070642291,-45543,-72853,-68694
653329148078076986,-45588,-72559,-68454
653329148085511681,-45568,-72570,-68198
653329148092946376,-45497,-72429,-68067
653329148100381071,-45355,-72368,-67936
653329148107815766,-45134,-72150,-67857
653329148115250461,-44913,-72138,-67470
653329148122685156,-44697,-71897,-67304
653329148130119851,-44753,-71804,-67200
653329148137554546,-44559,-71686,-67133
653329148144989241,-44361,-71396,-66918
653329148152423936,-44265,-71345,-66842
653329148159858633,-44207,-71397,-66765
653329148167293328,-44102,-71215,-66683
653329148174728023,-43718,-70833,-66407
653329148182162718,-43710,-70780,-66434
653329148189597413,-43739,-70799,-66510
653329148197032108,-43673,-70778,-66464
653329148204466803,-43446,-70624,-66318
653329148211901498,-43595,-70645,-66370
653329148219336193,-43439,-70462,-66203
653329148226770888,-43270,-70377,-66071
653329148234205583,-43162,-70283,-66003
653329148241640278,-43075,-70256,-65959
653329148249074973,-43044,-70195,-65813
653329148256509668,-42979,-70050,-65854
653329148263944363,-42909,-69994,-65832
653329148271379058,-42807,-70014,-65838
653329148278813753,-42741,-69947,-65755
653329148286248448,-42625,-69795,-65691
653329148293621248,-42824,-69853,-65365
653329148301059584,-42665,-69867,-65506
653329148308497920,-42503,-69748,-65538
653329148315936256,-42473,-68447,-65050
653329148323374592,-42292,-68975,-65229
653329148330812928,-42384,-69213,-65321
653329148338251264,-42339,-69477,-65247
653329148345689600,-41150,-68299,-64027
653329148353127936,-41775,-68932,-64631
653329148360566272,-42063,-69141,-64904
653329148368004608,-42072,-69290,-65025
653329148375442944,-40915,-69342,-64998
653329148382881280,-41474,-69333,-64977
653329148390319616,-41895,-69405,-65015
653329148397757952,-42037,-69320,-65028
653329148405196288,-41982,-69298,-64964
653329148412634624,-41903,-69420,-64963
653329148420072960,-41979,-69400,-65072
653329148427573193,-42183,-69307,-64827
653329148435007888,-41976,-69259,-64961
653329148442442583,-41894,-69210,-65002
653329148449877278,-41837,-69206,-65052
653329148457311973,-41818,-69078,-65111
653329148464746668,-41829,-69054,-64852
653329148472181363,-41723,-69191,-64955
653329148479616058,-41620,-69110,-64826
653329148487050753,-41478,-68975,-64697
653329148494485448,-41212,-68692,-64336
653329148501920143,-41193,-68773,-64312
653329148509354838,-41132,-68764,-64427
653329148516789533,-41174,-68772,-64379
653329148524224228,-40948,-68788,-64354
653329148531658923,-40988,-68769,-64343
653329148539093618,-41114,-68749,-64355
653329148546528313,-41076,-68759,-64338
653329148553963008,-40966,-68707,-64354
653329148561335808,-41222,-68703,-64500
653329148568774144,-41191,-68761,-64569
653329148576212480,-41214,-68892,-64565
653329148583650816,-41266,-68896,-64502
653329148591089152,-41257,-68976,-64727
653329148598527488,-41435,-69029,-64892
653329148605965824,-41604,-69170,-65192
653329148613404160,-41774,-69365,-65320
653329148620842496,-42029,-69686,-65545
653329148628280832,-42266,-69955,-65768
653329148635719168,-42510,-68862,-65782
653329148643157504,-42739,-69769,-66267
653329148650595840,-42941,-70256,-66498
653329148658034176,-43286,-70509,-66764
653329148665472512,-42179,-69525,-65699
653329148672910848,-42894,-70260,-66327
653329148680349184,-43339,-70680,-66815
653329148687787520,-43501,-70963,-66953
653329148695287753,-42461,-71137,-66769
653329148702722448,-43234,-71156,-66971
653329148710157143,-43516,-71301,-67214
653329148717591838,-43789,-71400,-67252
653329148725026533,-43976,-71403,-67282
653329148732461228,-43991,-71461,-67251
653329148739895923,-44118,-71471,-67418
653329148747330618,-44268,-71632,-67523
653329148754765313,-44200,-71748,-67424
653329148762200008,-44410,-71807,-67584
653329148769634703,-44386,-72222,-67430
653329148777069398,-44395,-72092,-67595
653329148784504093,-44515,-71917,-67537
653329148791938788,-44544,-71996,-67737
653329148799373483,-44677,-72171,-67836
653329148806808178,-44627,-72265,-67777
653329148814242873,-44497,-72041,-67695
653329148821677568,-44732,-72130,-67724
653329148829112265,-45294,-72274,-67657
653329148836546960,-45103,-72321,-67781
653329148843981655,-44979,-72379,-67797
653329148851416350,-45010,-72395,-67903
653329148858851045,-44986,-72520,-67976
653329148866285740,-44938,-72599,-68050
653329148873720435,-44884,-72494,-67994
653329148881155130,-44994,-72565,-68021
653329148888589825,-45083,-72678,-67976
653329148896024520,-45167,-72681,-68195
653329148903459215,-45160,-72771,-68135
653329148910893910,-45144,-72811,-68126
653329148918328605,-45154,-72692,-68124
653329148925763300,-45246,-72754,-68113
653329148933197995,-45284,-72724,-68165
653329148940632690,-45357,-72780,-68090
653329148948067385,-45309,-72826,-68042
653329148955502080,-45362,-71685,-66983
653329148962936777,-45412,-72375,-67557
653329148970371472,-45411,-72802,-67793
653329148977806167,-45458,-72991,-67967
653329148985240862,-44105,-71778,-66789
653329148992675557,-44857,-72430,-67431
653329149000110252,-45196,-72754,-67803
653329149007544947,-45450,-72990,-67986
653329149014979642,-44305,-73008,-67913
653329149022414337,-45075,-73098,-67969
653329149029849032,-45423,-73296,-67851
653329149037283727,-45564,-73373,-67890
653329149044718422,-45511,-73232,-68001
653329149052153117,-45512,-73187,-67975
653329149059587812,-45523,-73288,-67905
653329149067022507,-45655,-73259,-67940
653329149074457202,-45481,-73249,-67875
653329149081891897,-45506,-73216,-67915
653329149089326592,-45520,-73266,-67873
653329149096761289,-45786,-73225,-67931
653329149104195984,-45637,-73030,-67673
653329149111630679,-45703,-73205,-67840
653329149119065374,-45732,-73263,-67777
653329149126500069,-45704,-73199,-67780
653329149133934764,-45641,-73043,-67621
653329149141369459,-45714,-73236,-67651
653329149148804154,-45739,-73362,-67772
653329149156238849,-45837,-73318,-67684
653329149163673544,-45685,-73434,-67728
653329149171108239,-45843,-73406,-67880
653329149178542934,-45822,-73360,-67813
653329149185977629,-45897,-73496,-67838
653329149193412324,-45906,-73399,-67838
653329149200847019,-45836,-73544,-67822
653329149208281714,-45902,-73589,-67725
653329149215716409,-45842,-73501,-67708
653329149223151104,-45941,-73501,-67818
653329149230523904,-45728,-73241,-67591
653329149237962240,-45792,-73518,-67783
653329149245400576,-45829,-73503,-67826
653329149252838912,-45918,-73449,-67686
653329149260277248,-46007,-73497,-67892
653329149267715584,-46050,-73497,-67875
653329149275153920,-46134,-72273,-66828
653329149282592256,-46049,-73008,-67367
653329149290030592,-46117,-73320,-67647
653329149297468928,-45987,-73496,-67682
653329149304907264,-44623,-72283,-66453
653329149312345600,-45432,-72940,-67182
653329149319783936,-45795,-73345,-67570
653329149327222272,-45907,-73443,-67615
653329149334660608,-44606,-73449,-67736
653329149342098944,-45458,-73588,-67891
653329149349537280,-45779,-73581,-67877
653329149356975616,-45853,-73561,-67884
653329149364475849,-45877,-73730,-67984
653329149371910544,-45987,-73680,-67920
653329149379345239,-46039,-73751,-67806
653329149386779934,-46100,-73607,-67772
653329149394214629,-46078,-73646,-67734
653329149401649324,-46164,-73631,-67784
653329149409084019,-46111,-73690,-67826
653329149416518714,-46103,-73682,-67814
653329149423953409,-46050,-73512,-67792
653329149431388104,-46122,-73597,-67962
653329149438822799,-46132,-73425,-68084
653329149446257494,-46099,-73538,-67913
653329149453692189,-45905,-73275,-67579
653329149461126884,-45798,-73248,-67672
653329149468561579,-45587,-73244,-67469
653329149475996274,-45393,-73095,-67267
653329149483430969,-45087,-72886,-67217
653329149490865664,-44971,-72804,-66973
653329149498300361,-44973,-72715,-66866
653329149505735056,-44629,-72493,-66670
653329149513169751,-44502,-72317,-66503
653329149520604446,-44268,-72190,-66302
653329149528039141,-44058,-72102,-66224
653329149535473836,-43822,-71912,-66032
653329149542908531,-43770,-71778,-65827
653329149550343226,-43602,-71660,-65857
653329149557777921,-43515,-71576,-65520
653329149565212616,-43295,-71307,-65435
653329149572647311,-43026,-71191,-65296
653329149580082006,-42825,-71011,-65077
653329149587516701,-42754,-70826,-65011
653329149594951396,-42606,-69529,-64197
653329149602386091,-42483,-70149,-64585
653329149609820786,-42429,-70357,-64666
653329149617255481,-42256,-70494,-64698
653329149624690176,-41009,-69345,-63405
653329149632124873,-41845,-69676,-63913
653329149639559568,-41905,-70246,-64398
653329149646994263,-41994,-70302,-64557
653329149654428958,-40794,-70344,-64718
653329149661863653,-41447,-70479,-64693
653329149669298348,-42019,-70507,-64760
653329149676733043,-42091,-70577,-64804
653329149684167738,-42119,-70510,-64830
653329149691602433,-42134,-70557,-64820
653329149699037128,-42139,-70601,-64879
653329149706471823,-42142,-70511,-64973
653329149713906518,-42045,-70535,-64847
653329149721341213,-42011,-70444,-64746
653329149728775908,-41945,-70492,-64733
653329149736210603,-41836,-70387,-64636
653329149743645298,-41845,-70319,-64413
653329149751079993,-41787,-70380,-64389
653329149758514688,-41876,-70433,-64463
653329149766011282,-41897,-70475,-64548
653329149773442336,-41601,-70253,-64403
653329149780873390,-41656,-70223,-64569
653329149788304444,-41712,-70341,-64480
653329149795735498,-41644,-70309,-64461
653329149803166552,-41517,-70354,-64372
653329149810597606,-41490,-70149,-64335
653329149818028660,-41435,-70191,-64300
653329149825459714,-41376,-70008,-64197
653329149832890768,-41283,-70018,-64114
653329149840321822,-41255,-69917,-64056
653329149847752876,-41292,-69928,-63973
653329149855183930,-41085,-69819,-63903
653329149862614984,-40905,-69942,-63772
653329149870046038,-40937,-69769,-63710
653329149877477092,-40973,-69807,-63717
653329149884908146,-40845,-69676,-63602
653329149892339200,-40873,-69665,-63634
653329149899584584,-40538,-69589,-63373
653329149907026560,-40677,-69560,-63480
653329149914468536,-40775,-68427,-62169
653329149921910512,-40722,-69084,-62878
653329149929352488,-40672,-69389,-63169
653329149936794464,-40535,-69438,-63268
653329149944236440,-39265,-68212,-62067
653329149951678416,-39882,-68886,-62810
653329149959120392,-40194,-69201,-63192
653329149966562368,-40279,-69452,-63310
653329149974004344,-39087,-69498,-63179
653329149981446320,-39718,-69304,-63262
653329149988888296,-40049,-69296,-63174
653329149996330272,-40283,-69145,-63223
653329150003772248,-40293,-69184,-63237
653329150011214224,-40287,-69208,-63203
653329150018656200,-40192,-69146,-63204
653329150026098176,-40285,-69191,-63081
653329150033663945,-40242,-69041,-62892
653329150041098640,-40141,-69064,-63069
653329150048533335,-40217,-69051,-63068
653329150055968030,-40102,-69013,-62992
653329150063402725,-39916,-68935,-62760
653329150070837420,-40063,-68912,-62883
653329150078272115,-39981,-68912,-62828
653329150085706810,-39977,-68909,-62716
653329150093141505,-39767,-68733,-62535
653329150100576200,-39771,-68795,-62679
653329150108010895,-39717,-68735,-62712
653329150115445590,-39626,-68809,-62568
653329150122880285,-39752,-68713,-62665
653329150130314980,-39633,-68759,-62651
653329150137749675,-39530,-68646,-62504
653329150145184370,-39475,-68647,-62452
653329150152619065,-39517,-68498,-62448
653329150160053760,-39420,-68526,-62409
653329150167488457,-39605,-68487,-62262
653329150174923152,-39538,-68363,-62208
653329150182357847,-39464,-68510,-62173
653329150189792542,-39379,-68503,-62179
653329150197227237,-39232,-68319,-62277
653329150204661932,-39096,-68291,-62061
653329150212096627,-39105,-68278,-62020
653329150219531322,-39151,-68255,-62155
653329150226966017,-39100,-68148,-62070
653329150234400712,-38922,-66849,-60724
653329150241835407,-38764,-67553,-61282
653329150249270102,-38837,-67921,-61676
653329150256704797,-38818,-67935,-61722
653329150264139492,-37622,-66643,-60441
653329150271574187,-38282,-67360,-61172
653329150279008882,-38467,-67605,-61479
653329150286443577,-38456,-67658,-61523
653329150293878272,-37935,-67628,-61644
653329150301312969,-37947,-67679,-61792
653329150308747664,-38328,-67665,-61578
653329150316182359,-38374,-67640,-61430
653329150323617054,-38299,-67627,-61241
653329150331051749,-38385,-67507,-61369
653329150338486444,-38438,-67522,-61299
653329150345921139,-38424,-67508,-61194
653329150353355834,-38218,-67477,-61217
653329150360790529,-38172,-67375,-61165
653329150368225224,-38105,-67348,-61128
653329150375659919,-38114,-67241,-61079
653329150383094614,-37942,-67059,-60957
653329150390529309,-38001,-67080,-61016
653329150397964004,-37905,-67081,-60979
653329150405398699,-37689,-66906,-60843
653329150412833394,-37595,-66947,-60623
653329150420268089,-37814,-66994,-60903
653329150427702784,-37741,-66941,-60743
653329150435075584,-37791,-67048,-60380
653329150442513920,-37692,-67012,-60622
653329150449952256,-37564,-66961,-60586
653329150457390592,-37485,-66860,-60407
653329150464828928,-37484,-66756,-60353
653329150472267264,-37406,-66669,-60293
653329150479705600,-37315,-66647,-60228
653329150487143936,-37237,-66488,-60248
653329150494582272,-37128,-66448,-60214
653329150502020608,-37158,-66473,-60230
653329150509458944,-37089,-66363,-60192
653329150516897280,-37068,-66472,-60186
653329150524335616,-37094,-66414,-60179
653329150531773952,-37054,-66447,-60166
653329150539212288,-37154,-66532,-60204
653329150546650624,-37149,-66440,-60149
653329150554088960,-37092,-65335,-58851
653329150561527296,-37118,-65952,-59608
653329150569027529,-36767,-66311,-60108
653329150576462224,-36914,-66434,-60134
653329150583896919,-35807,-65554,-58978
653329150591331614,-36505,-66131,-59699
653329150598766309,-36893,-66440,-59859
653329150606201004,-37093,-66605,-60078
653329150613635699,-37118,-66603,-60087
653329150621070394,-37174,-66734,-60103
653329150628505089,-37101,-66763,-60211
653329150635939784,-37233,-66806,-60083
653329150643374479,-37124,-66702,-60168
653329150650809174,-37089,-66693,-60082
653329150658243869,-37243,-66717,-60176
653329150665678564,-37272,-66703,-60121
653329150673113259,-37133,-66674,-60154
653329150680547954,-37175,-66797,-60194
653329150687982649,-37116,-66827,-60211
653329150695417344,-37111,-66864,-60167
653329150702790144,-36850,-66547,-59654
653329150710228480,-36955,-66686,-59932
653329150717666816,-37122,-66775,-60083
653329150725105152,-37260,-66668,-60133
653329150732543488,-37049,-66655,-59989
653329150739981824,-37200,-66674,-60033
653329150747420160,-37111,-66816,-60074
653329150754858496,-37079,-66743,-60221
653329150762296832,-37080,-66624,-60095
653329150769735168,-37072,-66680,-60097
653329150777173504,-37119,-66603,-60155
653329150784611840,-37017,-66524,-60076
653329150792050176,-36944,-66574,-59996
653329150799488512,-37047,-66549,-59936
653329150806926848,-37072,-66486,-60020
653329150814365184,-36888,-66610,-59842
653329150821803520,-36880,-66427,-59861
653329150829241856,-36863,-66425,-59817
653329150836742089,-36827,-66315,-59655
653329150844176784,-36792,-66371,-59522
653329150851611479,-36809,-66386,-59613
653329150859046174,-36830,-66446,-59653
653329150866480869,-36899,-66339,-59845
653329150873915564,-36435,-65043,-58487
653329150881350259,-36541,-65868,-59187
653329150888784954,-36656,-66164,-59453
653329150896219649,-36631,-66181,-59608
653329150903654344,-35398,-66169,-58377
653329150911089039,-36049,-66316,-59097
653329150918523734,-36349,-66314,-59299
653329150925958429,-36452,-66257,-59387
653329150933393124,-36479,-66191,-59404
653329150940827819,-36479,-66262,-59426
653329150948262514,-36528,-66179,-59492
653329150955697209,-36411,-66181,-59377
653329150963131904,-36341,-66129,-59337
653329150970628498,-36534,-66192,-59137
653329150978059552,-36493,-66196,-59272
653329150985490606,-36348,-66082,-59290
653329150992921660,-36383,-65820,-59297
653329151000352714,-36390,-65939,-59210
653329151007783768,-36254,-65925,-59298
653329151015214822,-36303,-65933,-59200
653329151022645876,-36130,-65759,-58996
653329151030076930,-36118,-65780,-59180
653329151037507984,-36159,-65862,-59086
653329151044939038,-36196,-65776,-59087
653329151052370092,-35956,-65771,-59062
653329151059801146,-36030,-65781,-58980
653329151067232200,-36084,-65744,-58956
653329151074663254,-35994,-65645,-58848
653329151082094308,-35827,-65626,-58897
653329151089525362,-35924,-65703,-58965
653329151096956416,-35794,-65553,-58773
653329151104325577,-35857,-65554,-58443
653329151111760272,-35745,-65456,-58586
653329151119194967,-35824,-65563,-58723
653329151126629662,-35779,-65536,-58617
653329151134064357,-35781,-65393,-58564
653329151141499052,-35740,-65399,-58561
653329151148933747,-35624,-65363,-58544
653329151156368442,-35587,-65281,-58463
653329151163803137,-35537,-65279,-58517
653329151171237832,-35490,-65377,-58564
653329151178672527,-35435,-65280,-58471
653329151186107222,-35352,-65287,-58404
653329151193541917,-34666,-64106,-57025
653329151200976612,-34990,-64633,-57709
653329151208411307,-35220,-64868,-58210
653329151215846002,-35363,-64971,-58306
653329151223280697,-34040,-64938,-57065
653329151230715392,-34711,-64994,-57794
653329151238088192,-34791,-64919,-57773
653329151245526528,-35024,-64978,-57970
653329151252964864,-35127,-64911,-57987
653329151260403200,-35166,-64963,-58125
653329151267841536,-35250,-65055,-58055
653329151275279872,-35142,-64969,-58044
653329151282718208,-35059,-64916,-58081
653329151290156544,-35075,-64889,-57999
653329151297594880,-35030,-64869,-57979
653329151305033216,-35068,-64827,-57899
653329151312471552,-35001,-64538,-57885
653329151319909888,-35108,-64586,-57838
653329151327348224,-34925,-64698,-57726
653329151334786560,-34782,-64714,-57715
653329151342224896,-34780,-64581,-57661
653329151349663232,-34667,-64645,-57685
653329151357101568,-34662,-64558,-57645
653329151364539904,-34686,-64535,-57533
653329151371978240,-34279,-64517,-57608
653329151379416576,-34460,-64578,-57488
653329151386854912,-34477,-64519,-57552
653329151394293248,-34560,-64371,-57393
653329151401731584,-34557,-64295,-57330
653329151409169920,-34452,-64445,-57411
653329151416608256,-34387,-64281,-57313
653329151424046592,-34334,-64353,-57111
653329151431484928,-34422,-64289,-57249
653329151438923264,-34250,-64216,-57234
653329151446361600,-34233,-64192,-57121
653329151453799936,-34173,-64099,-56972
653329151461238272,-34214,-64093,-56978
653329151468676608,-34128,-64057,-57002
653329151476114944,-34054,-63875,-56941
653329151483553280,-33995,-63806,-56919
653329151490991616,-34059,-63858,-57030
653329151498429952,-34175,-64060,-57094
653329151505930185,-34125,-64079,-57029
653329151513364880,-33039,-62879,-55760
653329151520799575,-33600,-63654,-56471
653329151528234270,-33949,-64008,-56681
653329151535668965,-34051,-64109,-56634
653329151543103660,-32937,-64165,-55639
653329151550538355,-33726,-64255,-56429
653329151557973050,-33994,-64249,-56724
653329151565407745,-34011,-64121,-56813
653329151572842440,-34174,-64121,-56996
653329151580277135,-34106,-64299,-57044
653329151587711830,-34198,-64450,-56951
653329151595146525,-34360,-64408,-56980
653329151602581220,-34392,-64303,-57148
653329151610015915,-34341,-64320,-57043
653329151617450610,-34276,-64326,-57036
653329151624885305,-34289,-64470,-56961
6.53329E+17,-34262,-64218,-57121
653329151639754697,-34173,-64255,-57046
653329151647189392,-34270,-64253,-57087
653329151654624087,-34166,-64325,-57015
653329151662058782,-34086,-64160,-56929
653329151669493477,-34217,-64280,-57062
653329151676928172,-34356,-64299,-57071
653329151684362867,-34206,-64419,-57017
653329151691797562,-34172,-64446,-57180
653329151699232257,-34369,-64396,-57147
653329151706666952,-34353,-64360,-57070
653329151714101647,-34346,-64416,-57148
653329151721536342,-34411,-64364,-57197
653329151728971037,-34370,-64544,-57120
653329151736405732,-34302,-64467,-57039
653329151743840427,-34259,-64423,-57063
653329151751275122,-34234,-64443,-57047
653329151758709817,-34267,-64392,-57114
653329151766144512,-34198,-64324,-57044
653329151773579209,-34310,-64302,-57081
653329151781013904,-34205,-64309,-57011
653329151788448599,-34307,-64363,-57046
653329151795883294,-34318,-64318,-57025
653329151803317989,-34265,-64292,-56947
653329151810752684,-34158,-64329,-57043
653329151818187379,-34204,-64319,-56958
653329151825622074,-34080,-64345,-56857
653329151833056769,-33523,-62973,-55674
653329151840491464,-33938,-63741,-56350
653329151847926159,-34139,-63995,-56763
653329151855360854,-34100,-64175,-56913
653329151862795549,-32805,-63844,-55607
653329151870230244,-33616,-64189,-56394
653329151877664939,-33934,-64149,-56559
653329151885099634,-34105,-64200,-56872
653329151892534329,-34116,-64210,-56951
653329151899969024,-34180,-64316,-56968
653329151907341824,-34114,-64339,-57056
653329151914780160,-34214,-64153,-56963
653329151922218496,-34149,-64148,-56963
653329151929656832,-34220,-64262,-56983
653329151937095168,-34065,-64252,-56935
653329151944533504,-34136,-64064,-56942
653329151951971840,-34068,-63976,-56843
653329151959410176,-34034,-64031,-56825
653329151966848512,-34030,-64047,-56849
653329151974286848,-33915,-64036,-56759
653329151981725184,-33833,-63894,-56650
653329151989163520,-33883,-63976,-56721
653329151996601856,-33932,-63938,-56731
653329152004040192,-33955,-63928,-56713
653329152011478528,-33840,-64029,-56625
653329152018916864,-33907,-64041,-56731
653329152026355200,-33919,-64021,-56621
653329152033793536,-33979,-64081,-56646
653329152041293769,-34016,-63846,-56488
653329152048728464,-34093,-63845,-56524
653329152056163159,-34015,-63813,-56591
653329152063597854,-33916,-63805,-56575
653329152071032549,-33889,-63980,-56675
653329152078467244,-33808,-63845,-56738
653329152085901939,-33761,-63834,-56625
653329152093336634,-33773,-63892,-56494
653329152100771329,-33764,-63905,-56516
653329152108206024,-33846,-63865,-56578
653329152115640719,-33723,-63914,-56388
653329152123075414,-33639,-63900,-56385
653329152130510109,-33800,-63749,-56506
653329152137944804,-33807,-63774,-56450
653329152145379499,-33767,-63722,-56383
653329152152814194,-33574,-62349,-55086
653329152160248889,-33532,-63113,-55673
653329152167683584,-33556,-63441,-55907
653329152175118281,-33678,-63602,-56317
653329152182552976,-32413,-62870,-55030
653329152189987671,-32914,-63261,-55667
653329152197422366,-33358,-63394,-55951
653329152204857061,-33435,-63379,-55989
653329152212291756,-33496,-63422,-56050
653329152219726451,-33528,-63421,-56147
653329152227161146,-33469,-63434,-56225
653329152234595841,-33331,-63394,-56153
653329152242030536,-33285,-63312,-56101
653329152249465231,-33293,-63353,-56126
653329152256899926,-33286,-63290,-56012
653329152264334621,-33384,-63287,-56068
653329152271769316,-33299,-63216,-55994
653329152279204011,-33351,-63404,-55982
653329152286638706,-33110,-63212,-55912
653329152294073401,-33163,-63339,-55872
653329152301508096,-32961,-63012,-55691
653329152308880896,-33327,-63326,-55888
653329152316319232,-33282,-63219,-55889
653329152323757568,-33075,-63129,-55761
653329152331195904,-32963,-63174,-55650
653329152338634240,-33187,-63137,-55735
653329152346072576,-33162,-63186,-55856
653329152353510912,-33059,-63058,-55754
653329152360949248,-33100,-63106,-55703
653329152368387584,-32947,-63038,-55605
653329152375825920,-32935,-62969,-55611
653329152383264256,-32928,-62870,-55583
653329152390702592,-32937,-62833,-55546
653329152398140928,-32850,-62846,-55558
653329152405579264,-32945,-62819,-55556
653329152413017600,-32935,-62788,-55461
653329152420455936,-33006,-62721,-55486
653329152427894272,-32955,-62849,-55430
653329152435332608,-32755,-62752,-55351
653329152442894738,-32869,-62530,-55122
653329152450325792,-32849,-62694,-55397
653329152457756846,-32708,-62661,-55400
653329152465187900,-32697,-62572,-55300
653329152472618954,-32690,-61447,-54162
653329152480050008,-32806,-62153,-54784
653329152487481062,-32828,-62584,-55013
653329152494912116,-32863,-62827,-55246
653329152502343170,-31541,-61842,-54204
653329152509774224,-32271,-62540,-54920
653329152517205278,-32610,-62798,-55360
653329152524636332,-32746,-62874,-55445
653329152532067386,-32712,-63027,-55496
653329152539498440,-32884,-63095,-55510
653329152546929494,-32933,-63078,-55535
653329152554360548,-32978,-63090,-55717
653329152561791602,-33001,-63155,-55613
653329152569222656,-33068,-63173,-55674
653329152576529920,-32892,-62975,-55763
653329152583968256,-33068,-63109,-55761
653329152591406592,-33157,-63111,-55790
653329152598844928,-33257,-63234,-55808
653329152606283264,-33170,-63171,-55723
653329152613721600,-33210,-63113,-55809
653329152621159936,-33131,-62976,-55732
653329152628598272,-33280,-63144,-55744
653329152636036608,-33226,-63241,-55821
653329152643474944,-33337,-63324,-55726
653329152650913280,-33160,-63278,-55634
653329152658351616,-33356,-63344,-55790
653329152665789952,-33276,-63325,-55733
653329152673228288,-33333,-63268,-55789
653329152680666624,-33305,-63333,-55805
653329152688104960,-33327,-63436,-55790
653329152695543296,-33497,-63178,-55894
653329152702981632,-33299,-63265,-55893
653329152710543762,-33540,-63462,-56038
653329152717974816,-33469,-63352,-55867
653329152725405870,-33443,-63405,-55848
653329152732836924,-33436,-63362,-55893
653329152740267978,-33457,-63292,-55945
653329152747699032,-33381,-63511,-56020
653329152755130086,-33401,-63353,-55973
653329152762561140,-33373,-63327,-55934
653329152769992194,-33416,-63293,-55888
653329152777423248,-33585,-63394,-56023
653329152784854302,-33392,-63351,-55973
653329152792285356,-33428,-62178,-54710
653329152799716410,-33493,-62913,-55417
653329152807147464,-33394,-63225,-55691
653329152814578518,-33426,-63340,-55730
653329152822009572,-32205,-62208,-54568
653329152829440626,-32955,-62921,-55365
653329152836871680,-33271,-63223,-55689
653329152844178944,-33253,-63028,-55871
653329152851617280,-32671,-63333,-56009
653329152859055616,-33182,-63377,-56049
653329152866493952,-33382,-63384,-55994
653329152873932288,-33517,-63275,-55889
653329152881370624,-33612,-63431,-55935
653329152888808960,-33568,-63400,-56054
653329152896247296,-33607,-63445,-56008
653329152903685632,-33503,-63536,-55937
653329152911123968,-33551,-63510,-55983
653329152918562304,-33562,-63385,-55917
653329152926000640,-33557,-63376,-55930
653329152933438976,-33662,-63361,-56097
653329152940877312,-33617,-63146,-55909
653329152948315648,-33567,-63298,-55923
653329152955753984,-33624,-63197,-55862
653329152963192320,-33623,-63294,-55917
653329152970630656,-33467,-63272,-55687
653329152978192786,-33286,-63281,-55935
653329152985623840,-33370,-63367,-55878
653329152993054894,-33471,-63276,-56015
653329153000485948,-33438,-63276,-55974
653329153007917002,-33399,-63214,-55842
653329153015348056,-33451,-63141,-55903
653329153022779110,-33339,-63249,-55791
653329153030210164,-33356,-63202,-55853
653329153037641218,-33341,-63254,-55836
653329153045072272,-33416,-63151,-55789
653329153052503326,-33383,-63162,-55842
653329153059934380,-33448,-63220,-55895
653329153067365434,-33356,-63182,-55858
653329153074796488,-33311,-63044,-55884
653329153082227542,-33295,-63049,-55950
653329153089658596,-33364,-63176,-55953
653329153097089650,-33281,-63199,-55800
653329153104520704,-33255,-63148,-55724
653329153111827968,-33583,-61730,-54536
653329153119266304,-33522,-62460,-55198
653329153126704640,-33372,-62710,-55553
653329153134142976,-33352,-62848,-55750
653329153141581312,-32068,-61817,-54477
653329153149019648,-32822,-62516,-55283
653329153156457984,-33051,-62758,-55503
653329153163896320,-33132,-62874,-55552
653329153171334656,-32491,-63053,-55628
653329153178772992,-32884,-63107,-55757
653329153186211328,-33173,-63037,-55685
653329153193649664,-33218,-62901,-55719
6.53329E+17,-33289,-62970,-55708
653329153208526336,-33195,-63053,-55845
653329153215964672,-33248,-63034,-55856
653329153223403008,-33249,-62951,-55804
653329153230841344,-33173,-63016,-55797
653329153238279680,-33318,-62957,-55690
653329153245718016,-32998,-63177,-55630
653329153253156352,-33322,-63022,-55713
653329153260594688,-33291,-62848,-55628
653329153268033024,-33312,-62852,-55671
653329153275471360,-33260,-62918,-55709
653329153282909696,-33226,-62837,-55656
653329153290348032,-33068,-62745,-55518
653329153297786368,-33081,-62753,-55654
653329153305224704,-33073,-62835,-55652
653329153312663040,-33145,-62879,-55516
653329153320101376,-33241,-62835,-55480
653329153327539712,-33084,-62803,-55456
653329153334978048,-33148,-62668,-55379
653329153342416384,-33094,-62859,-55426
653329153349854720,-33184,-62933,-55427
653329153357293056,-33175,-62743,-55394
653329153364731392,-33053,-62671,-55256
653329153372169728,-32890,-62676,-55329
653329153379669961,-32729,-62554,-55484
653329153387104656,-32843,-62546,-55297
653329153394539351,-32875,-62588,-55379
653329153401974046,-33042,-62626,-55239
653329153409408741,-33018,-62693,-55252
653329153416843436,-32776,-62583,-55314
653329153424278131,-32920,-62434,-55273
653329153431712826,-32775,-61255,-53985
653329153439147521,-33021,-62008,-54701
653329153446582216,-32908,-62269,-55015
653329153454016911,-32931,-62436,-55154
653329153461451606,-31611,-61250,-53973
653329153468886301,-32389,-62031,-54736
653329153476320996,-32753,-62333,-55080
653329153483755691,-32948,-62577,-55292
653329153491190386,-32630,-62609,-55296
653329153498625081,-32821,-62666,-55396
653329153506059776,-32959,-62728,-55405
653329153513494473,-32880,-62619,-55285
653329153520929168,-33147,-62750,-55435
653329153528363863,-33255,-62765,-55510
653329153535798558,-33293,-62909,-55594
653329153543233253,-33356,-63040,-55652
653329153550667948,-33513,-63057,-55766
653329153558102643,-33532,-63022,-55789
653329153565537338,-33597,-63045,-55867
653329153572972033,-33655,-63024,-55878
653329153580406728,-33511,-62983,-55846
653329153587841423,-33541,-63233,-55991
653329153595276118,-33630,-63297,-56047
653329153602710813,-33764,-63308,-56259
653329153610145508,-33688,-63454,-56163
653329153617580203,-33951,-63574,-56431
653329153625014898,-34072,-63620,-56591
653329153632449593,-34152,-63648,-56801
653329153639884288,-34496,-63759,-56949
653329153647318985,-34387,-63643,-56773
653329153654753680,-34585,-63941,-56906
653329153662188375,-34670,-64025,-57008
653329153669623070,-34789,-64145,-57291
653329153677057765,-34883,-64149,-57276
653329153684492460,-34940,-64236,-57450
653329153691927155,-34965,-64288,-57377
653329153699361850,-35011,-64383,-57629
653329153706796545,-34999,-64363,-57732
653329153714231240,-35029,-64311,-57866
653329153721665935,-35095,-64433,-57845
653329153729100630,-35207,-64445,-57941
653329153736535325,-35268,-64564,-57901
653329153743970020,-35258,-64602,-58042
653329153751404715,-35453,-63492,-56932
653329153758839410,-35625,-64126,-57729
653329153766274105,-35606,-64426,-58035
653329153773708800,-35584,-64620,-58242
653329153781143497,-34571,-63371,-57099
653329153788578192,-35191,-64128,-57812
653329153796012887,-35514,-64434,-58332
653329153803447582,-35707,-64730,-58461
653329153810882277,-35346,-64918,-58739
653329153818316972,-35796,-64996,-58939
653329153825751667,-35909,-64962,-58933
653329153833186362,-35983,-65149,-58756
653329153840621057,-36247,-65222,-58907
653329153848055752,-36291,-65228,-58981
653329153855490447,-36300,-65218,-59124
653329153862925142,-36391,-65177,-59192
653329153870359837,-36443,-65289,-59308
653329153877794532,-36492,-65372,-59354
653329153885229227,-36457,-65328,-59363
653329153892663922,-36518,-65508,-59357
653329153900098617,-36514,-65420,-59371
653329153907533312,-36633,-65435,-59459
653329153914968009,-36631,-65425,-59622
653329153922402704,-36776,-65546,-59668
653329153929837399,-36651,-65703,-59659
653329153937272094,-36742,-65614,-59650
653329153944706789,-36931,-65703,-59849
653329153952141484,-36931,-65786,-59931
653329153959576179,-37045,-65783,-59963
653329153967010874,-37098,-65747,-59988
653329153974445569,-37116,-65773,-60020
653329153981880264,-37326,-65901,-60124
653329153989314959,-37247,-66028,-60174
653329153996749654,-37338,-66000,-60290
653329154004184349,-37452,-65960,-60255
653329154011619044,-37494,-65944,-60323
653329154019053739,-37492,-66044,-60416
653329154026488434,-37474,-66062,-60279
653329154033923129,-37378,-66054,-60212
653329154041357824,-37500,-66185,-60285
653329154048792521,-37230,-66144,-60476
653329154056227216,-37485,-66295,-60467
653329154063661911,-37515,-66247,-60432
653329154071096606,-37489,-65054,-59177
653329154078531301,-37610,-65882,-59831
653329154085965996,-37667,-65972,-60277
653329154093400691,-37584,-66139,-60339
653329154100835386,-36486,-65070,-59189
653329154108270081,-37243,-65870,-59998
653329154115704776,-37492,-66151,-60183
653329154123139471,-37732,-66201,-60408
653329154130574166,-37074,-66261,-60545
653329154138008861,-37432,-66362,-60617
653329154145443556,-37674,-66470,-60647
653329154152878251,-37749,-66404,-60686
653329154160312946,-37998,-66427,-60788
653329154167747641,-38052,-66363,-60793
653329154175182336,-38025,-66311,-60739
653329154182555136,-37911,-66487,-60986
653329154189993472,-37905,-66468,-60844
653329154197431808,-37978,-66481,-60729
653329154204870144,-38089,-66555,-60688
653329154212308480,-38094,-66589,-60750
653329154219746816,-38128,-66422,-60577
653329154227185152,-38137,-66510,-60620
653329154234623488,-38088,-66573,-60677
653329154242061824,-38108,-66540,-60687
653329154249500160,-37975,-66551,-60462
653329154256938496,-37988,-66608,-60526
653329154264376832,-37993,-66581,-60490
653329154271815168,-38021,-66512,-60456
653329154279253504,-38030,-66488,-60552
653329154286691840,-38155,-66525,-60680
653329154294130176,-38229,-66434,-60695
653329154301568512,-38156,-66414,-60749
653329154309006848,-38181,-66436,-60740
653329154316507081,-37861,-66695,-60852
653329154323941776,-38039,-66567,-60802
653329154331376471,-38207,-66498,-60731
653329154338811166,-38260,-66568,-60899
653329154346245861,-38190,-66649,-60890
653329154353680556,-38211,-66547,-60931
653329154361115251,-38246,-66593,-60896
653329154368549946,-38438,-66651,-61023
653329154375984641,-38449,-66641,-61080
653329154383419336,-38486,-66792,-61065
653329154390854031,-38609,-65661,-59866
653329154398288726,-38630,-66421,-60714
653329154405723421,-38774,-66848,-61133
653329154413158116,-38800,-67029,-61285
653329154420592811,-37737,-65879,-60210
653329154428027506,-38466,-66718,-61019
653329154435462201,-38747,-67043,-61416
653329154442896896,-39038,-67303,-61647
653329154450393490,-38466,-67520,-61875
653329154457824544,-38950,-67611,-61886
653329154465255598,-39117,-67604,-61943
653329154472686652,-39371,-67747,-62034
653329154480117706,-39690,-68011,-62131
653329154487548760,-39784,-68088,-62277
653329154494979814,-39818,-68061,-62225
653329154502410868,-39897,-68050,-62401
653329154509841922,-39987,-68069,-62464
653329154517272976,-40024,-68282,-62462
653329154524704030,-40037,-68242,-62607
653329154532135084,-40130,-68318,-62615
653329154539566138,-40281,-68140,-62578
653329154546997192,-40346,-68380,-62656
653329154554428246,-40232,-68455,-62671
653329154561859300,-40394,-68598,-62931
653329154569290354,-40321,-68429,-62755
653329154576721408,-40524,-68580,-62967
653329154584028672,-40715,-68747,-62710
653329154591467008,-40757,-68840,-62957
653329154598905344,-40758,-68857,-63132
653329154606343680,-40719,-68773,-63164
653329154613782016,-40715,-68834,-63156
653329154621220352,-40891,-68888,-63153
653329154628658688,-40876,-68974,-63283
653329154636097024,-40955,-68941,-63171
653329154643535360,-40907,-68820,-63041
653329154650973696,-40855,-68916,-63094
653329154658412032,-40826,-68826,-63137
653329154665850368,-40809,-69009,-63077
653329154673288704,-40731,-68886,-62985
653329154680727040,-40710,-68895,-63026
653329154688165376,-40795,-68874,-63162
653329154695603712,-40736,-68865,-63015
653329154703042048,-40683,-68874,-62990
653329154710480384,-40677,-67489,-61720
653329154717980617,-40776,-68277,-62112
653329154725415312,-40660,-68494,-62527
653329154732850007,-40577,-68551,-62634
653329154740284702,-39303,-67430,-61386
653329154747719397,-39947,-68145,-62180
653329154755154092,-40272,-68409,-62471
653329154762588787,-40391,-68541,-62593
653329154770023482,-39214,-68655,-62705
653329154777458177,-39870,-68838,-62702
653329154784892872,-40274,-68668,-62623
653329154792327567,-40362,-68667,-62758
653329154799762262,-40359,-68591,-62726
653329154807196957,-40458,-68637,-62734
653329154814631652,-40381,-68634,-62656
653329154822066347,-40330,-68647,-62612
653329154829501042,-40378,-68603,-62623
653329154836935737,-40383,-68623,-62628
653329154844370432,-40399,-68581,-62566
653329154851743232,-40509,-68347,-62392
653329154859181568,-40572,-68434,-62490
653329154866619904,-40448,-68496,-62715
653329154874058240,-40410,-68631,-62694
653329154881496576,-40426,-68645,-62770
653329154888934912,-40245,-68599,-62612
653329154896373248,-40444,-68611,-62815
653329154903811584,-40620,-68688,-62920
653329154911249920,-40638,-68739,-63015
653329154918688256,-40565,-68827,-62964
653329154926126592,-40663,-68853,-63111
653329154933564928,-40631,-68893,-63224
653329154941003264,-40771,-68941,-63324
653329154948441600,-40909,-68987,-63328
653329154955879936,-40887,-69029,-63285
653329154963318272,-40955,-69033,-63395
653329154970756608,-41103,-69138,-63352
653329154978194944,-41243,-69141,-63366
653329154985757074,-41299,-68893,-63204
653329154993188128,-41197,-68976,-63383
653329155000619182,-41235,-69136,-63501
653329155008050236,-41186,-69219,-63540
653329155015481290,-41366,-69306,-63692
653329155022912344,-41345,-69248,-63563
653329155030343398,-41449,-67957,-62223
653329155037774452,-41471,-68629,-62994
653329155045205506,-41320,-68935,-63195
653329155052636560,-41249,-69084,-63220
653329155060067614,-39921,-67811,-62104
653329155067498668,-40641,-68697,-62698
653329155074929722,-40772,-68850,-62871
653329155082360776,-40882,-68852,-62925
653329155089791830,-39637,-68992,-63008
653329155097222884,-40344,-68972,-62884
653329155104653938,-40562,-68789,-62765
653329155112084992,-40732,-68758,-62760
653329155119392256,-40852,-68664,-62935
653329155126830592,-40595,-68586,-62698
653329155134268928,-40456,-68574,-62595
653329155141707264,-40538,-68541,-62487
653329155149145600,-40431,-68532,-62473
653329155156583936,-40261,-68401,-62304
653329155164022272,-40251,-68440,-62273
653329155171460608,-40152,-68443,-61949
653329155178898944,-40254,-68277,-61889
653329155186337280,-40112,-68256,-61735
653329155193775616,-39991,-68160,-61767
653329155201213952,-39807,-68136,-61674
653329155208652288,-39609,-68029,-61595
653329155216090624,-39727,-67930,-61696
653329155223528960,-39704,-67917,-61613
653329155230967296,-39781,-68037,-61633
653329155238405632,-39642,-68033,-61695
653329155245843968,-39500,-68074,-61612
653329155253344201,-39335,-67980,-61610
653329155260778896,-39445,-67907,-61644
653329155268213591,-39516,-67790,-61622
653329155275648286,-39559,-67861,-61599
653329155283082981,-39508,-67695,-61590
653329155290517676,-39656,-67889,-61701
653329155297952371,-39701,-67839,-61739
653329155305387066,-39700,-67914,-61747
653329155312821761,-39919,-67923,-61817
653329155320256456,-39805,-68096,-61914
653329155327691151,-39898,-68140,-61984
653329155335125846,-39873,-68022,-61974
653329155342560541,-39895,-68128,-62077
653329155349995236,-40154,-66943,-60929
653329155357429931,-40082,-67722,-61789
653329155364864626,-40297,-68143,-62148
653329155372299321,-40359,-68365,-62421
653329155379734016,-39217,-67227,-61240
653329155387106816,-39973,-68363,-61945
653329155394545152,-40577,-68861,-62494
653329155401983488,-40964,-68859,-62874
653329155409421824,-39896,-69116,-63057
653329155416860160,-40731,-69129,-63287
653329155424298496,-41171,-69271,-63580
653329155431736832,-41587,-69398,-63649
653329155439175168,-41672,-69654,-63887
653329155446613504,-41836,-69639,-63892
653329155454051840,-42060,-69715,-63958
653329155461490176,-42087,-69857,-64162
653329155468928512,-42312,-70012,-64215
653329155476366848,-42330,-70024,-64291
653329155483805184,-42364,-70106,-64474
653329155491243520,-42452,-70160,-64599
653329155498681856,-42528,-70092,-64443
653329155506120192,-42614,-70334,-64574
653329155513558528,-42701,-70378,-64721
653329155521058761,-43030,-70569,-65004
653329155528493456,-42831,-70441,-64832
653329155535928151,-43006,-70537,-65075
653329155543362846,-43076,-70714,-65191
653329155550797541,-43201,-70790,-65305
653329155558232236,-43317,-70973,-65210
653329155565666931,-43342,-71073,-65212
653329155573101626,-43267,-71004,-65387
653329155580536321,-43359,-71062,-65326
653329155587971016,-43566,-71122,-65633
653329155595405711,-43592,-71162,-65585
653329155602840406,-43746,-71160,-65736
653329155610275101,-43846,-71322,-65927
653329155617709796,-43773,-71394,-65870
653329155625144491,-43823,-71482,-65861
653329155632579186,-43862,-71480,-65936
653329155640013881,-43947,-71525,-65995
653329155647448576,-43914,-71669,-66019
653329155654945170,-44177,-71821,-65864
653329155662376224,-44182,-71909,-66037
653329155669807278,-44278,-70614,-64897
653329155677238332,-44253,-71263,-65745
653329155684669386,-44310,-71556,-66059
653329155692100440,-44468,-71782,-66301
653329155699531494,-43220,-70632,-65204
653329155706962548,-43877,-71362,-65996
653329155714393602,-44172,-71733,-66234
653329155721824656,-44379,-71976,-66421
653329155729255710,-43257,-71977,-66671
653329155736686764,-43956,-72054,-66725
653329155744117818,-44338,-72052,-66783
653329155751548872,-44593,-72163,-66865
653329155758979926,-44691,-72352,-66848
653329155766410980,-44850,-72299,-66914
653329155773842034,-44826,-72250,-66914
653329155781273088,-44981,-72457,-67047
653329155788580352,-44974,-72715,-66804
653329155796018688,-45076,-72696,-67025
653329155803457024,-45152,-72552,-67201
653329155810895360,-45164,-72560,-67271
653329155818333696,-45180,-72468,-67202
653329155825772032,-45317,-72587,-67428
653329155833210368,-45204,-72622,-67416
653329155840648704,-45380,-72613,-67504
653329155848087040,-45269,-72595,-67360
653329155855525376,-45412,-72668,-67627
653329155862963712,-45404,-72752,-67580
653329155870402048,-45501,-72767,-67545
653329155877840384,-45485,-72834,-67745
653329155885278720,-45568,-72839,-67644
653329155892717056,-45505,-72869,-67710
653329155900155392,-45684,-72983,-67820
653329155907593728,-45770,-72908,-67783
653329155915032064,-45829,-72936,-67851
653329155922532297,-45545,-72789,-67667
653329155929966992,-45748,-72959,-67814
653329155937401687,-45811,-72932,-67897
653329155944836382,-45842,-73074,-67976
653329155952271077,-45846,-73177,-68032
653329155959705772,-45828,-73211,-68079
653329155967140467,-45967,-73184,-68162
653329155974575162,-45915,-73254,-68048
653329155982009857,-45964,-73250,-68151
653329155989444552,-46157,-71967,-66856
653329155996879247,-46202,-72676,-67627
653329156004313942,-46170,-72930,-67955
653329156011748637,-46073,-73161,-68147
653329156019183332,-44848,-71974,-66956
653329156026618027,-45535,-72791,-67585
653329156034052722,-45850,-73059,-67918
653329156041487417,-45946,-73127,-68088
653329156048922112,-44853,-73258,-68187
653329156056294912,-45812,-73511,-68288
653329156063733248,-46254,-73413,-68350
653329156071171584,-46335,-73355,-68340
653329156078609920,-46444,-73400,-68366
653329156086048256,-46313,-73442,-68406
653329156093486592,-46364,-73451,-68557
653329156100924928,-46397,-73415,-68477
653329156108363264,-46444,-73567,-68533
653329156115801600,-46406,-73493,-68560
653329156123239936,-46474,-73475,-68606
653329156130678272,-46523,-73565,-68704
653329156138116608,-46541,-73376,-68505
653329156145554944,-46485,-73394,-68548
653329156152993280,-46551,-73413,-68570
653329156160431616,-46459,-73498,-68531
653329156167869952,-46363,-73318,-68445
653329156175308288,-46391,-73320,-68496
653329156182746624,-46477,-73366,-68555
653329156190246857,-46757,-73504,-68312
653329156197681552,-46522,-73522,-68511
653329156205116247,-46487,-73482,-68589
653329156212550942,-46607,-73484,-68601
653329156219985637,-46713,-73470,-68683
653329156227420332,-46673,-73636,-68615
653329156234855027,-46655,-73547,-68735
653329156242289722,-46494,-73599,-68694
653329156249724417,-46625,-73521,-68731
653329156257159112,-46534,-73414,-68722
653329156264593807,-46609,-73440,-68778
653329156272028502,-46606,-73458,-68740
653329156279463197,-46744,-73542,-68919
653329156286897892,-46568,-73583,-68813
653329156294332587,-46567,-73612,-68794
653329156301767282,-46596,-73670,-68710
653329156309201977,-46649,-72301,-68160
653329156316636672,-46700,-73062,-68596
653329156324009472,-46432,-73202,-68833
653329156331447808,-46579,-73403,-68875
653329156338886144,-45489,-72401,-67546
653329156346324480,-46182,-73230,-68387
653329156353762816,-46417,-73400,-68691
653329156361201152,-46708,-73496,-68878
653329156368639488,-45551,-73644,-68995
653329156376077824,-46364,-73815,-69058
653329156383516160,-46737,-73827,-69066
653329156390954496,-46885,-74011,-69148
653329156398392832,-47099,-74115,-69318
653329156405831168,-47177,-74030,-69396
653329156413269504,-47197,-74026,-69419
653329156420707840,-47280,-74077,-69469
653329156428146176,-47556,-74201,-69574
653329156435584512,-47537,-74380,-69554
653329156443022848,-47496,-74447,-69695
653329156450461184,-47675,-74403,-69857
653329156458023314,-47723,-74563,-69506
653329156465454368,-47758,-74652,-69780
653329156472885422,-47937,-74666,-69929
653329156480316476,-47992,-74669,-70016
653329156487747530,-47931,-74560,-69826
653329156495178584,-47912,-74819,-70161
653329156502609638,-48047,-74797,-70296
653329156510040692,-48130,-74871,-70400
653329156517471746,-48012,-75045,-70340
653329156524902800,-48182,-75031,-70389
653329156532333854,-48370,-75031,-70543
653329156539764908,-48470,-75169,-70570
653329156547195962,-48394,-75245,-70626
653329156554627016,-48491,-75225,-70602
653329156562058070,-48536,-75363,-70788
653329156569489124,-48568,-75357,-70875
653329156576920178,-48546,-75308,-70858
653329156584351232,-48692,-75354,-70855
653329156591596616,-48844,-75211,-71020
653329156599038592,-48854,-75466,-71085
653329156606480568,-48934,-75460,-70997
653329156613922544,-48978,-75567,-71168
653329156621364520,-49015,-75546,-71134
653329156628806496,-49067,-74355,-71045
653329156636248472,-49018,-75122,-71178
653329156643690448,-49068,-75446,-71279
653329156651132424,-49112,-75538,-71309
653329156658574400,-48042,-74405,-70053
653329156666016376,-48651,-75221,-70831
653329156673458352,-48904,-75533,-71063
653329156680900328,-49100,-75716,-71303
653329156688342304,-47926,-75766,-71424
653329156695784280,-48747,-75836,-71552
653329156703226256,-49139,-75943,-71632
653329156710668232,-49219,-75995,-71614
653329156718110208,-49387,-76137,-71675
653329156725737874,-49134,-76024,-71682
653329156733168928,-49183,-76084,-71714
653329156740599982,-49315,-76195,-71838
653329156748031036,-49421,-76089,-71735
653329156755462090,-49465,-76065,-71824
653329156762893144,-49533,-76104,-71833
653329156770324198,-49626,-76232,-71825
653329156777755252,-49618,-75983,-71705
653329156785186306,-49595,-76167,-71730
653329156792617360,-49608,-76180,-71825
653329156800048414,-49712,-76222,-71921
653329156807479468,-49620,-76102,-71764
653329156814910522,-49676,-76123,-71919
653329156822341576,-49647,-76172,-71956
653329156829772630,-49707,-76244,-72067
653329156837203684,-49605,-76266,-72003
653329156844634738,-49781,-76263,-72182
653329156852065792,-49736,-76330,-72102
653329156859311176,-50067,-76285,-72156
653329156866753152,-49940,-76306,-72047
653329156874195128,-49937,-76294,-72155
653329156881637104,-49937,-76360,-72242
653329156889079080,-49930,-76447,-72362
653329156896521056,-49907,-76608,-72218
653329156903963032,-49906,-76420,-72232
653329156911405008,-49928,-76336,-72246
653329156918846984,-50049,-76430,-72380
653329156926288960,-49985,-76522,-72411
653329156933730936,-49920,-76449,-72335
653329156941172912,-50084,-76558,-72344
653329156948614888,-50093,-75667,-72385
653329156956056864,-50102,-76247,-72395
653329156963498840,-49985,-76367,-72330
653329156970940816,-50146,-76483,-72373
653329156978382792,-48862,-75326,-71068
653329156985824768,-49548,-75928,-71761
653329156993452434,-49769,-76451,-72144
653329157000883488,-49937,-76603,-72400
653329157008314542,-48805,-76596,-71644
653329157015745596,-49626,-76524,-72062
653329157023176650,-49894,-76579,-72288
653329157030607704,-50088,-76566,-72363
653329157038038758,-50196,-76600,-72438
653329157045469812,-50214,-76535,-72464
653329157052900866,-50191,-76661,-72380
653329157060331920,-50162,-76753,-72497
653329157067762974,-50202,-76649,-72552
653329157075194028,-50111,-76625,-72504
653329157082625082,-50178,-76508,-72477
653329157090056136,-50256,-76661,-72433
653329157097487190,-50305,-76492,-72521
653329157104918244,-50200,-76542,-72475
653329157112349298,-50100,-76499,-72600
653329157119780352,-50135,-76536,-72548
653329157127211410,-49974,-76349,-72475
653329157134642464,-50197,-76548,-72543
653329157142073518,-50022,-76585,-72611
653329157149504572,-50125,-76587,-72583
653329157156935626,-49936,-76477,-72474
653329157164366680,-50060,-76463,-72486
653329157171797734,-50237,-76486,-72498
653329157179228788,-50210,-76494,-72552
653329157186659842,-50163,-76389,-72443
653329157194090896,-50241,-76418,-72322
653329157201521950,-50305,-76444,-72567
653329157208953004,-50311,-76540,-72623
653329157216384058,-50142,-76489,-72539
653329157223815112,-50231,-76504,-72484
653329157231246166,-50204,-76509,-72474
653329157238677220,-50211,-76380,-72440
653329157246108274,-50290,-76358,-72405
653329157253539328,-50204,-76286,-72442
653329157260784712,-50038,-76321,-72578
653329157268226688,-50172,-76252,-72476
653329157275668664,-50222,-76348,-72444
653329157283110640,-50172,-76281,-72413
653329157290552616,-50038,-76457,-72302
653329157297994592,-48785,-75144,-71142
653329157305436568,-49440,-75813,-71907
653329157312878544,-49850,-76147,-72016
653329157320320520,-50110,-76256,-72225
653329157327762496,-49014,-76324,-71116
653329157335204472,-49656,-76403,-71923
653329157342646448,-49903,-76317,-72173
653329157350088424,-50019,-76398,-72314
653329157357530400,-50171,-76391,-72536
653329157364972376,-50204,-76423,-72548
653329157372414352,-50267,-76478,-72446
653329157379856328,-50317,-76480,-72621
653329157387298304,-50444,-76842,-72645
653329157394925970,-50504,-76918,-72412
653329157402357024,-50557,-76939,-72744
653329157409788078,-50551,-76869,-72868
653329157417219132,-50688,-76686,-72962
653329157424650186,-50800,-76915,-72903
653329157432081240,-50773,-76996,-72982
653329157439512294,-50826,-76985,-73030
653329157446943348,-50597,-76866,-72934
653329157454374402,-50768,-76939,-73103
653329157461805456,-50794,-76978,-73163
653329157469236510,-50918,-77089,-73214
653329157476667564,-50760,-77106,-73306
653329157484098618,-50975,-77099,-73444
653329157491529672,-51039,-77221,-73355
653329157498960726,-51192,-77259,-73482
653329157506391780,-51162,-77332,-73504
653329157513822834,-51109,-77426,-73491
653329157521253888,-51153,-77323,-73505
653329157528499272,-51463,-77546,-73685
653329157535941248,-51294,-77478,-73564
653329157543383224,-51348,-77477,-73649
653329157550825200,-51242,-77475,-73724
653329157558267176,-51253,-77555,-73808
653329157565709152,-51277,-77577,-73773
653329157573151128,-51433,-77565,-73787
653329157580593104,-51460,-77580,-73857
653329157588035080,-51420,-77608,-73819
653329157595477056,-51538,-77615,-73708
653329157602919032,-51533,-77654,-73728
653329157610361008,-51518,-77696,-73783
653329157617802984,-50473,-76439,-72652
653329157625244960,-50999,-77060,-73295
653329157632686936,-51297,-77467,-73565
653329157640128912,-51490,-77643,-73752
653329157647570888,-50261,-77679,-72547
653329157655012864,-51028,-77609,-73265
653329157662640530,-51452,-77689,-73398
653329157670071584,-51651,-77698,-73693
653329157677502638,-51810,-77898,-73886
653329157684933692,-51620,-77828,-73847
653329157692364746,-51544,-77690,-73942
653329157699795800,-51578,-77724,-73995
653329157707226854,-51689,-77769,-74114
653329157714657908,-51641,-77809,-74047
653329157722088962,-51831,-77770,-73986
653329157729520016,-51800,-77854,-74022
653329157736951070,-51783,-77657,-74093
653329157744382124,-51780,-77802,-74080
653329157751813178,-51757,-77792,-74185
653329157759244232,-51863,-77945,-74196
653329157766675286,-51704,-77697,-73926
653329157774106340,-51679,-77777,-73935
653329157781537394,-51721,-77817,-74032
653329157788968448,-51984,-77982,-74086
653329157796275712,-51832,-77685,-74099
653329157803714048,-51767,-77724,-74011
653329157811152384,-51868,-77803,-73966
653329157818590720,-51900,-77774,-74054
653329157826029056,-51895,-77711,-74007
653329157833467392,-51880,-77749,-74011
653329157840905728,-51874,-77810,-74152
653329157848344064,-51858,-78036,-74109
653329157855782400,-51947,-77936,-74028
653329157863220736,-51916,-77803,-74118
653329157870659072,-51933,-77879,-74083
653329157878097408,-51750,-77803,-74125
653329157885535744,-51675,-77790,-74074
653329157892974080,-51708,-77856,-74114
653329157900412416,-51736,-77810,-74122
653329157907850752,-51777,-77884,-74096
653329157915289088,-51763,-77902,-74150
653329157922727424,-51708,-77830,-74057
653329157930165760,-52055,-77961,-73912
653329157937604096,-51422,-76664,-72673
653329157945042432,-51536,-77239,-73427
653329157952480768,-51640,-77501,-73734
653329157959919104,-51753,-77674,-73997
653329157967357440,-50367,-77508,-72670
653329157974795776,-51108,-77621,-73412
653329157982234112,-51434,-77542,-73798
653329157989672448,-51557,-77745,-73943
653329157997110784,-51638,-77802,-73874
653329158004549120,-51565,-77729,-73851
653329158011987456,-51532,-77786,-73807
653329158019425792,-51618,-77866,-73823
653329158026864128,-51543,-77615,-73813
653329158034302464,-51614,-77580,-73764
653329158041740800,-51567,-77669,-73800
653329158049179136,-51635,-77790,-73789
653329158056617472,-51659,-77679,-73816
653329158064117705,-51657,-77624,-73796
653329158071552400,-51647,-77638,-73739
653329158078987095,-51585,-77517,-73811
653329158086421790,-51415,-77359,-73656
653329158093856485,-51567,-77433,-73718
653329158101291180,-51596,-77554,-73774
653329158108725875,-51655,-77632,-73730
653329158116160570,-51453,-77625,-73664
653329158123595265,-51443,-77440,-73783
653329158131029960,-51483,-77612,-73823
653329158138464655,-51591,-77473,-73862
653329158145899350,-51585,-77449,-73691
653329158153334045,-51471,-77445,-73661
653329158160768740,-51470,-77473,-73713
653329158168203435,-51417,-77488,-73631
653329158175638130,-51448,-77391,-73785
653329158183072825,-51375,-77379,-73714
653329158190507520,-51405,-77389,-73702
653329158197880320,-51260,-77287,-73667
653329158205318656,-51236,-77213,-73435
653329158212756992,-51228,-77301,-73343
653329158220195328,-51265,-77410,-73500
653329158227633664,-51366,-77441,-73458
6.53329E+17,-51333,-77286,-73303
653329158242510336,-51218,-77208,-73372
653329158249948672,-51256,-77180,-73432
653329158257387008,-51011,-75823,-72161
653329158264825344,-51081,-76690,-72792
653329158272263680,-51243,-76880,-73147
653329158279702016,-51237,-77138,-73363
653329158287140352,-50021,-76780,-72132
653329158294578688,-50693,-76941,-72894
653329158302017024,-50985,-77145,-73205
653329158309455360,-51317,-77227,-73280
653329158316893696,-51315,-77195,-73437
653329158324332032,-51405,-77235,-73509
653329158331832265,-51264,-77032,-73434
653329158339266960,-51336,-77287,-73572
653329158346701655,-51381,-77403,-73710
653329158354136350,-51356,-77375,-73599
653329158361571045,-51437,-77393,-73750
653329158369005740,-51619,-77583,-73620
653329158376440435,-51642,-77487,-73652
653329158383875130,-51668,-77574,-73645
653329158391309825,-51760,-77537,-73716
653329158398744520,-51770,-77748,-73768
653329158406179215,-51578,-77486,-73714
653329158413613910,-51658,-77690,-73762
653329158421048605,-51641,-77710,-73943
653329158428483300,-51809,-77747,-74044
653329158435917995,-51645,-77823,-73925
653329158443352690,-51777,-77865,-73982
653329158450787385,-51975,-77831,-74117
653329158458222080,-52030,-77898,-74208
653329158465718674,-51924,-78024,-73999
653329158473149728,-51955,-77825,-74101
653329158480580782,-52049,-77955,-74128
653329158488011836,-52209,-78013,-74270
653329158495442890,-52265,-78026,-74248
653329158502873944,-52313,-78117,-74412
653329158510304998,-52272,-78121,-74386
653329158517736052,-52330,-78243,-74460
653329158525167106,-52326,-78268,-74432
653329158532598160,-52422,-78169,-74498
653329158540029214,-52404,-78155,-74567
653329158547460268,-52465,-78234,-74522
653329158554891322,-52389,-78258,-74507
653329158562322376,-52265,-78181,-74451
653329158569753430,-52261,-78295,-74515
653329158577184484,-52154,-77017,-73272
653329158584615538,-52229,-77699,-73983
653329158592046592,-52354,-78094,-74181
653329158599291976,-52227,-78292,-74506
653329158606733952,-51145,-77840,-73378
653329158614175928,-51824,-78124,-74139
653329158621617904,-52216,-78230,-74367
653329158629059880,-52309,-78309,-74602
653329158636501856,-52446,-78281,-74655
653329158643943832,-52518,-78363,-74714
653329158651385808,-52558,-78327,-74635
653329158658827784,-52756,-78407,-74781
653329158666269760,-52634,-78321,-74785
653329158673711736,-52524,-78356,-74698
653329158681153712,-52657,-78475,-74802
653329158688595688,-52749,-78428,-74756
653329158696037664,-52661,-78402,-74723
653329158703479640,-52624,-78333,-74755
653329158710921616,-52710,-78388,-74774
653329158718363592,-52780,-78484,-74791
653329158725805568,-52521,-78329,-74574
653329158733433234,-52770,-78133,-74774
653329158740864288,-52789,-78279,-74868
653329158748295342,-52778,-78414,-74967
653329158755726396,-52455,-78317,-74731
653329158763157450,-52632,-78383,-74802
653329158770588504,-52761,-78482,-74907
653329158778019558,-52734,-78534,-74989
653329158785450612,-52863,-78431,-74781
653329158792881666,-52745,-78452,-74788
653329158800312720,-52799,-78538,-74896
653329158807743774,-52790,-78516,-74897
653329158815174828,-52750,-78611,-74911
653329158822605882,-52814,-78553,-74879
653329158830036936,-52856,-78565,-74912
653329158837467990,-52848,-78454,-74982
653329158844899044,-52728,-78491,-74891
653329158852330098,-52809,-78410,-74909
653329158859761152,-52722,-78408,-74987
653329158867130313,-52751,-78569,-75224
653329158874565008,-52782,-78390,-74924
653329158881999703,-52715,-78368,-74915
653329158889434398,-52791,-78478,-74945
653329158896869093,-52714,-77142,-73656
653329158904303788,-52654,-77767,-74259
653329158911738483,-52736,-78104,-74673
653329158919173178,-52728,-78226,-74677
653329158926607873,-51467,-77319,-73453
653329158934042568,-52190,-77902,-74262
653329158941477263,-52443,-78192,-74571
653329158948911958,-52610,-78288,-74700
653329158956346653,-52602,-78382,-74677
653329158963781348,-52718,-78340,-74678
653329158971216043,-52688,-78307,-74806
653329158978650738,-52735,-78265,-74879
653329158986085433,-52631,-78246,-74783
653329158993520128,-52552,-78243,-74702
653329159000892928,-52650,-78142,-74979
653329159008331264,-52898,-78240,-74842
653329159015769600,-52838,-78378,-74664
653329159023207936,-52626,-78319,-74665
653329159030646272,-52641,-78357,-74637
653329159038084608,-52572,-78259,-74655
653329159045522944,-52446,-78098,-74487
653329159052961280,-52542,-78167,-74481
653329159060399616,-52572,-78122,-74644
653329159067837952,-52645,-78212,-74722
653329159075276288,-52466,-78226,-74550
653329159082714624,-52535,-78135,-74578
653329159090152960,-52676,-78145,-74635
653329159097591296,-52696,-78168,-74543
653329159105029632,-52466,-78166,-74549
653329159112467968,-52393,-77980,-74437
653329159119906304,-52539,-78048,-74556
653329159127344640,-52495,-78020,-74526
653329159134844873,-52582,-78044,-74247
653329159142279568,-52579,-78067,-74422
653329159149714263,-52557,-78067,-74499
653329159157148958,-52523,-78129,-74402
653329159164583653,-52436,-77990,-74464
653329159172018348,-52467,-78090,-74451
653329159179453043,-52478,-78082,-74466
653329159186887738,-52507,-78008,-74407
653329159194322433,-52431,-77891,-74475
653329159201757128,-52353,-77959,-74447
653329159209191823,-52299,-77819,-74393
653329159216626518,-52268,-76481,-73074
653329159224061213,-52249,-77187,-73775
653329159231495908,-52292,-77433,-73978
653329159238930603,-52330,-77680,-74226
653329159246365298,-51021,-76644,-73039
653329159253799993,-51732,-77290,-73737
653329159261234688,-51988,-77468,-74006
653329159268607488,-52278,-78023,-74317
653329159276045824,-51596,-77820,-74244
653329159283484160,-52034,-77783,-74236
653329159290922496,-52102,-77761,-74215
653329159298360832,-52206,-77952,-74307
653329159305799168,-52206,-77833,-74283
653329159313237504,-52203,-77825,-74362
653329159320675840,-52356,-78032,-74383
653329159328114176,-52354,-77872,-74442
653329159335552512,-52462,-77834,-74337
653329159342990848,-52521,-77848,-74404
653329159350429184,-52453,-77950,-74512
653329159357867520,-52524,-78074,-74624
653329159365305856,-52526,-77843,-74378
653329159372744192,-52543,-77933,-74435
653329159380182528,-52625,-78106,-74625
653329159387620864,-52788,-78192,-74717
653329159395059200,-52665,-78272,-74488
653329159402559433,-52484,-78428,-74744
653329159409994128,-52646,-78381,-74744
653329159417428823,-52873,-78346,-74865
653329159424863518,-52841,-78420,-74878
653329159432298213,-52925,-78500,-74928
653329159439732908,-52938,-78481,-75078
653329159447167603,-53121,-78529,-75132
653329159454602298,-53051,-78695,-75153
653329159462036993,-53038,-78641,-75228
653329159469471688,-53119,-78736,-75169
653329159476906383,-53169,-78800,-75125
653329159484341078,-53239,-78729,-75237
653329159491775773,-53209,-78651,-75299
653329159499210468,-53286,-78805,-75348
653329159506645163,-53389,-78820,-75368
653329159514079858,-53345,-78761,-75355
653329159521514553,-53345,-78869,-75284
653329159528949248,-53461,-78877,-75398
653329159536383945,-53379,-77248,-74125
653329159543818640,-53314,-78136,-74941
653329159551253335,-53320,-78545,-75246
653329159558688030,-53426,-78862,-75488
653329159566122725,-52206,-77686,-74217
653329159573557420,-52971,-78416,-74798
653329159580992115,-53355,-78722,-75354
653329159588426810,-53433,-78905,-75472
653329159595861505,-52237,-78846,-75550
653329159603296200,-52877,-79002,-75510
653329159610730895,-53298,-78939,-75541
653329159618165590,-53559,-78996,-75714
653329159625600285,-53552,-79067,-75699
653329159633034980,-53548,-79002,-75736
653329159640469675,-53522,-78973,-75688
653329159647904370,-53584,-78989,-75687
653329159655339065,-53587,-79005,-75647
653329159662773760,-53566,-78996,-75665
653329159670146560,-53362,-78646,-75561
653329159677584896,-53484,-78858,-75608
653329159685023232,-53594,-78822,-75521
653329159692461568,-53787,-78872,-75646
653329159699899904,-53827,-79008,-75692
653329159707338240,-53699,-78989,-75741
653329159714776576,-53614,-78791,-75562
653329159722214912,-53606,-78958,-75678
653329159729653248,-53678,-79036,-75797
653329159737091584,-53755,-79053,-75732
653329159744529920,-53513,-79022,-75658
653329159751968256,-53685,-78955,-75716
653329159759406592,-53700,-79004,-75863
653329159766844928,-53784,-79049,-75833
653329159774283264,-53704,-79130,-75797
653329159781721600,-53601,-79006,-75699
653329159789159936,-53593,-79042,-75743
653329159796598272,-53683,-78969,-75830
653329159804160402,-53465,-79244,-75951
653329159811591456,-53690,-79009,-75846
653329159819022510,-53690,-79113,-75796
653329159826453564,-53688,-79014,-75747
653329159833884618,-53797,-78991,-75739
653329159841315672,-53799,-78955,-75614
653329159848746726,-53725,-78962,-75670
653329159856177780,-53641,-77592,-75316
653329159863608834,-53565,-78497,-75478
653329159871039888,-53623,-78638,-75643
653329159878470942,-53628,-78787,-75735
653329159885901996,-52267,-77494,-74421
653329159893333050,-53000,-78184,-75155
653329159900764104,-53551,-78583,-75536
653329159908195158,-53726,-78810,-75794
653329159915626212,-52385,-78928,-75712
653329159923057266,-53051,-78964,-75638
653329159930488320,-53533,-78875,-75772
653329159937733704,-53592,-78844,-75860
653329159945175680,-53484,-78880,-75615
653329159952617656,-53582,-78895,-75643
653329159960059632,-53532,-78822,-75547
653329159967501608,-53675,-78823,-75596
653329159974943584,-53728,-78815,-75612
653329159982385560,-53609,-78757,-75549
653329159989827536,-53573,-78717,-75707
653329159997269512,-53551,-78742,-75668
653329160004711488,-53466,-78695,-75419
653329160012153464,-53500,-78605,-75472
653329160019595440,-53554,-78671,-75568
653329160027037416,-53522,-78634,-75656
653329160034479392,-53286,-78423,-75400
653329160041921368,-53325,-78703,-75355
653329160049363344,-53452,-78593,-75506
653329160056805320,-53565,-78658,-75576
653329160064247296,-53200,-78823,-75261
653329160071813065,-53048,-78630,-75174
653329160079247760,-53329,-78647,-75308
653329160086682455,-53325,-78510,-75420
653329160094117150,-53382,-78446,-75357
653329160101551845,-53496,-78504,-75416
653329160108986540,-53467,-78613,-75357
653329160116421235,-53410,-78648,-75491
653329160123855930,-53345,-78605,-75324
653329160131290625,-53222,-78544,-75361
653329160138725320,-53211,-78561,-75342
653329160146160015,-53410,-78435,-75397
653329160153594710,-53270,-78447,-75393
653329160161029405,-53263,-78544,-75323
653329160168464100,-53269,-78480,-75256
653329160175898795,-53246,-77851,-75212
653329160183333490,-53320,-78092,-75361
653329160190768185,-53227,-78198,-75222
653329160198202880,-53289,-78277,-75259
653329160205637577,-51742,-76927,-74051
653329160213072272,-52524,-77728,-74737
653329160220506967,-52859,-77978,-75034
653329160227941662,-53031,-78217,-75233
653329160235376357,-51870,-78244,-73866
653329160242811052,-52502,-78274,-74562
653329160250245747,-52856,-78359,-74965
653329160257680442,-53033,-78195,-75115
653329160265115137,-52931,-78127,-75200
653329160272549832,-53014,-78160,-75130
653329160279984527,-53088,-78264,-75118
653329160287419222,-53155,-78252,-75137
653329160294853917,-53182,-78227,-75242
653329160302288612,-53182,-78225,-75262
653329160309723307,-53139,-78328,-75203
653329160317158002,-53162,-78405,-75237
653329160324592697,-53124,-78368,-75168
653329160332027392,-53158,-78354,-75173
653329160339462089,-53024,-78159,-75375
653329160346896784,-53235,-78278,-75374
653329160354331479,-53108,-78202,-75174
653329160361766174,-53200,-78361,-75136
653329160369200869,-53386,-78552,-75330
653329160376635564,-53550,-78662,-75353
653329160384070259,-53378,-78596,-75425
653329160391504954,-53359,-78556,-75409
653329160398939649,-53443,-78692,-75431
653329160406374344,-53428,-78589,-75468
653329160413809039,-53321,-78524,-75507
653329160421243734,-53599,-78599,-75591
653329160428678429,-53648,-78652,-75616
653329160436113124,-53545,-78741,-75546
653329160443547819,-53563,-78736,-75428
653329160450982514,-53551,-78686,-75511
653329160458417209,-53739,-78722,-75603
653329160465851904,-53670,-78748,-75815
653329160473286601,-53874,-78644,-75718
653329160480721296,-53845,-78939,-75760
653329160488155991,-53820,-78956,-75822
653329160495590686,-53740,-78968,-75780
653329160503025381,-53814,-78879,-75718
653329160510460076,-53849,-79013,-75723
653329160517894771,-53839,-78969,-75774
653329160525329466,-53668,-77757,-74392
653329160532764161,-53723,-78314,-75322
653329160540198856,-53922,-78702,-75669
653329160547633551,-53756,-78810,-75739
653329160555068246,-52458,-77988,-74489
653329160562502941,-53244,-78577,-75156
653329160569937636,-53563,-78757,-75432
653329160577372331,-53829,-78882,-75709
653329160584807026,-53807,-78887,-75809
653329160592241721,-53712,-78925,-75665
653329160599676416,-53704,-78927,-75821
653329160607049216,-54008,-78877,-75918
653329160614487552,-53870,-78810,-75872
653329160621925888,-53875,-78807,-75809
653329160629364224,-53759,-78852,-75881
653329160636802560,-53848,-78974,-75767
653329160644240896,-53769,-78989,-75716
653329160651679232,-53751,-78960,-75613
653329160659117568,-53722,-78913,-75745
653329160666555904,-53842,-78833,-75806
653329160673994240,-53621,-78620,-75518
653329160681432576,-53565,-78820,-75546
653329160688870912,-53735,-78755,-75619
653329160696309248,-53704,-78836,-75626
653329160703747584,-53572,-78811,-75407
653329160711185920,-53812,-78835,-75689
653329160718624256,-53842,-78840,-75728
653329160726062592,-53867,-78850,-75804
653329160733500928,-53715,-78731,-75710
653329160741001161,-53944,-78601,-75889
653329160748435856,-53947,-78691,-75705
653329160755870551,-53830,-78680,-75642
653329160763305246,-53687,-78663,-75595
653329160770739941,-53693,-78692,-75606
653329160778174636,-53718,-78644,-75627
653329160785609331,-53547,-78661,-75651
653329160793044026,-53628,-78635,-75590
653329160800478721,-53618,-78724,-75475
653329160807913416,-53638,-78656,-75506
653329160815348111,-53539,-78734,-75475
653329160822782806,-53564,-78615,-75382
653329160830217501,-53513,-78610,-75479
653329160837652196,-53512,-78552,-75428
653329160845086891,-53512,-77342,-74199
653329160852521586,-53511,-77911,-74869
653329160859956281,-53453,-78316,-75216
653329160867390976,-53528,-78551,-75440
653329160874763776,-52378,-77284,-74129
653329160882202112,-52968,-77850,-74837
653329160889640448,-53292,-78222,-75183
653329160897078784,-53513,-78376,-75183
653329160904517120,-52290,-78526,-75245
653329160911955456,-52773,-78450,-75223
653329160919393792,-53107,-78413,-75248
653329160926832128,-53260,-78393,-75355
653329160934270464,-53261,-78351,-75309
653329160941708800,-53335,-78341,-75245
653329160949147136,-53232,-78237,-75197
653329160956585472,-53258,-78384,-75154
653329160964023808,-53314,-78316,-75115
653329160971462144,-53215,-78330,-75147
653329160978900480,-53367,-78345,-75073
653329160986338816,-53346,-78313,-75159
653329160993777152,-53277,-78095,-74982
653329161001215488,-53298,-78265,-75110
653329161008715721,-53460,-78364,-75374
653329161016150416,-53313,-78320,-75248
653329161023585111,-52925,-78029,-74930
653329161031019806,-53023,-78099,-75073
653329161038454501,-53071,-78154,-75095
653329161045889196,-53116,-78257,-75112
653329161053323891,-52938,-78238,-74981
653329161060758586,-52956,-78224,-74921
653329161068193281,-53042,-78258,-75022
653329161075627976,-53084,-78261,-74978
653329161083062671,-53125,-78076,-74860
653329161090497366,-53093,-78152,-74963
653329161097932061,-53018,-78113,-75004
653329161105366756,-52934,-77991,-74896
653329161112801451,-52933,-77990,-74864
653329161120236146,-52969,-78081,-74887
653329161127670841,-53081,-78035,-74853
653329161135105536,-52944,-78035,-74902
653329161142478336,-52891,-77691,-75031
653329161149916672,-52922,-77773,-74875
653329161157355008,-52868,-77901,-74863
653329161164793344,-53010,-76648,-74108
653329161172231680,-53002,-77343,-74566
653329161179670016,-52988,-77723,-74655
653329161187108352,-53026,-77788,-74818
653329161194546688,-51733,-76711,-73453
653329161201985024,-52342,-77427,-74164
653329161209423360,-52767,-77727,-74487
653329161216861696,-52770,-77876,-74679
653329161224300032,-51619,-78061,-74736
653329161231738368,-52324,-78086,-74862
653329161239176704,-52724,-77984,-74941
653329161246615040,-52984,-78127,-74909
653329161254053376,-52846,-78024,-74798
653329161261491712,-53052,-78071,-74839
653329161268930048,-53012,-78193,-74919
653329161276430281,-53178,-77972,-75066
653329161283864976,-53142,-78118,-74918
653329161291299671,-53127,-78164,-74954
653329161298734366,-53296,-78281,-75119
653329161306169061,-53257,-78319,-75033
653329161313603756,-53137,-78185,-74865
653329161321038451,-53299,-78222,-75022
653329161328473146,-53349,-78368,-75000
653329161335907841,-53321,-78324,-75000
653329161343342536,-53089,-78356,-74909
653329161350777231,-53300,-78389,-75102
653329161358211926,-53546,-78427,-75116
653329161365646621,-53542,-78395,-75125
653329161373081316,-53245,-78575,-75148
653329161380516011,-53336,-78578,-75124
653329161387950706,-53470,-78708,-75270
653329161395385401,-53537,-78514,-75356
653329161402820096,-53449,-78498,-75294
653329161410192896,-53300,-78672,-75451
653329161417631232,-53398,-78554,-75443
653329161425069568,-53550,-78623,-75345
653329161432507904,-53603,-78649,-75378
653329161439946240,-53662,-78702,-75478
653329161447384576,-53610,-78575,-75466
653329161454822912,-53528,-78556,-75421
653329161462261248,-53511,-78579,-75437
653329161469699584,-53590,-78733,-75466
653329161477137920,-53554,-78672,-75302
653329161484576256,-53609,-77732,-75400
653329161492014592,-53488,-78293,-75304
653329161499452928,-53671,-78629,-75339
653329161506891264,-53603,-78649,-75429
653329161514329600,-52340,-77348,-74050
653329161521767936,-52898,-78050,-74732
653329161529206272,-53325,-78446,-75079
653329161536644608,-53565,-78621,-75208
653329161544206738,-52425,-78774,-74621
653329161551637792,-53059,-78683,-75079
653329161559068846,-53395,-78744,-75203
653329161566499900,-53656,-78773,-75257
653329161573930954,-53746,-78738,-75339
653329161581362008,-53708,-78566,-75259
653329161588793062,-53695,-78700,-75404
653329161596224116,-53674,-78688,-75392
653329161603655170,-53556,-78641,-75404
653329161611086224,-53437,-78542,-75409
653329161618517278,-53558,-78556,-75522
653329161625948332,-53575,-78560,-75373
653329161633379386,-53456,-78339,-75243
653329161640810440,-53545,-78549,-75117
653329161648241494,-53546,-78575,-75279
653329161655672548,-53569,-78516,-75277
653329161663103602,-53411,-78319,-75107
653329161670534656,-53555,-78458,-75156
653329161677780040,-53836,-78416,-74964
653329161685222016,-53590,-78445,-75170
653329161692663992,-53300,-78459,-75137
653329161700105968,-53445,-78509,-75178
653329161707547944,-53516,-78628,-75204
653329161714989920,-53419,-78513,-75174
653329161722431896,-53432,-78480,-75112
653329161729873872,-53640,-78538,-75197
653329161737315848,-53416,-78505,-75197
653329161744757824,-53416,-78418,-75078
653329161752199800,-53471,-78409,-75151
653329161759641776,-53468,-78445,-75035
653329161767083752,-53272,-78381,-74982
653329161774525728,-53195,-78399,-74870
653329161781967704,-53204,-78399,-74867
653329161789409680,-53351,-78337,-74952
653329161796851656,-53330,-78222,-75039
653329161804293632,-53245,-77896,-74893
653329161811921298,-52928,-78072,-75017
653329161819352352,-53076,-78160,-74998
653329161826783406,-53179,-78111,-74944
653329161834214460,-51928,-76952,-73649
653329161841645514,-52522,-77664,-74306
653329161849076568,-52840,-77956,-74629
653329161856507622,-52913,-77987,-74758
653329161863938676,-51699,-77956,-73487
653329161871369730,-52423,-78169,-74101
653329161878800784,-52811,-78171,-74464
653329161886231838,-52828,-78217,-74489
653329161893662892,-52956,-78030,-74572
653329161901093946,-52845,-77981,-74655
6.53329E+17,-52980,-78049,-74733
653329161915956054,-52936,-77924,-74681
653329161923387108,-52993,-77920,-74580
653329161930818162,-53004,-77939,-74646
653329161938249216,-52993,-78016,-74595
653329161945494600,-53005,-78018,-74298
653329161952936576,-52795,-77718,-74374
653329161960378552,-52830,-77733,-74459
653329161967820528,-52720,-77832,-74533
653329161975262504,-52685,-77805,-74426
653329161982704480,-52532,-77647,-74242
653329161990146456,-52658,-77735,-74403
653329161997588432,-52737,-77683,-74492
653329162005030408,-52548,-77746,-74312
653329162012472384,-52382,-77835,-74224
653329162019914360,-52480,-77819,-74123
653329162027356336,-52495,-77785,-74181
653329162034798312,-52440,-77606,-74089
653329162042240288,-52538,-77674,-74088
653329162049682264,-52561,-77613,-74156
653329162057124240,-52530,-77606,-74133
653329162064566216,-52439,-77469,-73923
653329162072008192,-52381,-77388,-73929
653329162079635858,-52621,-77454,-73703
653329162087066912,-52498,-77443,-73913
653329162094497966,-52338,-77395,-73946
653329162101929020,-52392,-77241,-73946
653329162109360074,-52261,-77326,-73938
653329162116791128,-52284,-77340,-74040
653329162124222182,-52156,-77188,-73903
653329162131653236,-52357,-77155,-73884
653329162139084290,-52245,-77239,-73813
653329162146515344,-52185,-77207,-73857
653329162153946398,-51844,-76018,-72563
653329162161377452,-51984,-76748,-73174
653329162168808506,-52107,-77076,-73641
653329162176239560,-52137,-77199,-73702
653329162183670614,-50912,-76698,-72367
653329162191101668,-51673,-76983,-73278
653329162198532722,-52011,-77134,-73688
653329162205963776,-52170,-77390,-73786
653329162213271040,-52022,-77500,-73471
653329162220709376,-52280,-77407,-73693
653329162228147712,-52423,-77564,-73825
653329162235586048,-52397,-77560,-73873
653329162243024384,-52353,-77571,-73945
653329162250462720,-52277,-77545,-73956
653329162257901056,-52404,-77774,-73925
653329162265339392,-52294,-77725,-73873
653329162272777728,-52408,-77532,-73742
653329162280216064,-52390,-77546,-73941
653329162287654400,-52419,-77668,-74010
653329162295092736,-52354,-77699,-73877
653329162302531072,-52231,-77549,-73742
