timestamp,ch1,ch2,ch3
653323170025187785,541522,458103,495167
653323170032622480,541349,458052,494851
653323170040057175,541234,457898,494755
653323170047491870,541046,457815,494662
653323170054926565,540953,457631,494508
653323170062361260,540701,457583,494264
653323170069795955,540598,457354,494033
653323170077230650,540280,457370,493954
653323170084665345,540050,457225,493869
653323170092100040,539858,457114,493786
653323170099534735,539765,457097,493572
653323170106969430,539646,456965,493452
653323170114404125,539589,456888,493306
653323170121838820,539394,456866,493160
653323170129273515,539368,456708,492975
653323170136708210,539180,456613,492962
653323170144142905,538950,456593,492907
653323170151577600,538774,456483,492765
653323170158989092,538868,456555,492750
653323170166425152,538833,456561,492604
653323170173861212,538737,456276,492547
653323170181297272,538468,456439,492529
653323170188733332,538587,456313,492465
653323170196169392,538712,456373,492529
653323170203605452,538745,456366,492448
653323170211041512,538787,456499,492427
653323170218477572,538833,456456,492484
653323170225913632,538960,456516,492625
653323170233349692,538988,456531,492676
653323170240785752,539023,456619,492876
653323170248221812,538808,456630,492772
653323170255657872,538903,456515,492990
653323170263093932,539021,456568,492851
653323170270529992,539018,456521,492885
653323170277966052,539108,456539,493003
653323170285402112,539135,456507,493007
653323170292784018,539417,456374,492719
653323170300223264,539362,456524,492920
653323170307662510,539198,456681,492971
653323170315101756,539215,456760,493005
653323170322541002,539353,456822,493055
653323170329980248,539294,456702,493186
653323170337419494,539398,456870,493236
653323170344858740,539401,456862,493281
653323170352297986,539383,456734,493191
653323170359737232,539584,456845,493391
653323170367176478,539672,456980,493568
653323170374615724,539516,456911,493608
653323170382054970,539708,457007,493619
653323170389494216,539858,456981,493789
653323170396933462,539772,457129,493769
653323170404372708,539949,457253,493902
653323170411811954,540052,457352,493972
653323170419251200,540068,457272,494061
653323170426736877,540196,457015,494106
653323170434173392,540243,457173,494222
653323170441609907,540457,457402,494305
653323170449046422,540518,457584,494481
653323170456482937,540689,457668,494552
653323170463919452,540734,457605,494582
653323170471355967,540830,457832,494582
653323170478792482,540929,457851,494753
653323170486228997,540976,457912,494922
653323170493665512,541069,457989,495038
653323170501102027,541154,457943,495085
653323170508538542,541376,458067,495197
653323170515975057,541555,458279,495291
653323170523411572,541584,458157,495314
653323170530848087,541542,458300,495386
653323170538284602,541736,458379,495533
653323170545721117,541914,458401,495677
653323170553157632,541865,458463,495858
653323170560601892,542103,458550,495751
653323170568037952,542206,458630,495846
653323170575474012,542312,458755,495965
653323170582910072,542448,458834,496199
653323170590346132,542675,458875,496207
653323170597782192,542834,459016,496519
653323170605218252,542844,459098,496614
653323170612654312,543157,459148,496791
653323170620090372,543190,459346,496774
653323170627526432,543290,459443,496919
653323170634962492,543452,459532,496975
653323170642398552,543491,459539,497176
653323170649834612,543771,459588,497357
653323170657270672,543915,459722,497618
653323170664706732,544022,459719,497615
653323170672142792,544069,459891,497713
653323170679578852,544232,459990,497897
653323170687014912,544356,460037,498136
653323170694450980,544206,459741,498300
653323170701887040,544515,460036,498229
653323170709323100,544545,460205,498214
653323170716759160,544728,460207,498348
653323170724195220,544876,460313,498419
653323170731631280,544738,460222,498477
653323170739067340,544711,460195,498324
653323170746503400,544557,459996,498266
653323170753939460,544532,459993,498245
653323170761375520,544403,459830,497955
653323170768811580,544018,459772,497785
653323170776247640,543957,459615,497681
653323170783683700,543804,459504,497552
653323170791119760,543595,459375,497392
653323170798555820,543424,459222,497075
653323170805991880,543125,459165,497010
653323170813427940,543000,459103,496798
6.53323E+17,542759,458970,496593
653323170828300068,542687,458601,496436
653323170835736128,542538,458756,496378
653323170843172188,542235,458682,496120
653323170850608248,542141,458576,496019
653323170858044308,542094,458610,496087
653323170865480368,541816,458547,495928
653323170872916428,541670,458360,495754
653323170880352488,541492,458323,495629
653323170887788548,541371,458205,495554
653323170895224608,541376,458230,495513
653323170902660668,541230,458143,495440
653323170910096728,540922,457976,495226
653323170917532788,540926,457867,495188
653323170924968848,540832,457879,494990
653323170932404908,540828,457659,494829
653323170939840968,540756,457808,494882
653323170947277028,540583,457587,494690
653323170954713088,540511,457655,494945
653323170962180096,540655,457518,495090
653323170969614336,540694,457580,495026
653323170977048576,540655,457594,494941
653323170984482816,540687,457544,494951
653323170991917056,540648,457596,494920
653323170999351296,540635,457595,494888
653323171006785536,540763,457610,494993
653323171014219776,540620,457582,494964
653323171021654016,540771,457572,495125
653323171029088256,540850,457526,494989
653323171036522496,540807,457577,495030
653323171043956736,540874,457726,495090
653323171051390976,540820,457675,495023
653323171058825216,540834,457688,494976
653323171066259456,540791,457568,494898
653323171073693696,540874,457664,495010
653323171081127936,540839,457701,495112
653323171088562176,540721,457798,495147
653323171095903579,540684,457537,494962
653323171103343280,540783,457738,495069
653323171110782981,540883,457766,495215
653323171118222682,540960,457946,495278
653323171125662383,541149,457945,495406
653323171133102084,541122,458045,495440
653323171140541785,541257,458021,495455
653323171147981486,541395,458040,495392
653323171155421187,541447,458323,495622
653323171162860888,541601,458214,495666
653323171170300589,541611,458236,495617
653323171177740290,541721,458371,495921
653323171185179991,541902,458413,496127
653323171192619692,542060,458379,496200
653323171200059393,542199,458542,496314
653323171207499094,542363,458564,496395
653323171214938795,542354,458629,496441
653323171222378496,542411,458668,496659
653323171229911040,542668,458939,496832
653323171237345280,542797,458958,496928
653323171244779520,543028,459049,497026
653323171252213760,543126,459040,497087
6.53323E+17,543051,459026,497195
653323171267082240,543272,459115,497297
653323171274516480,543425,459232,497496
653323171281950720,543546,459414,497659
653323171289384960,543807,459426,497804
653323171296819200,543894,459414,497835
653323171304253440,544149,459635,498012
653323171311687680,544145,459537,498005
653323171319121920,544462,459733,498146
653323171326556160,544448,459797,498393
653323171333990400,544694,459855,498551
653323171341424640,544801,460026,498620
653323171348858880,544923,460102,498729
653323171356293120,545090,460164,498850
653323171363634523,545186,460342,499084
653323171371074224,545368,460150,499088
653323171378513925,545531,460319,499125
653323171385953626,545801,460482,499464
653323171393393327,545769,460409,499463
653323171400833028,545939,460557,499550
653323171408272729,545962,460592,499558
653323171415712430,546007,460713,499681
653323171423152131,546087,460694,499814
653323171430591832,546321,460803,499953
653323171438031533,546397,460885,500027
653323171445471234,546560,460913,499996
653323171452910935,546703,461043,500189
653323171460350636,546720,461075,500205
653323171467790337,546876,461153,500326
653323171475230038,547064,461243,500423
653323171482669739,547229,461238,500435
653323171490109440,547328,461361,500522
653323171497611044,547281,461477,500727
653323171505047104,547373,461453,500798
653323171512483164,547373,461438,500777
653323171519919224,547262,461383,500701
653323171527355284,547092,461265,500659
653323171534791344,547031,461153,500545
653323171542227404,546914,460957,500317
653323171549663464,546841,460994,500122
653323171557099524,546592,460996,500026
653323171564535584,546350,460769,499811
653323171571971644,546175,460668,499734
653323171579407704,545771,460568,499581
653323171586843764,545630,460369,499341
653323171594279824,545426,460307,499349
653323171601715884,545349,460169,499160
653323171609151944,545187,460010,498955
653323171616588004,545070,459970,498707
653323171624024064,544883,459769,498499
653323171631460132,544657,459784,498239
653323171638896192,544425,459616,498251
653323171646332252,544351,459483,498083
653323171653768312,544185,459493,497934
653323171661204372,543876,459277,497862
653323171668640432,543734,459221,497739
653323171676076492,543571,459027,497554
653323171683512552,543563,458888,497389
653323171690948612,543438,458933,497222
653323171698384672,543175,458926,497079
653323171705820732,543107,458876,497079
653323171713256792,543060,458791,496974
653323171720692852,542839,458714,496735
653323171728128912,542789,458683,496934
653323171735564972,542732,458651,496879
653323171743001032,542624,458543,496836
653323171750437092,542622,458497,496805
653323171757873152,542655,458447,496678
653323171765278280,542760,458654,496867
653323171772716160,542691,458531,496741
653323171780154040,542691,458576,496774
653323171787591920,542713,458631,496787
653323171795029800,542749,458628,496769
653323171802467680,542638,458580,496658
653323171809905560,542768,458589,496584
653323171817343440,542573,458598,496670
653323171824781320,542706,458585,496657
653323171832219200,542679,458568,496672
653323171839657080,542593,458515,496729
653323171847094960,542598,458623,496640
653323171854532840,542725,458759,496865
653323171861970720,542801,458619,496742
653323171869408600,542838,458802,496762
653323171876846480,542875,458689,496723
653323171884284360,542894,458677,496820
653323171891722240,542795,458892,496947
653323171899191076,542928,458705,497129
653323171906627136,542963,458723,496970
653323171914063196,543012,458865,497122
653323171921499256,542933,458861,497068
653323171928935316,543127,458967,497040
653323171936371376,543119,459001,497078
653323171943807436,543189,459088,497140
653323171951243496,543356,459029,497118
653323171958679556,543424,459186,497306
653323171966115616,543467,459176,497383
653323171973551676,543615,459117,497383
653323171980987736,543647,459252,497492
653323171988423796,543762,459339,497616
653323171995859856,543878,459405,497778
653323172003295916,543998,459230,497631
653323172010731976,543924,459398,497762
653323172018168036,544092,459505,497711
653323172025604096,544157,459500,497876
653323172033063369,544055,459685,498164
653323172040498064,544371,459638,498102
653323172047932759,544507,459795,498190
653323172055367454,544400,459660,498190
653323172062802149,544605,459740,498312
653323172070236844,544723,459879,498410
653323172077671539,544864,459963,498507
653323172085106234,544928,459878,498469
653323172092540929,544970,459926,498623
653323172099975624,545022,460104,498704
653323172107410319,545200,459998,498665
653323172114845014,545360,460105,498867
653323172122279709,545457,460132,498848
653323172129714404,545447,460245,498885
653323172137149099,545548,460283,499066
653323172144583794,545655,460324,499079
653323172152018489,545592,460354,499123
653323172159453184,545695,460395,499232
653323172166864676,545898,460180,499365
653323172174300736,545901,460374,499321
653323172181736796,545940,460593,499376
653323172189172856,546041,460607,499382
653323172196608916,546212,460700,499490
653323172204044976,546156,460917,499726
653323172211481036,546106,460880,499675
653323172218917096,546441,460883,499872
653323172226353156,546554,461088,499979
653323172233789216,546714,461139,500156
653323172241225276,546773,461143,500257
653323172248661336,546697,461068,500216
653323172256097396,546689,461223,500334
653323172263533456,546811,461141,500310
653323172270969516,546708,461031,500293
653323172278405576,546728,460924,500180
653323172285841636,546539,460883,500065
653323172293277696,546318,460847,499903
653323172300659602,546251,460520,499767
653323172308098848,545868,460528,499481
653323172315538094,545753,460512,499284
653323172322977340,545502,460298,499072
653323172330416586,545311,460172,498883
653323172337855832,545096,460053,498766
653323172345295078,544971,460036,498560
653323172352734324,544879,459990,498526
653323172360173570,544703,459917,498463
653323172367612816,544592,459860,498254
653323172375052062,544271,459732,498243
653323172382491308,544127,459534,498038
653323172389930554,544136,459515,497879
653323172397369800,544006,459415,497820
653323172404809046,543912,459296,497728
653323172412248292,543682,459325,497647
653323172419687538,543679,459182,497596
653323172427126784,543575,459250,497485
653323172434643401,543326,458914,497071
653323172442078096,543444,458995,497270
653323172449512791,543285,458989,497095
653323172456947486,543343,458975,497158
653323172464382181,543290,458934,497239
653323172471816876,543290,458729,497071
653323172479251571,543015,458767,496963
653323172486686266,543087,458736,497085
653323172494120961,543218,458862,497193
653323172501555656,543114,458902,497154
653323172508990351,543150,458871,497165
653323172516425046,543238,458659,497154
653323172523859741,543224,458761,497115
653323172531294436,543187,458787,497252
653323172538729131,543207,458848,497221
653323172546163826,543302,458736,497175
653323172553598521,543277,458796,497190
653323172561033216,543305,458800,497287
653323172568390546,543199,458800,497424
653323172575829792,543285,458838,497317
653323172583269038,543370,458800,497304
653323172590708284,543333,458890,497349
653323172598147530,543227,458814,497238
653323172605586776,543308,458789,497288
653323172613026022,543297,458744,497297
653323172620465268,543210,458882,497327
653323172627904514,543412,458960,497429
653323172635343760,543478,458919,497361
653323172642783006,543574,458993,497432
653323172650222252,543390,458927,497518
653323172657661498,543455,458927,497441
653323172665100744,543563,459143,497471
653323172672539990,543689,459105,497471
653323172679979236,543812,459147,497580
653323172687418482,543907,459158,497715
653323172694857728,543986,459192,497784
653323172702374345,544142,459262,497590
653323172709809040,543956,459225,497711
653323172717243735,543898,459233,497744
653323172724678430,544095,459386,497927
653323172732113125,544123,459341,497975
653323172739547820,544240,459374,497914
653323172746982515,544228,459297,497966
653323172754417210,544435,459508,498086
653323172761851905,544640,459579,498271
653323172769286600,544647,459650,498310
653323172776721295,544757,459755,498364
653323172784155990,544870,459619,498480
653323172791590685,544800,459809,498457
653323172799025380,544969,459794,498605
653323172806460075,545050,459906,498702
653323172813894770,545098,460045,498870
653323172821329465,545287,459956,498933
653323172828764160,545405,460040,499001
653323172836121490,545806,460291,499148
653323172843560736,545796,460272,499104
653323172850999982,545897,460376,499141
653323172858439228,545856,460472,499362
653323172865878474,546013,460467,499531
653323172873317720,546172,460570,499709
653323172880756966,546346,460670,499787
653323172888196212,546350,460650,499803
653323172895635458,546499,460704,499914
653323172903074704,546326,460812,499908
653323172910513950,546409,460850,499978
653323172917953196,546500,460894,500122
653323172925392442,546666,460955,500039
653323172932831688,546812,461024,500099
653323172940270934,546904,461114,500262
653323172947710180,547021,461222,500332
653323172955149426,547186,461221,500452
653323172962588672,547265,461408,500551
653323172970082084,547009,461485,500557
653323172977518144,547265,461446,500737
653323172984954204,547292,461398,500712
653323172992390264,547317,461292,500522
653323172999826324,547206,461290,500585
653323173007262384,547037,461144,500518
653323173014698444,546841,461119,500298
653323173022134504,546731,460964,500057
653323173029570564,546519,460842,500031
653323173037006624,546238,460698,499906
653323173044442684,546230,460457,499580
653323173051878744,545944,460339,499456
653323173059314804,545860,460326,499302
653323173066750864,545714,460111,499136
653323173074186924,545509,460059,498919
653323173081622984,545371,459972,498765
653323173089059044,545211,459742,498728
653323173096495104,544944,459746,498511
653323173103931172,544505,459128,498242
653323173111367232,544311,459158,498088
653323173118803292,544317,459199,497897
653323173126239352,544082,459290,497822
653323173133675412,544032,459210,497697
653323173141111472,543809,459126,497584
653323173148547532,543613,458951,497380
653323173155983592,543552,458943,497137
653323173163419652,543334,458885,496990
653323173170855712,543096,458824,497025
653323173178291772,543057,458667,496921
653323173185727832,542717,458836,496789
653323173193163892,542737,458585,496781
653323173200599952,542748,458469,496683
653323173208036012,542699,458466,496635
653323173215472072,542695,458347,496580
653323173222908132,542615,458291,496516
653323173230344192,542530,458339,496512
653323173237749320,542814,458121,496616
653323173245187200,542822,458249,496460
653323173252625080,542630,458318,496486
653323173260062960,542742,458317,496437
653323173267500840,542682,458492,496583
653323173274938720,542742,458486,496509
653323173282376600,542630,458430,496490
653323173289814480,542788,458352,496639
653323173297252360,542760,458450,496731
653323173304690240,542754,458459,496533
653323173312128120,542813,458469,496626
6.53323E+17,542853,458535,496580
653323173327003880,542940,458469,496697
653323173334441760,542863,458452,496691
653323173341879640,542986,458419,496644
653323173349317520,542990,458535,496628
653323173356755400,542942,458584,496755
653323173364193280,543058,458651,496809
653323173371662116,543296,458345,496874
653323173379098176,543210,458483,496873
653323173386534236,543199,458474,496805
653323173393970296,543119,458651,496803
653323173401406356,543088,458806,496879
653323173408842416,543192,458713,496827
653323173416278476,543299,458686,497057
653323173423714536,543389,458757,496911
653323173431150596,543444,458885,497083
653323173438586656,543591,458952,497180
653323173446022716,543734,459068,497182
653323173453458776,543710,459078,497219
653323173460894836,543809,459106,497323
653323173468330896,543876,459188,497480
653323173475766956,544061,459298,497658
653323173483203016,544229,459417,497624
653323173490639076,544197,459388,497560
653323173498075136,544289,459314,497754
653323173505534409,544504,459135,498040
653323173512969104,544527,459371,498035
653323173520403799,544571,459515,498041
653323173527838494,544598,459479,498179
653323173535273189,544752,459673,498279
653323173542707884,544834,459665,498376
653323173550142579,544928,459747,498502
653323173557577274,544983,459870,498618
653323173565011969,545151,460020,498665
653323173572446664,545175,459949,498690
653323173579881359,545158,459906,498646
653323173587316054,545277,459976,498853
653323173594750749,545585,460176,499012
653323173602185444,545597,459989,499015
653323173609620139,545757,460197,499112
653323173617054834,545752,460372,499232
653323173624489529,545954,460435,499233
653323173631924224,545980,460423,499242
653323173639281554,546110,460621,499319
653323173646720800,546291,460710,499613
653323173654160046,546345,460729,499636
653323173661599292,546421,460738,499799
653323173669038538,546552,460820,499897
653323173676477784,546840,460894,500192
653323173683917030,546797,461065,500125
653323173691356276,546865,461043,500211
653323173698795522,546966,461041,500357
653323173706234768,547219,461127,500393
653323173713674014,547442,461162,500481
653323173721113260,547492,461264,500665
653323173728552506,547407,461263,500603
653323173735991752,547391,461311,500647
653323173743430998,547217,461157,500439
653323173750870244,546957,461064,500377
653323173758309490,546781,460986,500197
653323173765748736,546683,460968,500217
653323173773242148,546753,460712,499993
653323173780678208,546368,460598,499783
653323173788114268,546087,460418,499495
653323173795550328,545944,460323,499190
653323173802986388,545586,460125,498980
653323173810422448,545318,459987,498885
653323173817858508,545186,460061,498758
653323173825294568,544887,459911,498476
653323173832730628,544690,459729,498272
653323173840166688,544419,459448,498018
653323173847602748,544351,459483,497895
653323173855038808,544250,459307,497741
653323173862474868,543996,459218,497685
653323173869910928,543820,459056,497502
653323173877346988,543573,459024,497434
653323173884783048,543368,458960,497228
653323173892219108,543266,458905,496959
653323173899655168,543083,458816,496804
653323173907083501,542503,458786,496571
653323173914520016,542445,458562,496482
653323173921956531,542596,458435,496491
653323173929393046,542470,458448,496371
653323173936829561,542349,458363,496222
653323173944266076,542268,458315,496174
653323173951702591,542035,458237,495967
653323173959139106,541930,458145,495857
653323173966575621,541998,458182,495781
653323173974012136,542050,458150,495831
653323173981448651,542022,457969,495786
653323173988885166,541822,458026,495744
653323173996321681,541966,458057,495839
653323174003758196,542053,458114,495905
653323174011194711,542112,458170,495898
653323174018631226,542033,458238,495765
653323174026067741,542061,458293,495867
653323174033504256,542132,458181,495880
653323174040979456,542164,458043,495628
653323174048413696,542217,458096,495802
653323174055847936,542239,458287,495983
653323174063282176,542202,458255,495999
653323174070716416,542150,458140,496083
653323174078150656,542180,458259,496066
653323174085584896,542249,458320,496087
653323174093019136,542293,458355,495973
653323174100453376,542205,458299,495961
653323174107887616,542285,458300,496007
653323174115321856,542322,458336,496092
653323174122756096,542425,458284,496080
653323174130190336,542440,458272,496187
653323174137624576,542409,458393,496104
653323174145058816,542534,458482,496132
653323174152493056,542522,458566,496298
653323174159927296,542513,458525,496358
653323174167361536,542493,458593,496477
653323174174733896,542788,458327,496659
653323174182171776,542932,458471,496629
653323174189609656,542960,458583,496612
653323174197047536,543041,458675,496666
653323174204485416,543160,458729,496606
653323174211923296,543018,458854,496712
653323174219361176,543087,458861,496889
653323174226799056,543228,458924,496937
653323174234236936,543476,458985,497091
653323174241674816,543625,459040,497204
653323174249112696,543489,459132,497276
653323174256550576,543587,459096,497389
653323174263988456,543752,459282,497451
653323174271426336,543698,459273,497414
653323174278864216,543976,459432,497551
653323174286302096,544192,459472,497688
653323174293739976,544303,459603,497782
653323174301177856,544338,459711,497778
653323174308615752,544695,459769,498175
653323174316053632,544620,459875,498090
653323174323491512,544619,459835,498208
653323174330929392,544834,459956,498271
653323174338367272,544809,460027,498383
653323174345805152,544995,459992,498510
653323174353243032,545086,460187,498392
653323174360680912,545242,460173,498589
653323174368118792,545320,460203,498654
653323174375556672,545355,460285,498883
653323174382994552,545564,460238,499078
653323174390432432,545591,460286,499001
653323174397870312,545705,460338,499101
653323174405308192,545751,460401,499157
653323174412746072,545991,460482,499193
653323174420183952,546047,460746,499313
653323174427621832,546085,460869,499496
653323174435059712,546146,460892,499517
653323174442559488,546516,461055,499410
653323174449993728,546581,461160,499631
653323174457427968,546650,461103,499883
653323174464862208,546672,461063,499891
653323174472296448,546769,461112,499985
653323174479730688,546964,461281,500147
653323174487164928,547113,461289,500290
653323174494599168,547033,461216,500385
653323174502033408,547264,461373,500462
653323174509467648,547366,461460,500557
653323174516901888,547322,461415,500614
653323174524336128,547319,461466,500537
653323174531770368,547151,461220,500361
653323174539204608,546987,461223,500235
653323174546638848,546834,461108,500119
653323174554073088,546635,460924,499918
653323174561507328,546373,460844,499626
653323174568941568,546140,460828,499613
653323174576282971,545571,460775,499408
653323174583722672,545654,460516,499203
653323174591162373,545545,460433,498896
653323174598602074,545234,460172,498732
653323174606041775,545123,460076,498586
653323174613481476,545056,460037,498393
653323174620921177,544707,459931,498236
653323174628360878,544495,459812,498013
653323174635800579,544352,459592,497878
653323174643240280,544055,459535,497672
653323174650679981,543946,459352,497544
653323174658119682,543747,459295,497293
653323174665559383,543654,459191,497197
653323174672999084,543441,459102,497004
653323174680438785,543134,458955,496761
653323174687878486,543067,458892,496608
653323174695318187,542806,458729,496373
653323174702757888,542717,458605,496354
653323174710228552,542732,458909,496263
653323174717666432,542351,458706,496119
653323174725104312,542257,458578,496030
653323174732542192,542302,458522,496025
653323174739980072,542186,458444,495935
653323174747417952,542121,458407,495834
653323174754855832,542158,458347,495794
653323174762293712,542197,458320,495829
653323174769731592,542066,458375,495791
653323174777169472,541993,458277,495695
653323174784607352,541893,458277,495730
653323174792045232,542138,458232,495846
653323174799483112,542060,458352,495669
653323174806920992,542135,458448,495719
653323174814358872,542053,458395,495741
653323174821796752,541974,458349,495733
653323174829234632,542171,458500,495646
653323174836672512,542236,458375,495676
653323174844141348,542433,458217,495996
653323174851577408,542384,458394,495794
653323174859013468,542362,458410,495752
653323174866449528,542246,458414,495866
653323174873885588,542290,458447,495866
653323174881321648,542383,458507,495983
653323174888757708,542320,458522,495892
653323174896193768,542326,458449,495895
653323174903629828,542547,458558,495981
653323174911065888,542494,458606,496025
653323174918501948,542422,458625,496020
653323174925938008,542576,458607,496065
653323174933374068,542703,458737,496087
653323174940810128,542646,458708,496225
653323174948246188,542595,458620,496233
653323174955682248,542697,458752,496238
653323174963118308,542857,458667,496336
653323174970554368,542902,458750,496377
653323174977959496,542878,458641,496497
653323174985397376,543066,458735,496539
653323174992835256,543117,458932,496516
653323175000273136,543130,459022,496597
653323175007711016,543236,459054,496691
653323175015148896,543349,459164,496697
653323175022586776,543465,459216,496728
653323175030024656,543687,459382,497051
653323175037462536,543724,459339,497018
653323175044900416,543975,459379,497081
653323175052338296,544060,459532,497273
653323175059776176,544091,459552,497212
653323175067214056,544219,459632,497288
653323175074651936,544278,459712,497312
653323175082089816,544383,459793,497563
653323175089527696,544383,459770,497604
653323175096965576,544481,459944,497804
653323175104403456,544637,459873,497803
653323175111872292,544590,459988,497768
653323175119308352,544740,460101,497937
653323175126744412,544994,460165,498110
653323175134180472,545194,460263,498364
653323175141616532,545290,460341,498299
653323175149052592,545394,460320,498506
653323175156488652,545407,460428,498507
653323175163924712,545429,460556,498577
653323175171360772,545630,460499,498721
653323175178796832,545673,460591,498746
653323175186232892,545903,460700,498805
653323175193668952,545941,460753,499033
653323175201105012,546127,460824,498985
653323175208541072,546170,460825,499036
653323175215977132,546299,460921,499208
653323175223413192,546308,460946,499406
653323175230849252,546436,461041,499443
653323175238285312,546645,461028,499601
653323175245721380,546561,461025,499815
653323175253157440,546819,461091,499792
653323175260593500,546907,461248,499922
653323175268029560,547119,461394,499980
653323175275465620,547139,461484,500061
653323175282901680,547301,461491,500202
653323175290337740,547430,461566,500372
653323175297773800,547401,461723,500483
653323175305209860,547630,461782,500490
653323175312645920,547609,461835,500603
653323175320081980,547704,461786,500639
653323175327518040,547855,461704,500632
653323175334954100,547849,461748,500615
653323175342390160,547681,461828,500524
653323175349826220,547611,461691,500480
653323175357262280,547470,461606,500330
653323175364698340,547162,461428,500020
653323175372134400,546939,461269,499939
653323175379539528,546369,461201,499762
653323175386977408,546369,461070,499597
653323175394415288,546200,460927,499465
653323175401853168,546004,460808,499136
653323175409291048,545642,460697,498905
653323175416728928,545563,460425,498854
653323175424166808,545484,460486,498732
653323175431604688,545357,460305,498371
653323175439042568,545154,460218,498184
653323175446480448,544875,460095,497948
653323175453918328,544594,460043,497820
653323175461356208,544555,459955,497624
653323175468794088,544261,459841,497478
653323175476231968,544093,459746,497427
653323175483669848,544130,459541,497362
653323175491107728,543902,459432,497095
653323175498545608,543666,459415,497045
653323175505983488,543494,459426,496964
653323175513483264,543465,459514,496439
653323175520917504,543231,459169,496453
653323175528351744,543179,459226,496429
653323175535785984,543136,459002,496354
653323175543220224,542845,458787,496196
653323175550654464,542776,458797,496129
653323175558088704,542798,458822,496122
653323175565522944,542710,458880,496058
653323175572957184,542609,458870,496045
653323175580391424,542592,458773,496082
653323175587825664,542556,458815,496085
653323175595259904,542707,458962,495997
653323175602694144,542588,458949,496076
653323175610128384,542689,458864,495880
653323175617562624,542658,458841,496011
653323175624996864,542700,458890,496119
653323175632431104,542819,458818,496107
653323175639865344,542752,458964,496113
653323175647268644,542731,458586,495837
653323175654704704,542826,458828,496049
653323175662140764,542921,458942,496103
653323175669576824,542898,458958,496160
653323175677012884,542726,459001,496157
653323175684448944,542701,458950,496134
653323175691885004,542782,459126,496129
653323175699321064,542983,459107,496197
653323175706757124,543065,459166,496259
653323175714193184,543041,459056,496309
653323175721629244,543190,459153,496413
653323175729065304,543165,459327,496482
653323175736501364,543358,459305,496408
653323175743937424,543357,459292,496495
653323175751373484,543287,459384,496437
653323175758809544,543442,459381,496596
653323175766245604,543483,459467,496699
653323175773681664,543504,459395,496709
653323175781055835,543704,459482,496668
653323175788495536,543765,459542,496825
653323175795935237,543790,459584,496873
653323175803374938,543834,459636,496938
653323175810814639,544010,459695,497002
653323175818254340,543988,459583,497084
653323175825694041,544128,459663,497193
653323175833133742,544277,459667,497239
653323175840573443,544325,459843,497436
653323175848013144,544456,459994,497430
653323175855452845,544416,459956,497553
653323175862892546,544570,460040,497637
653323175870332247,544649,460006,497694
653323175877771948,544808,460131,497807
653323175885211649,544887,460274,497993
653323175892651350,544921,460176,498020
653323175900091051,544942,460274,498045
653323175907530752,545034,460423,498180
653323175915001416,545570,460227,498097
653323175922439296,545616,460410,498335
653323175929877176,545733,460671,498526
653323175937315056,545701,460730,498620
653323175944752936,545860,460809,498802
653323175952190816,545949,460900,498884
653323175959628696,545954,461048,498969
653323175967066576,546217,461108,499105
653323175974504456,546212,461213,499144
653323175981942336,546437,461348,499218
653323175989380216,546538,461321,499314
653323175996818096,546695,461348,499430
653323176004255976,546816,461354,499519
653323176011693856,546845,461470,499632
653323176019131736,546877,461508,499807
653323176026569616,547143,461507,499918
653323176034007496,547330,461703,499927
653323176041445376,547361,461817,499972
653323176048914212,547557,461901,499958
653323176056350272,547746,461852,500231
653323176063786332,547753,461962,500276
653323176071222392,547865,462048,500482
653323176078658452,547805,462090,500540
653323176086094512,548072,462137,500734
653323176093530572,548278,462283,500925
653323176100966632,548519,462309,500981
653323176108402692,548485,462558,501092
653323176115838752,548618,462503,501199
653323176123274812,548697,462722,501444
653323176130710872,548892,462670,501496
653323176138146932,549101,462788,501599
653323176145582992,549056,462766,501573
653323176153019052,549100,462805,501715
653323176160455112,549058,462758,501624
653323176167891172,549176,462880,501627
653323176175327232,548977,462764,501634
653323176182794240,548551,462725,501459
653323176190228480,548428,462575,501257
653323176197662720,548364,462286,501123
653323176205096960,548287,462165,500901
653323176212531200,547926,462140,500683
653323176219965440,547653,461993,500512
653323176227399680,547514,461968,500198
653323176234833920,547300,461850,500079
653323176242268160,547178,461612,499818
653323176249702400,546842,461609,499683
653323176257136640,546700,461497,499562
653323176264570880,546554,461364,499337
653323176272005120,546439,461224,499205
653323176279439360,546343,461008,499028
653323176286873600,545989,460946,498853
653323176294307840,545783,460944,498761
653323176301742080,545716,460843,498536
653323176309176320,545507,460819,498455
653323176316517723,545530,460631,498492
653323176323957424,545434,460463,498302
653323176331397125,545196,460350,498093
653323176338836826,544938,460299,497931
653323176346276527,544869,460251,497796
653323176353716228,544777,460136,497724
653323176361155929,544646,460022,497605
653323176368595630,544510,460056,497392
653323176376035331,544295,460052,497357
653323176383475032,544342,459944,497280
653323176390914733,544159,459906,497263
653323176398354434,544210,459870,497338
653323176405794135,544151,459836,497141
653323176413233836,544085,459953,497138
653323176420673537,544235,459876,497211
653323176428113238,544290,460053,497356
653323176435552939,544325,460090,497306
653323176442992640,544346,459959,497261
653323176450494244,544169,459842,497544
653323176457930304,544315,459824,497486
653323176465366364,544287,459835,497275
653323176472802424,544352,459891,497377
653323176480238484,544390,459912,497349
653323176487674544,544410,460032,497380
653323176495110604,544332,460170,497434
653323176502546664,544338,460162,497237
653323176509982724,544478,460154,497411
653323176517418784,544415,460031,497411
653323176524854844,544362,460083,497618
653323176532290904,544432,460083,497577
653323176539726964,544520,460059,497403
653323176547163024,544551,460210,497572
653323176554599084,544597,460279,497612
653323176562035144,544660,460280,497752
653323176569471204,544676,460193,497750
653323176576907264,544827,460290,497758
653323176584343332,544612,460347,497543
653323176591779392,544660,460408,497629
653323176599215452,544867,460365,497813
653323176606651512,544903,460296,497966
653323176614087572,545074,460524,498111
653323176621523632,545088,460551,498179
653323176628959692,545284,460558,498123
653323176636395752,544974,460313,498448
653323176643831812,545199,460547,498442
653323176651267872,545336,460701,498526
653323176658703932,545420,460762,498519
653323176666139992,545663,460808,498630
653323176673576052,545740,461001,498637
653323176681012112,545915,461077,498693
653323176688448172,546008,461074,498719
653323176695884232,546138,461170,498905
653323176703320292,546317,461272,499004
653323176710756352,546446,461370,499252
653323176718161480,546750,461222,499170
653323176725599360,546709,461285,499410
653323176733037240,546765,461507,499420
653323176740475120,546750,461507,499381
6.53323E+17,546853,461723,499629
653323176755350880,547033,461564,499795
653323176762788760,547076,461722,499893
653323176770226640,547356,461773,500016
653323176777664520,547401,461874,500099
653323176785102400,547365,461882,500061
653323176792540280,547498,461992,500257
653323176799978160,547496,461876,500355
653323176807416040,547776,462016,500452
653323176814853920,547786,462159,500532
653323176822291800,548028,462384,500621
653323176829729680,548031,462537,500717
653323176837167560,548127,462518,500858
653323176844605440,548376,462593,500977
653323176852074276,548481,462600,501144
653323176859510336,548585,462772,501136
653323176866946396,548898,462767,501338
653323176874382456,548908,462797,501419
653323176881818516,548998,462498,501729
653323176889254576,549088,462808,501728
653323176896690636,549235,463002,501832
653323176904126696,549359,463152,501958
653323176911562756,549366,463125,501898
653323176918998816,549579,463237,501940
653323176926434876,549653,463242,502259
653323176933870936,549812,463197,502256
653323176941306996,549834,463410,502418
653323176948743056,549983,463496,502333
653323176956179116,550147,463613,502558
653323176963615176,550084,463703,502650
653323176971051236,550253,463635,502732
653323176978487296,550296,463567,502683
653323176985954304,550589,463783,502827
653323176993388544,550235,463578,502639
653323177000822784,550110,463523,502430
653323177008257024,549980,463436,502299
653323177015691264,549738,463266,502195
653323177023125504,549337,463049,502098
653323177030559744,549137,462852,501728
653323177037993984,548937,462656,501495
653323177045428224,548798,462662,501424
653323177052862464,548515,462419,501250
653323177060296704,548193,462376,501148
653323177067730944,548043,462163,500767
653323177075165184,547900,462100,500690
653323177082599424,547834,462130,500534
653323177090033664,547721,462128,500307
653323177097467904,547394,461933,500222
653323177104902144,547359,461796,500076
653323177112336384,547234,461686,499843
653323177119739684,547306,461535,500005
653323177127175744,547025,461498,499868
653323177134611804,546891,461398,499713
653323177142047864,546767,461381,499521
653323177149483924,546413,461361,499241
653323177156919984,546182,461312,499157
653323177164356044,546187,461227,499112
653323177171792104,546029,461142,499051
653323177179228164,545961,461121,499054
653323177186664224,545951,461020,498907
653323177194100284,545859,460968,498851
653323177201536344,545861,460990,498846
653323177208972404,545756,460890,498710
653323177216408464,545698,460836,498732
653323177223844524,545792,460864,498810
653323177231280584,545823,460838,498698
653323177238716644,545863,460783,498646
653323177246152704,545927,460816,498808
653323177253526875,545617,460806,498811
653323177260966576,545780,460872,498791
653323177268406277,545721,460944,498809
653323177275845978,545688,460917,498799
653323177283285679,545715,460867,498848
653323177290725380,545741,460861,498734
653323177298165081,545804,460989,498830
653323177305604782,545892,460958,498885
653323177313044483,545972,460964,498864
653323177320484184,545852,461000,498898
653323177327923885,545898,461133,499028
653323177335363586,545974,461137,498921
653323177342803287,546051,461055,498943
653323177350242988,546189,461124,498882
653323177357682689,545957,461118,499064
653323177365122390,546145,461100,499002
653323177372562091,546120,460834,498995
653323177380001792,546215,461012,499040
653323177387534336,546401,461340,498884
653323177394968576,546240,461280,498965
653323177402402816,546336,461303,499125
653323177409837056,546417,461417,499308
653323177417271296,546513,461388,499341
653323177424705536,546511,461426,499442
653323177432139776,546543,461478,499516
653323177439574016,546599,461341,499480
653323177447008256,546659,461426,499611
653323177454442496,546756,461548,499595
653323177461876736,546925,461612,499807
653323177469310976,546909,461592,499799
653323177476745216,546996,461692,499875
653323177484179456,547011,461768,499984
653323177491613696,547116,461821,500056
653323177499047936,547351,461840,500045
653323177506482176,547367,461860,500184
653323177513916416,547499,461921,500268
653323177521288776,547232,462035,500141
653323177528726656,547491,462149,500362
653323177536164536,547545,461969,500435
653323177543602416,547857,462105,500640
653323177551040296,547947,462265,500679
653323177558478176,547973,462447,500760
653323177565916056,548126,462418,500959
653323177573353936,548229,462265,500878
653323177580791816,548197,462429,501069
653323177588229696,548422,462474,501213
653323177595667576,548488,462560,501301
653323177603105456,548655,462721,501435
653323177610543336,548723,462723,501423
653323177617981216,548744,462765,501415
653323177625419096,548969,462915,501626
653323177632856976,549165,462950,501774
653323177640294856,549195,463088,501834
653323177647732736,549122,463095,501740
653323177655139675,549461,463217,501554
653323177662579376,549579,463222,501999
653323177670019077,549501,463214,502056
653323177677458778,549622,463221,502260
653323177684898479,549791,463275,502481
653323177692338180,549846,463386,502375
653323177699777881,549913,463431,502477
653323177707217582,550161,463645,502680
653323177714657283,550272,463704,502811
653323177722096984,550257,463663,502827
653323177729536685,550326,463773,503042
653323177736976386,550478,463868,503011
653323177744416087,550625,464060,503207
653323177751855788,550802,464065,503253
653323177759295489,550815,464157,503324
653323177766735190,550891,464169,503448
653323177774174891,551188,464164,503562
653323177781614592,551218,464155,503604
653323177789116196,551446,464403,503734
653323177796552256,551404,464279,503747
653323177803988316,551088,464158,503480
653323177811424376,550863,463929,503402
653323177818860436,550785,463818,503343
653323177826296496,550586,463802,503135
653323177833732556,550254,463549,502985
653323177841168616,550070,463480,502788
653323177848604676,549996,463424,502620
653323177856040736,549747,463285,502419
653323177863476796,549598,463071,502195
653323177870912856,549374,462920,501969
653323177878348916,549129,462824,501659
653323177885784976,548936,462848,501530
653323177893221036,548682,462679,501508
653323177900657096,548569,462536,501383
653323177908093156,548495,462511,501308
653323177915529216,548173,462411,501220
653323177922965284,548037,462330,501109
653323177930401344,547897,462144,500843
653323177937837404,547712,462152,500726
653323177945273464,547538,461986,500552
653323177952709524,547301,461890,500446
653323177960145584,547239,461776,500195
653323177967581644,547085,461671,500170
653323177975017704,546945,461632,500107
653323177982453764,546735,461517,499799
653323177989889824,546745,461398,499762
653323177997325884,546593,461330,499619
653323178004761944,546458,461229,499516
653323178012198004,546251,461248,499423
653323178019634064,546267,461182,499402
653323178027070124,546222,461007,499194
653323178034506184,546178,460960,499206
653323178041942244,546177,461005,499310
653323178049378304,546063,460927,499169
653323178056783432,546232,461214,499103
653323178064221312,546091,461036,499260
653323178071659192,545983,460936,499207
653323178079097072,546103,460916,499328
653323178086534952,546249,461146,499499
653323178093972832,546083,461116,499365
653323178101410712,546093,460978,499364
653323178108848592,546134,461029,499278
653323178116286472,546221,461120,499410
653323178123724352,546245,461131,499402
653323178131162232,546325,461189,499450
653323178138600112,546227,461066,499457
653323178146037992,546228,461114,499555
653323178153475872,546079,461030,499497
653323178160913752,546184,461191,499523
653323178168351632,546217,461278,499495
653323178175789512,546282,461250,499519
653323178183227392,546180,461119,499504
653323178190727168,546481,461463,499430
653323178198161408,546434,461344,499505
653323178205595648,546519,461371,499573
653323178213029888,546461,461405,499630
653323178220464128,546474,461328,499601
653323178227898368,546538,461361,499711
653323178235332608,546546,461395,499680
653323178242766848,546720,461415,499753
653323178250201088,546748,461402,499765
653323178257635328,546728,461489,499922
653323178265069568,546740,461561,499923
653323178272503808,546849,461561,499961
653323178279938048,547035,461687,500114
653323178287372288,546955,461602,500035
653323178294806528,547119,461716,500229
653323178302240768,547133,461721,500300
653323178309675008,547145,461664,500293
653323178317109248,547229,461712,500381
653323178324450651,547020,462125,500738
653323178331890352,547334,461946,500716
653323178339330053,547453,461964,500614
653323178346769754,547683,462044,500795
653323178354209455,547917,462041,500813
653323178361649156,547840,462098,500887
653323178369088857,548036,462141,500985
653323178376528558,547962,462183,500965
653323178383968259,548074,462335,501009
653323178391407960,548317,462191,501208
653323178398847661,548415,462485,501258
653323178406287362,548503,462590,501372
653323178413727063,548635,462483,501545
653323178421166764,548636,462615,501632
653323178428606465,548828,462693,501731
653323178436046166,548881,462803,501675
653323178443485867,548833,462763,501821
653323178450925568,549012,462924,501947
653323178458427172,548943,462822,502218
653323178465863232,549102,462981,502162
653323178473299292,549501,463226,502317
653323178480735352,549550,463259,502446
653323178488171412,549540,463289,502441
653323178495607472,549691,463328,502452
653323178503043532,549873,463329,502601
653323178510479592,549996,463461,502756
653323178517915652,549986,463526,502894
653323178525351712,550139,463539,502963
653323178532787772,550299,463504,503022
653323178540223832,550372,463580,503150
653323178547659892,550347,463696,503190
653323178555095952,550505,463694,503297
653323178562532012,550618,463854,503421
653323178569968072,550704,463933,503601
653323178577404132,550880,464031,503667
653323178584840192,551001,464127,503791
653323178592307200,551024,464121,503738
653323178599741440,550925,464078,503844
653323178607175680,550786,464145,503862
653323178614609920,551008,464110,503789
653323178622044160,550796,464042,503681
653323178629478400,550749,463881,503656
653323178636912640,550600,463742,503387
653323178644346880,550427,463674,503201
653323178651781120,550249,463493,503090
653323178659215360,549887,463455,502855
653323178666649600,549584,463253,502675
653323178674083840,549449,462993,502460
653323178681518080,549123,462830,502167
653323178688952320,548847,462738,502108
653323178696386560,548788,462606,501900
653323178703820800,548553,462447,501579
653323178711255040,548365,462370,501429
653323178718689280,548184,462250,501292
653323178726030683,548005,462206,501055
653323178733470384,547803,462107,500968
653323178740910085,547677,462040,500867
653323178748349786,547442,461816,500689
653323178755789487,547246,461771,500513
653323178763229188,547214,461585,500423
653323178770668889,546837,461521,500026
653323178778108590,546735,461333,500006
653323178785548291,546603,461354,499893
653323178792987992,546502,461348,499822
653323178800427693,546364,461128,499594
653323178807867394,546265,461059,499580
653323178815307095,545989,461107,499524
653323178822746796,545986,460852,499480
653323178830186497,545880,460759,499252
653323178837626198,545629,460797,499104
653323178845065899,545687,460858,499085
653323178852505600,545721,460825,499150
653323178860038144,545813,460301,498989
653323178867472384,545730,460600,498971
653323178874906624,545652,460772,499156
653323178882340864,545525,460639,499026
653323178889775104,545490,460617,499010
653323178897209344,545425,460609,499102
653323178904643584,545517,460637,499026
653323178912077824,545483,460734,499048
653323178919512064,545607,460768,498968
653323178926946304,545609,460752,499018
653323178934380544,545626,460921,499022
653323178941814784,545637,460739,499129
653323178949249024,545536,460682,499150
653323178956683264,545591,460697,499194
653323178964117504,545681,460821,499109
653323178971551744,545636,460861,499191
653323178978985984,545644,460847,499180
653323178986420224,545653,460968,499174
653323178993761627,545801,460575,499242
653323179001201328,545614,460598,499219
653323179008641029,545688,460676,499159
653323179016080730,545732,460708,499236
653323179023520431,545604,460802,499263
653323179030960132,545596,460688,499250
653323179038399833,545822,460812,499253
653323179045839534,545855,460861,499319
653323179053279235,545827,460938,499396
653323179060718936,545955,460950,499420
653323179068158637,545948,460884,499458
653323179075598338,546056,460899,499652
653323179083038039,546174,461000,499652
653323179090477740,546226,461088,499814
653323179097917441,546443,461092,499837
653323179105357142,546444,461020,499757
653323179112796843,546455,461097,499820
653323179120236544,546589,461143,499869
653323179127738148,546727,461406,500078
653323179135174208,546746,461382,500142
653323179142610268,546703,461366,500188
653323179150046328,546945,461380,500245
653323179157482388,546968,461516,500208
653323179164918448,547134,461655,500404
653323179172354508,547204,461533,500465
653323179179790568,547209,461673,500577
653323179187226628,547286,461759,500685
653323179194662688,547335,461842,500733
653323179202098748,547562,461887,500771
653323179209534808,547649,461842,500854
653323179216970868,547765,461953,500980
653323179224406928,547882,461938,501077
653323179231842988,547941,462014,501082
653323179239279048,547998,462067,501179
653323179246715108,548124,462248,501289
653323179254151168,548122,462386,501584
653323179261556296,548054,462415,501648
653323179268994176,548252,462537,501630
653323179276432056,548418,462564,501671
653323179283869936,548396,462468,501648
653323179291307816,548505,462521,501665
653323179298745696,548719,462569,501857
653323179306183576,548840,462691,501955
653323179313621456,549009,462844,502043
653323179321059336,549021,462942,502144
653323179328497216,549217,462843,502290
653323179335935096,549303,463077,502568
653323179343372976,549354,463094,502463
653323179350810856,549232,463114,502463
653323179358248736,549344,463029,502525
653323179365686616,549517,463091,502756
653323179373124496,549683,463230,502868
653323179380562376,549658,463320,502980
653323179388000256,549750,463400,502993
653323179395469092,550182,463556,503200
653323179402905152,550097,463522,503142
653323179410341212,550078,463436,503141
653323179417777272,550073,463418,503056
653323179425213332,549848,463482,502980
653323179432649392,549707,463332,502880
653323179440085452,549498,463115,502640
653323179447521512,549212,462933,502596
653323179454957572,548981,462885,502243
653323179462393632,548765,462778,502246
653323179469829692,548613,462634,501877
653323179477265752,548382,462502,501719
653323179484701812,548087,462280,501599
653323179492137872,547884,462199,501382
653323179499573932,547635,462126,501151
653323179507009992,547447,461941,500969
653323179514446052,547240,461801,500794
653323179521882112,547122,461745,500584
653323179529349120,546619,461780,500449
653323179536783360,546701,461503,500229
653323179544217600,546564,461497,500141
653323179551651840,546405,461288,499920
653323179559086080,546342,461200,499777
653323179566520320,546055,461104,499632
653323179573954560,545832,461033,499565
653323179581388800,545665,460855,499479
653323179588823040,545571,460692,499379
653323179596257280,545476,460569,499211
653323179603691520,545241,460557,499200
653323179611125760,545117,460510,499073
6.53323E+17,544946,460435,498979
653323179625994240,544832,460320,498756
653323179633428480,544796,460353,498721
653323179640862720,544542,460251,498646
653323179648296960,544481,460047,498452
653323179655731200,544512,460097,498516
653323179663072603,544287,460361,498359
653323179670512304,544420,460254,498414
653323179677952005,544460,460222,498327
653323179685391706,544402,460029,498263
653323179692831407,544336,459960,498397
653323179700271108,544329,460036,498271
653323179707710809,544534,460124,498196
653323179715150510,544427,460114,498187
653323179722590211,544603,460126,498167
653323179730029912,544459,460079,498344
653323179737469613,544513,460085,498389
653323179744909314,544502,460127,498354
653323179752349015,544509,460188,498407
653323179759788716,544618,460104,498412
653323179767228417,544875,460023,498202
653323179774668118,544648,460138,498375
653323179782107819,544606,460088,498525
653323179789547520,544545,460113,498507
653323179797018184,544832,460378,498552
653323179804456064,544830,460401,498647
653323179811893944,544807,460165,498605
653323179819331824,544775,460198,498672
653323179826769704,544711,460078,498640
653323179834207584,544672,460005,498509
653323179841645464,544693,460027,498604
653323179849083344,544767,460128,498691
653323179856521224,544874,460317,498813
653323179863959104,544918,460266,498785
653323179871396984,544937,460284,498740
653323179878834864,544843,460380,498688
653323179886272744,544922,460364,498795
653323179893710624,545021,460428,498924
653323179901148504,545046,460395,498927
653323179908586384,545176,460341,498908
653323179916024264,545191,460278,498856
653323179923462144,545222,460434,498932
653323179930930980,545199,460424,498784
653323179938367040,545256,460473,499001
653323179945803100,545446,460671,499012
653323179953239160,545560,460794,499211
653323179960675220,545662,460839,499170
653323179968111280,545633,460938,499272
653323179975547340,545649,460738,499242
653323179982983400,545944,460910,499400
653323179990419460,546043,461074,499527
653323179997855520,546029,461139,499532
653323180005291580,546198,461150,499680
653323180012727640,546075,461114,499714
653323180020163700,546395,461284,499794
653323180027599760,546575,461371,499960
653323180035035820,546606,461453,500031
653323180042471880,546600,461402,499907
653323180049907940,546721,461460,500118
6.53323E+17,546883,461651,500185
653323180064811008,546725,461400,500176
653323180072245248,546978,461557,500355
653323180079679488,547264,461765,500481
653323180087113728,547313,461801,500648
653323180094547968,547374,461873,500837
653323180101982208,547487,461968,500827
653323180109416448,547656,462053,500895
653323180116850688,547673,462096,500943
653323180124284928,547834,461978,501008
653323180131719168,547916,462173,501139
653323180139153408,548100,462276,501241
653323180146587648,548164,462335,501496
653323180154021888,548259,462456,501461
653323180161456128,548497,462504,501547
653323180168890368,548623,462591,501554
653323180176324608,548724,462690,501617
653323180183758848,548739,462660,501715
653323180191193088,548892,462736,501760
653323180198534491,549033,462859,502021
653323180205974192,549132,462959,502154
653323180213413893,549277,463112,502364
653323180220853594,549125,462982,502306
653323180228293295,549139,462898,502229
653323180235732996,549213,462889,502109
653323180243172697,549013,462815,502090
653323180250612398,548853,462537,501879
653323180258052099,548700,462346,501684
653323180265491800,548480,462233,501570
653323180272931501,548156,462165,501438
653323180280371202,547873,462059,501291
653323180287810903,547712,461919,501084
653323180295250604,547508,461805,500889
653323180302690305,547267,461535,500649
653323180310130006,546979,461426,500382
653323180317569707,546720,461378,500180
653323180325009408,546683,461356,500243
653323180332541952,546773,461263,500051
653323180339976192,546463,461127,499856
653323180347410432,546212,461039,499581
653323180354844672,545984,460999,499455
653323180362278912,545727,460818,499456
653323180369713152,545553,460815,499174
653323180377147392,545409,460722,499035
653323180384581632,545242,460545,499019
653323180392015872,545163,460519,498745
653323180399450112,545093,460477,498815
653323180406884352,544921,460273,498715
653323180414318592,544895,460315,498755
653323180421752832,544828,460313,498528
653323180429187072,544561,460124,498362
653323180436621312,544546,459974,498506
653323180444055552,544516,459970,498413
653323180451489792,544456,460069,498267
653323180458924032,544300,460005,498251
653323180466265435,544154,460061,497960
653323180473705136,544270,459996,498081
653323180481144837,544211,459947,498166
653323180488584538,544406,460025,498351
653323180496024239,544443,460095,498300
653323180503463940,544544,460064,498264
653323180510903641,544637,460141,498308
653323180518343342,544638,460104,498321
653323180525783043,544637,460170,498310
653323180533222744,544627,460217,498273
653323180540662445,544706,460217,498482
653323180548102146,544730,460115,498422
653323180555541847,544835,460197,498430
653323180562981548,544758,460135,498336
653323180570421249,544758,460183,498402
653323180577860950,544701,460137,498440
653323180585300651,544900,460229,498677
653323180592740352,544916,460214,498693
653323180600272896,545063,459915,498987
653323180607707136,544863,460138,498707
653323180615141376,545035,460192,498686
653323180622575616,544974,460344,498647
653323180630009856,545095,460309,498765
653323180637444096,545022,460326,498634
653323180644878336,545089,460452,498826
653323180652312576,545175,460514,498776
653323180659746816,545220,460471,498747
653323180667181056,545295,460504,498839
653323180674615296,545212,460433,498912
653323180682049536,545321,460611,499030
653323180689483776,545416,460602,499014
653323180696918016,545578,460664,499135
653323180704352256,545771,460645,499227
653323180711786496,545678,460742,499300
653323180719220736,545875,460791,499344
653323180726654976,545949,460978,499559
653323180733996379,546149,460889,499650
653323180741436080,546190,461012,499663
653323180748875781,546266,461129,499822
653323180756315482,546466,461221,499835
653323180763755183,546433,461243,499951
653323180771194884,546475,461331,500053
653323180778634585,546652,461354,500166
653323180786074286,546830,461410,500265
653323180793513987,547001,461447,500320
653323180800953688,547054,461490,500372
653323180808393389,547155,461627,500465
653323180815833090,547200,461617,500573
653323180823272791,547323,461739,500671
653323180830712492,547512,461793,500756
653323180838152193,547506,461844,500625
653323180845591894,547470,461796,500736
653323180853031595,547515,461791,500940
653323180860471296,547638,461801,501059
653323180867972900,548054,462176,501264
653323180875408960,547967,462224,501166
653323180882845020,548158,462237,501265
653323180890281080,548166,462258,501466
653323180897717140,548397,462352,501659
653323180905153200,548505,462357,501655
653323180912589260,548674,462399,501691
653323180920025320,548679,462487,501797
653323180927461380,548634,462483,501862
653323180934897440,548793,462511,502049
653323180942333500,548942,462617,502202
653323180949769560,549112,462730,502235
653323180957205620,549154,462763,502335
653323180964641680,549313,462874,502422
653323180972077740,549281,462913,502504
653323180979513800,549500,462993,502493
653323180986949860,549533,463119,502458
653323180994385920,549504,462974,502395
653323181001821988,549614,462865,502068
653323181009258048,549341,462680,502146
653323181016694108,549277,462736,502205
653323181024130168,548811,462659,501964
653323181031566228,548613,462431,501831
653323181039002288,548407,462203,501672
653323181046438348,548245,462152,501524
653323181053874408,548031,462033,501340
653323181061310468,547798,461849,501102
653323181068746528,547596,461935,500882
653323181076182588,547461,461762,500592
653323181083618648,547266,461402,500412
653323181091054708,547097,461478,500372
653323181098490768,546915,461319,500262
653323181105926828,546746,461238,500110
653323181113362888,546641,461207,500053
653323181120798948,546434,461057,499847
653323181128235008,546279,460977,499741
653323181135640136,546307,461103,499778
653323181143078016,546098,460787,499517
653323181150515896,545895,460698,499309
653323181157953776,545598,460597,499169
653323181165391656,545602,460655,498965
653323181172829536,545390,460433,499054
653323181180267416,545396,460402,499006
653323181187705296,545394,460282,498900
653323181195143176,545368,460400,498910
653323181202581056,545272,460419,498851
653323181210018936,545187,460307,498911
653323181217456816,545089,460331,498854
653323181224894696,545122,460487,498924
653323181232332576,545271,460436,498854
653323181239770456,545242,460376,498778
653323181247208336,545314,460421,498914
653323181254646216,545361,460389,498857
653323181262084096,545525,460563,498916
653323181269552932,545431,460804,498730
653323181276988992,545440,460585,498870
653323181284425052,545396,460547,498948
653323181291861112,545444,460387,498920
653323181299297172,545459,460455,498907
653323181306733232,545558,460476,498950
653323181314169292,545536,460466,498977
653323181321605352,545550,460573,499071
653323181329041412,545611,460528,499073
653323181336477472,545561,460533,499037
653323181343913532,545638,460605,499203
653323181351349592,545659,460649,499193
653323181358785652,545761,460587,499140
653323181366221712,545787,460564,499282
653323181373657772,545738,460631,499309
653323181381093832,545685,460610,499382
653323181388529892,545886,460690,499311
653323181395965952,545898,460744,499412
653323181403371080,546246,460670,499629
653323181410808960,545969,460741,499536
653323181418246840,545916,460848,499498
653323181425684720,546017,460878,499538
653323181433122600,546108,460919,499628
653323181440560480,546173,460935,499673
653323181447998360,546313,461042,499740
653323181455436240,546296,460930,499693
653323181462874120,546555,461086,499965
6.53323E+17,546651,461034,500019
653323181477749880,546731,461099,500003
653323181485187760,546790,461214,500079
653323181492625640,546750,461259,500158
653323181500063520,546662,461307,500279
653323181507501400,546942,461484,500325
653323181514939280,547057,461469,500378
653323181522377160,547013,461530,500566
653323181529815040,547182,461601,500670
653323181537314816,547315,461971,500889
653323181544749056,547416,461720,500767
653323181552183296,547571,461828,500824
653323181559617536,547557,461819,500934
653323181567051776,547653,462014,501034
653323181574486016,547926,461834,501183
653323181581920256,547992,462037,501206
653323181589354496,548128,462096,501191
653323181596788736,548282,462269,501294
653323181604222976,548306,462244,501447
653323181611657216,548276,462320,501493
653323181619091456,548308,462299,501544
653323181626525696,548564,462391,501707
653323181633959936,548469,462465,501691
653323181641394176,548644,462534,501896
653323181648828416,548753,462653,502056
653323181656262656,548966,462681,502032
653323181663696896,549101,462704,502121
653323181671038299,549226,462630,502237
6.53323E+17,549245,462820,502282
653323181685917701,549441,462961,502457
653323181693357402,549450,462968,502518
653323181700797103,549439,462907,502564
653323181708236804,549484,462984,502641
653323181715676505,549404,462806,502466
653323181723116206,549268,462923,502339
653323181730555907,549094,462818,502111
653323181737995608,548895,462660,502093
653323181745435309,548758,462485,501917
653323181752875010,548602,462338,501786
653323181760314711,548389,462261,501548
653323181767754412,548318,462041,501494
653323181775194113,547958,461943,501235
653323181782633814,547648,461780,500839
653323181790073515,547333,461634,500605
653323181797513216,547082,461445,500502
653323181805068982,546697,461256,500365
653323181812501856,546752,461204,500290
653323181819934730,546640,461035,500073
653323181827367604,546405,461052,499820
653323181834800478,546238,461011,499721
653323181842233352,545942,460923,499421
653323181849666226,545706,460718,499309
653323181857099100,545641,460695,499301
653323181864531974,545449,460468,499063
653323181871964848,545187,460423,498937
653323181879397722,545136,460437,498815
653323181886830596,544994,460282,498610
653323181894263470,544773,460166,498376
653323181901696344,544741,460032,498242
653323181909129218,544576,460015,498151
653323181916562092,544400,459949,498225
653323181923994966,544407,459862,498110
653323181931427840,544407,459896,498137
653323181938752402,544490,460049,498142
653323181946191648,544390,459960,498011
653323181953630894,544242,459822,498037
653323181961070140,544160,459868,497987
653323181968509386,544123,459830,497910
653323181975948632,544320,459875,498034
653323181983387878,544286,459755,497965
653323181990827124,544192,459915,498043
653323181998266370,544253,459961,497879
653323182005705616,544265,459953,497919
653323182013144862,544206,459925,497977
653323182020584108,544198,459684,497859
653323182028023354,544160,459881,497988
653323182035462600,544245,459872,497925
653323182042901846,544352,459879,498037
653323182050341092,544386,459895,498031
653323182057780338,544387,459989,498015
653323182065219584,544370,460028,498063
653323182072712996,544150,460071,497799
653323182080149056,544213,460000,497911
653323182087585116,544403,459889,497875
653323182095021176,544439,460007,498028
653323182102457236,544401,459871,498076
653323182109893296,544419,459872,498083
653323182117329356,544487,459825,498066
653323182124765416,544513,460007,498145
653323182132201476,544642,460151,498229
653323182139637536,544734,460039,498310
653323182147073596,544835,460216,498274
653323182154509656,544870,460240,498297
653323182161945716,544942,460219,498407
653323182169381776,544950,460112,498386
653323182176817836,545072,460368,498598
653323182184253896,545069,460429,498702
653323182191689956,545075,460371,498751
653323182199126016,545193,460471,498894
653323182206531144,545213,460185,499082
653323182213969024,545378,460380,499076
653323182221406904,545585,460620,499075
653323182228844784,545582,460697,499065
653323182236282664,545677,460723,499215
653323182243720544,545821,460792,499340
653323182251158424,545980,460853,499325
653323182258596304,546052,460898,499347
653323182266034184,546136,461011,499505
653323182273472064,546174,460957,499529
653323182280909944,546299,461007,499686
653323182288347824,546300,461063,499635
653323182295785704,546440,461361,499765
653323182303223584,546456,461355,499904
653323182310661464,546481,461384,499890
653323182318099344,546782,461402,500076
653323182325537224,546803,461404,500127
653323182332975104,546967,461446,500193
653323182340443940,546922,461581,500110
6.53323E+17,547014,461758,500404
653323182355316060,547245,461720,500428
653323182362752120,547403,461786,500611
653323182370188180,547575,461836,500688
653323182377624240,547704,461855,500914
653323182385060300,547823,461899,501015
653323182392496360,547918,462012,500956
653323182399932420,547999,462078,501122
653323182407368480,547930,462120,501128
653323182414804540,548105,462247,501185
653323182422240600,548274,462301,501344
653323182429676660,548227,462365,501326
653323182437112720,548170,462347,501304
653323182444548780,548100,462357,501298
653323182451984840,548120,462330,501220
653323182459420900,548054,462281,501174
653323182466856960,547891,462031,501030
653323182474293028,547446,461661,500727
653323182481729088,547340,461651,500675
653323182489165148,547097,461605,500454
653323182496601208,546947,461404,500214
653323182504037268,546679,461276,500075
653323182511473328,546397,461134,499779
653323182518909388,546233,460996,499624
653323182526345448,546028,460933,499488
653323182533781508,545941,460766,499241
653323182541217568,545651,460711,498950
653323182548653628,545493,460483,498765
653323182556089688,545310,460451,498724
653323182563525748,545081,460284,498566
653323182570961808,544845,460235,498493
653323182578397868,544691,460075,498301
653323182585833928,544526,460077,498185
653323182593269988,544494,459899,498043
653323182600706048,544150,459882,497759
653323182608111176,543765,459558,497717
653323182615549056,543784,459600,497491
653323182622986936,543635,459565,497278
653323182630424816,543437,459427,497088
653323182637862696,543317,459256,496983
653323182645300576,543293,459064,496881
653323182652738456,543159,459077,496668
653323182660176336,543109,459036,496571
653323182667614216,542931,458970,496573
653323182675052096,542756,458983,496436
653323182682489976,542804,458916,496469
653323182689927856,542773,458863,496456
653323182697365736,542816,458966,496337
653323182704803616,542789,458819,496426
653323182712241496,542843,459004,496420
653323182719679376,542848,459057,496443
653323182727117256,542719,459066,496477
653323182734555136,542823,459089,496501
653323182742023972,542806,459121,496300
653323182749460032,542677,459100,496418
653323182756896092,542754,458932,496448
653323182764332152,542814,458923,496406
653323182771768212,542918,458981,496459
653323182779204272,542928,459024,496469
653323182786640332,542827,459000,496412
653323182794076392,542971,459047,496427
653323182801512452,543016,458992,496402
653323182808948512,542998,459077,496529
653323182816384572,542896,459025,496425
653323182823820632,542987,458971,496459
653323182831256692,543075,459005,496556
653323182838692752,543026,459096,496522
653323182846128812,543054,459084,496487
653323182853564872,543124,459128,496657
653323182861000932,543213,459051,496597
653323182868436992,543277,459204,496690
653323182875842120,543517,459072,496569
6.53323E+17,543324,459183,496788
653323182890717880,543366,459207,496888
653323182898155760,543549,459266,496994
653323182905593640,543650,459432,496996
653323182913031520,543719,459489,497058
653323182920469400,543756,459491,497092
653323182927907280,543822,459482,497128
653323182935345160,543807,459493,497227
653323182942783040,543946,459617,497224
653323182950220920,544102,459511,497283
653323182957658800,544223,459593,497244
653323182965096680,544084,459614,497368
653323182972534560,544227,459829,497661
653323182979972440,544339,459818,497669
653323182987410320,544489,460006,497685
653323182994848200,544508,460096,497824
653323183002286080,544557,460102,497943
653323183009723976,544868,460234,497691
653323183017161856,544943,460213,497859
653323183024599736,544943,460300,498095
653323183032037616,545057,460343,498200
653323183039475496,545118,460446,498297
653323183046913376,545287,460435,498371
653323183054351256,545436,460414,498453
653323183061789136,545472,460557,498590
653323183069227016,545627,460582,498699
653323183076664896,545707,460632,498774
653323183084102776,545984,460839,498914
653323183091540656,545865,460772,498971
653323183098978536,545974,460876,499055
653323183106416416,546112,460958,499126
653323183113854296,546224,461121,499270
653323183121292176,546302,461040,499365
653323183128730056,546502,461116,499408
653323183136167936,546559,461161,499549
653323183143636772,546567,461080,499752
653323183151072832,546675,461173,499717
653323183158508892,546833,461319,499835
653323183165944952,546991,461345,500017
653323183173381012,547007,461500,499974
653323183180817072,547102,461459,499944
653323183188253132,547102,461448,499907
653323183195689192,546934,461355,499910
653323183203125252,546736,461251,499762
653323183210561312,546574,461224,499583
653323183217997372,546439,461029,499366
653323183225433432,546283,460980,499235
653323183232869492,545957,460850,498975
653323183240305552,545857,460719,498740
653323183247741612,545613,460603,498630
653323183255177672,545345,460364,498444
653323183262613732,545125,460329,498215
653323183270049792,544881,460240,498112
653323183277509065,544760,460231,497859
653323183284943760,544505,460000,497781
653323183292378455,544284,459891,497565
653323183299813150,544130,459717,497325
653323183307247845,543931,459506,497122
653323183314682540,543733,459402,496973
653323183322117235,543540,459367,496872
653323183329551930,543295,459291,496600
653323183336986625,543271,459325,496524
653323183344421320,543046,459087,496288
653323183351856015,543023,459009,496249
653323183359290710,542892,458865,496052
653323183366725405,542725,458833,495771
653323183374160100,542463,458766,495758
653323183381594795,542435,458661,495522
653323183389029490,542308,458486,495456
653323183396464185,542050,458454,495437
653323183403898880,542078,458448,495385
653323183411256210,541948,458499,495092
653323183418695456,541969,458238,495086
653323183426134702,541917,458315,495110
653323183433573948,541978,458244,495210
653323183441013194,541848,458357,495144
653323183448452440,541721,458218,495114
653323183455891686,541876,458237,495176
653323183463330932,541946,458352,495248
653323183470770178,541907,458371,495197
653323183478209424,542055,458486,495296
653323183485648670,542048,458515,495265
653323183493087916,542019,458481,495313
653323183500527162,542046,458419,495241
653323183507966408,542104,458392,495268
653323183515405654,542013,458461,495248
653323183522844900,542155,458483,495400
653323183530284146,542020,458302,495269
653323183537723392,541998,458332,495304
653323183545240009,542229,458399,495531
653323183552674704,542288,458409,495376
653323183560109399,542100,458429,495210
653323183567544094,542232,458406,495312
653323183574978789,542162,458579,495397
653323183582413484,542314,458527,495444
653323183589848179,542331,458644,495351
653323183597282874,542433,458686,495339
653323183604717569,542382,458693,495513
653323183612152264,542556,458725,495448
653323183619586959,542571,458791,495632
653323183627021654,542653,458796,495712
653323183634456349,542593,458867,495726
653323183641891044,542711,458782,495710
653323183649325739,542725,458954,495914
653323183656760434,542982,458899,496027
653323183664195129,542999,459093,496051
653323183671629824,543031,459068,496194
653323183678987154,543078,459325,495991
653323183686426400,543067,459152,496068
653323183693865646,543194,459118,496234
653323183701304892,543343,459125,496387
653323183708744138,543557,459313,496479
653323183716183384,543552,459418,496443
653323183723622630,543724,459378,496631
653323183731061876,543668,459300,496626
653323183738501122,543798,459534,496645
653323183745940368,544049,459623,496845
653323183753379614,544212,459583,496797
653323183760818860,544261,459608,497064
653323183768258106,544202,459661,497062
653323183775697352,544354,459798,497239
653323183783136598,544536,459924,497298
653323183790575844,544562,460024,497482
653323183798015090,544675,459929,497497
653323183805454336,544771,460053,497700
653323183812947748,544758,460361,497521
653323183820383808,544916,460346,497608
653323183827819868,545041,460395,497744
653323183835255928,545183,460458,497983
653323183842691988,545407,460389,498096
653323183850128048,545546,460526,498162
653323183857564108,545648,460699,498329
653323183865000168,545749,460622,498252
653323183872436228,545852,460789,498541
653323183879872288,546053,460829,498508
653323183887308348,546170,460987,498574
653323183894744408,546188,460985,498654
653323183902180468,546291,461040,498780
653323183909616528,546405,461131,498988
653323183917052588,546537,461214,499167
653323183924488648,546642,461292,499207
653323183931924708,546659,461314,499248
653323183939360768,546863,461434,499364
653323183946796836,547153,461563,499424
653323183954232896,547079,461610,499584
653323183961668956,547092,461482,499669
653323183969105016,547291,461547,499647
653323183976541076,547201,461549,499724
653323183983977136,547066,461496,499701
653323183991413196,547015,461379,499479
653323183998849256,547001,461421,499449
653323184006285316,546708,461359,499248
653323184013721376,546565,461248,499084
653323184021157436,546314,461028,498853
653323184028593496,546127,460941,498598
653323184036029556,545931,460795,498450
653323184043465616,545669,460558,498244
653323184050901676,545459,460331,497984
653323184058337736,545251,460353,497885
653323184065773796,544987,460188,497705
653323184073209856,544732,460087,497469
653323184080645924,544367,459810,497465
653323184088081984,544449,459774,497297
653323184095518044,544118,459717,496904
653323184102954104,543913,459658,496770
653323184110390164,543741,459627,496560
653323184117826224,543715,459480,496463
653323184125262284,543682,459487,496259
653323184132698344,543420,459396,496070
653323184140134404,543263,459266,496035
653323184147570464,542957,459237,495838
653323184155006524,542905,458971,495690
653323184162442584,542693,458921,495543
653323184169878644,542649,458901,495523
653323184177314704,542594,458709,495311
653323184184750764,542516,458610,495134
653323184192186824,542232,458631,495109
653323184199622884,542146,458530,494881
653323184207058944,542101,458513,494830
653323184214464072,542165,458498,494732
653323184221901952,542107,458490,494806
653323184229339832,542084,458373,494788
653323184236777712,542085,458482,494854
653323184244215592,542066,458418,494833
653323184251653472,542195,458418,494884
653323184259091352,542172,458401,494988
653323184266529232,542188,458463,494932
653323184273967112,542256,458461,494923
653323184281404992,542249,458715,494946
653323184288842872,542105,458585,494893
653323184296280752,542131,458665,495005
653323184303718632,542217,458726,495027
653323184311156512,542273,458763,495003
653323184318594392,542231,458721,495059
653323184326032272,542287,458636,494990
653323184333470152,542332,458608,495062
653323184340908032,542151,458668,495041
653323184348376868,542215,458464,495246
653323184355812928,542402,458544,495168
653323184363248988,542334,458583,495106
653323184370685048,542500,458768,495252
653323184378121108,542438,458859,495188
653323184385557168,542410,458872,495161
653323184392993228,542516,458839,495131
653323184400429288,542405,458858,495125
653323184407865348,542695,458931,495309
653323184415301408,542780,458903,495300
653323184422737468,542765,458919,495401
653323184430173528,542990,459066,495555
653323184437609588,543022,459063,495532
653323184445045648,543133,459113,495723
653323184452481708,543312,459235,495860
653323184459917768,543301,459212,495905
653323184467353828,543484,459358,495912
653323184474789888,543526,459395,495989
653323184482218221,543656,459294,496207
653323184489654736,543600,459480,496242
653323184497091251,543727,459542,496200
653323184504527766,543841,459660,496357
653323184511964281,543824,459631,496275
653323184519400796,543994,459683,496471
653323184526837311,544113,459815,496467
653323184534273826,544249,459857,496768
653323184541710341,544321,459920,496753
653323184549146856,544425,459998,496744
653323184556583371,544492,460077,496896
653323184564019886,544704,460093,497057
653323184571456401,544730,460163,497035
653323184578892916,544800,460287,497198
653323184586329431,545001,460268,497333
653323184593765946,545048,460374,497406
653323184601202461,545240,460402,497481
653323184608638976,545348,460395,497587
653323184616083236,545463,460385,497483
653323184623519296,545596,460506,497713
653323184630955356,545662,460588,497823
653323184638391416,545785,460611,497955
653323184645827476,545889,460740,498105
653323184653263536,545928,460825,498115
653323184660699596,545997,460962,498280
653323184668135656,546150,461085,498369
653323184675571716,546355,461174,498611
653323184683007776,546310,461223,498635
653323184690443836,546447,461207,498697
653323184697879896,546498,461338,498790
653323184705315956,546683,461407,498848
653323184712752016,546784,461459,498888
653323184720188076,547000,461459,498963
653323184727624136,547027,461586,499297
653323184735060196,547232,461678,499370
653323184742496256,547351,461596,499425
653323184749963264,547148,461521,499718
653323184757397504,547334,461730,499747
653323184764831744,547569,461975,499841
653323184772265984,547718,462005,499865
653323184779700224,547861,462081,499914
653323184787134464,547903,461998,500070
653323184794568704,547882,462045,499961
653323184802002944,547922,462109,499966
653323184809437184,547954,462071,500016
653323184816871424,547747,462121,499910
653323184824305664,547664,461979,499661
653323184831739904,547487,461797,499514
653323184839174144,547320,461631,499373
653323184846608384,546966,461581,499241
653323184854042624,546930,461558,499021
653323184861476864,546551,461289,498713
653323184868911104,546518,461294,498648
653323184876345344,546266,461207,498471
653323184883686747,546109,460924,498464
653323184891126448,545849,460863,498233
653323184898566149,545702,460918,497923
653323184906005850,545587,460681,497808
653323184913445551,545365,460623,497728
653323184920885252,545168,460351,497486
653323184928324953,545102,460375,497240
653323184935764654,544916,460325,497167
653323184943204355,544691,460309,497038
653323184950644056,544597,460183,496669
653323184958083757,544388,460066,496665
653323184965523458,544209,459916,496664
653323184972963159,543964,459836,496498
653323184980402860,543785,459752,496345
653323184987842561,543632,459752,496187
653323184995282262,543641,459600,496184
653323185002721963,543550,459433,495898
653323185010161664,543285,459375,495657
653323185017694208,543586,459574,495706
653323185025128448,543362,459416,495736
653323185032562688,543300,459294,495689
653323185039996928,543011,459215,495603
653323185047431168,543068,459161,495556
653323185054865408,542997,459357,495499
653323185062299648,542973,459322,495458
653323185069733888,543033,459276,495411
653323185077168128,543079,459316,495500
653323185084602368,543230,459387,495660
653323185092036608,543077,459438,495644
653323185099470848,543078,459281,495536
653323185106905088,543173,459242,495674
653323185114339328,543084,459452,495637
653323185121773568,543275,459331,495553
653323185129207808,543315,459395,495529
653323185136642048,543383,459477,495762
653323185144076288,543397,459414,495676
653323185151417691,543335,459510,495510
653323185158857392,543377,459533,495642
653323185166297093,543433,459447,495683
653323185173736794,543413,459519,495724
653323185181176495,543290,459499,495745
653323185188616196,543381,459481,495763
653323185196055897,543530,459610,495693
653323185203495598,543535,459585,495846
653323185210935299,543645,459617,495936
6.53323E+17,543789,459633,496033
653323185225814701,543626,459676,496054
653323185233254402,543819,459664,496170
653323185240694103,543855,459747,496207
653323185248133804,543802,459629,496217
653323185255573505,544050,459665,496302
653323185263013206,544081,459758,496345
653323185270452907,544082,459887,496422
653323185277892608,543998,459903,496425
653323185285394212,544414,460187,496554
653323185292830272,544440,460185,496543
653323185300266332,544567,460266,496672
653323185307702392,544523,460195,496710
653323185315138452,544721,460243,496879
653323185322574512,544693,460386,496833
653323185330010572,544823,460373,497031
653323185337446632,545042,460496,497125
653323185344882692,545138,460615,497329
653323185352318752,545203,460576,497345
653323185359754812,545106,460743,497465
653323185367190872,545440,460731,497580
653323185374626932,545484,460777,497790
653323185382062992,545746,460849,497887
653323185389499052,545827,460926,498004
653323185396935112,546083,461026,498082
653323185404371172,546060,460986,498158
653323185411807232,546201,461175,498264
653323185419212360,546582,460950,498562
653323185426650240,546632,461207,498559
653323185434088120,546696,461399,498698
6.53323E+17,546771,461409,498773
653323185448963880,546754,461503,498862
653323185456401760,546824,461603,498888
653323185463839640,547103,461600,498975
653323185471277520,547198,461735,499074
653323185478715400,547288,461776,499130
653323185486153280,547492,461763,499206
653323185493591160,547617,461785,499266
653323185501029040,547844,461934,499599
653323185508466920,547847,462122,499525
653323185515904800,547958,462191,499666
653323185523342680,548106,462191,499736
653323185530780560,548218,462493,499901
653323185538218440,548231,462423,500081
653323185545656320,548416,462574,500217
653323185553125156,548756,462761,500099
653323185560561216,548790,462764,500400
653323185567997276,548847,462895,500599
653323185575433336,549033,462874,500737
653323185582869396,549188,462931,500695
653323185590305456,549224,463035,500933
653323185597741516,549307,463026,501076
653323185605177576,549399,462994,501189
653323185612613636,549681,463186,501389
653323185620049696,549779,463163,501364
653323185627485756,550007,463420,501586
653323185634921816,550118,463495,501730
653323185642357876,550206,463594,501814
653323185649793936,550290,463593,501867
653323185657229996,550217,463563,501877
653323185664666056,550178,463524,501840
653323185672102116,550053,463390,501729
653323185679538176,549844,463400,501565
653323185686943304,549732,463066,501258
653323185694381184,549517,463057,501230
653323185701819064,549301,462907,501091
653323185709256944,549136,462788,500879
653323185716694824,548894,462646,500760
653323185724132704,548613,462626,500547
653323185731570584,548379,462559,500292
653323185739008464,548163,462349,500286
653323185746446344,548174,462280,500028
653323185753884224,548145,462197,499946
653323185761322104,547922,462160,499730
653323185768759984,547626,462057,499609
653323185776197864,547438,461891,499361
653323185783635744,547429,461881,499330
653323185791073624,547358,461819,499052
653323185798511504,547085,461731,498986
653323185805949384,547007,461674,498861
653323185813387264,546719,461551,498751
653323185820856100,546347,461278,498528
653323185828292160,546362,461298,498477
653323185835728220,546421,461242,498410
653323185843164280,546280,461274,498235
653323185850600340,546178,461309,498133
653323185858036400,546172,461182,498111
653323185865472460,545988,461102,497940
653323185872908520,545903,461064,497825
653323185880344580,545838,461102,497761
653323185887780640,545587,460978,497789
653323185895216700,545678,460927,497661
653323185902652760,545617,460996,497820
653323185910088820,545782,460949,497807
653323185917524880,545849,460944,497705
653323185924960940,545823,461074,497682
6.53323E+17,545902,461056,497747
653323185939833060,545854,461033,497742
653323185947269120,545957,460951,497809
653323185954705188,545898,461378,497764
653323185962141248,545911,461258,497802
653323185969577308,545795,461138,497832
653323185977013368,546021,461257,497959
653323185984449428,546015,461270,497893
653323185991885488,546023,461156,497917
653323185999321548,546023,461192,497870
653323186006757608,546111,461177,498042
653323186014193668,546085,461207,497927
653323186021629728,546069,461325,497995
653323186029065788,546018,461296,497925
653323186036501848,546147,461288,497835
653323186043937908,546042,461383,497937
653323186051373968,546025,461289,498025
653323186058810028,546079,461290,497895
653323186066246088,546130,461464,498048
653323186073682148,546093,461387,497998
653323186081118208,546221,461445,498152
653323186088554276,546604,461741,497911
653323186095990336,546523,461719,498145
653323186103426396,546332,461656,498323
653323186110862456,546318,461561,498285
653323186118298516,546512,461645,498415
653323186125734576,546423,461731,498449
653323186133170636,546500,461638,498516
653323186140606696,546731,461745,498538
653323186148042756,546753,461674,498610
653323186155478816,546993,461869,498900
653323186162914876,547038,461965,498924
653323186170350936,546980,461962,498973
653323186177786996,547118,462118,498977
653323186185223056,547135,462171,499125
653323186192659116,547259,462233,499176
653323186200095176,547411,462272,499324
653323186207531236,547475,462342,499431
653323186214967296,547629,462365,499485
653323186222434304,547817,462285,499016
653323186229868544,547903,462412,499429
653323186237302784,547888,462584,499679
653323186244737024,547972,462599,499774
653323186252171264,548137,462617,499918
653323186259605504,548187,462761,499969
653323186267039744,548338,462781,500047
653323186274473984,548445,462702,500206
653323186281908224,548634,462765,500365
653323186289342464,548605,462899,500329
653323186296776704,548821,463042,500525
653323186304210944,548844,463169,500591
653323186311645184,548980,463184,500607
653323186319079424,549035,463271,500688
653323186326513664,549168,463407,500886
653323186333947904,549313,463462,500983
653323186341382144,549250,463478,501021
653323186348816384,549347,463499,501084
653323186356157787,549196,463651,501352
653323186363597488,549514,463615,501366
653323186371037189,549523,463704,501315
653323186378476890,549687,463785,501342
653323186385916591,549935,463884,501629
653323186393356292,549961,464006,501749
653323186400795993,550026,463935,501811
653323186408235694,550265,464170,501784
653323186415675395,550300,464276,502006
653323186423115096,550457,464238,502142
653323186430554797,550659,464358,502184
653323186437994498,550835,464317,502355
653323186445434199,550927,464448,502552
653323186452873900,550962,464617,502564
653323186460313601,551067,464648,502461
653323186467753302,551270,464779,502807
653323186475193003,551278,464746,502678
653323186482632704,551327,464788,502763
653323186490188470,551484,464961,502577
653323186497621344,551276,464799,502600
653323186505054218,551183,464742,502587
653323186512487092,550951,464485,502456
653323186519919966,550804,464385,502382
653323186527352840,550427,464188,502118
653323186534785714,550425,464015,502048
653323186542218588,550123,463925,501861
653323186549651462,550010,463882,501735
653323186557084336,549654,463728,501647
653323186564517210,549540,463683,501464
653323186571950084,549351,463435,501210
653323186579382958,549222,463396,501060
653323186586815832,549147,463271,500958
653323186594248706,548847,463119,500857
653323186601681580,548761,463197,500794
653323186609114454,548745,463008,500456
653323186616547328,548572,463055,500353
653323186623871890,548481,462675,500153
653323186631311136,548270,462544,499987
653323186638750382,548179,462616,499874
653323186646189628,547919,462584,499900
653323186653628874,547899,462565,499773
653323186661068120,547650,462452,499596
653323186668507366,547626,462455,499614
653323186675946612,547530,462509,499531
653323186683385858,547347,462198,499377
653323186690825104,547218,462240,499352
653323186698264350,547206,462250,499112
653323186705703596,547173,462141,499222
653323186713142842,547225,462234,499189
653323186720582088,547017,462069,499004
653323186728021334,546915,462077,498989
653323186735460580,546913,462075,499020
653323186742899826,547021,462011,498910
653323186750339072,547100,462161,499074
653323186757832484,547215,462255,498864
653323186765268544,547254,462228,499090
653323186772704604,547225,462145,499131
653323186780140664,547102,462139,499126
653323186787576724,547150,462167,499192
653323186795012784,547272,462215,499173
653323186802448844,547276,462135,499165
653323186809884904,547254,462379,499161
653323186817320964,547305,462248,499064
653323186824757024,547305,462372,499302
653323186832193084,547390,462275,499257
653323186839629144,547336,462296,499334
653323186847065204,547387,462311,499266
653323186854501264,547403,462344,499323
653323186861937324,547437,462317,499254
653323186869373384,547455,462433,499351
653323186876809444,547468,462410,499420
653323186884245504,547605,462373,499368
653323186891681572,547717,462209,499453
653323186899117632,547663,462333,499480
653323186906553692,547721,462457,499556
653323186913989752,547664,462431,499678
653323186921425812,547772,462543,499645
653323186928861872,547830,462633,499694
653323186936297932,547966,462801,499812
653323186943733992,548061,462663,499908
653323186951170052,548088,462634,499914
653323186958606112,548147,462825,499974
653323186966042172,548156,462879,500141
653323186973478232,548153,462798,500101
653323186980914292,548330,462885,500080
653323186988350352,548304,463001,500242
653323186995786412,548399,463037,500196
653323187003222472,548437,463050,500276
653323187010658532,548685,462928,500445
653323187018094592,548784,463176,500665
653323187025522925,548607,463027,500589
653323187032959440,548721,463065,500694
653323187040395955,548958,463222,500826
653323187047832470,549025,463339,500928
653323187055268985,549216,463472,501071
653323187062705500,549315,463460,501065
653323187070142015,549225,463489,501111
653323187077578530,549417,463613,501216
653323187085015045,549562,463539,501299
653323187092451560,549706,463686,501399
653323187099888075,549848,463750,501443
653323187107324590,549858,463824,501503
653323187114761105,549982,463870,501471
653323187122197620,550026,464034,501637
653323187129634135,550224,464183,501748
653323187137070650,550330,464230,501922
653323187144507165,550468,464285,501949
653323187151943680,550582,464128,502094
653323187159364735,550684,464394,502215
653323187166802160,550814,464352,502281
653323187174239585,550817,464438,502433
653323187181677010,550911,464468,502464
653323187189114435,550786,464454,502538
653323187196551860,550828,464470,502583
653323187203989285,550984,464506,502619
653323187211426710,551214,464649,502784
653323187218864135,551371,464745,502924
653323187226301560,551388,464824,502892
653323187233738985,551497,464879,503091
653323187241176410,551635,464943,503192
653323187248613835,551658,465033,503213
653323187256051260,551833,465023,503387
653323187263488685,551950,465106,503436
653323187270926110,552219,465209,503550
653323187278363535,552281,465301,503675
653323187285800960,552256,465398,503793
653323187293253869,552542,465585,503812
653323187300690384,552601,465416,503975
653323187308126899,552746,465341,504027
653323187315563414,552872,465619,504215
653323187322999929,552819,465726,504226
653323187330436444,552962,465671,504156
653323187337872959,552775,465667,504069
653323187345309474,552740,465592,504109
653323187352745989,552521,465377,503951
653323187360182504,552432,465270,503753
653323187367619019,552160,465200,503719
653323187375055534,551962,465148,503424
653323187382492049,551648,465021,503273
653323187389928564,551540,464806,503185
653323187397365079,551299,464651,502901
653323187404801594,551024,464461,502782
653323187412238109,550843,464312,502514
653323187419674624,550642,464128,502348
653323187427118884,550690,464113,501981
653323187434554944,550369,464060,502007
653323187441991004,549963,463942,501844
653323187449427064,549810,463707,501698
653323187456863124,549733,463708,501633
653323187464299184,549412,463611,501374
653323187471735244,549041,463295,501368
653323187479171304,548990,463240,501055
653323187486607364,548863,463089,500896
653323187494043424,548749,463165,500761
653323187501479484,548654,463029,500600
653323187508915544,548433,463015,500372
653323187516351604,548314,462872,500247
653323187523787664,548096,462769,500113
653323187531223724,547755,462624,499993
653323187538659784,547816,462455,499836
653323187546095844,547682,462445,499783
653323187553531904,547679,462493,499704
653323187560967972,547455,462556,499357
653323187568404032,547512,462381,499362
653323187575840092,547327,462335,499340
653323187583276152,547354,462265,499474
653323187590712212,547340,462330,499328
653323187598148272,547225,462236,499192
653323187605584332,547313,462297,499153
653323187613020392,547376,462399,499321
653323187620456452,547257,462310,499286
653323187627892512,547256,462319,499326
653323187635328572,547303,462154,499286
653323187642764632,547354,462240,499396
653323187650200692,547283,462281,499195
653323187657636752,547351,462219,499284
653323187665072812,547167,462288,499340
653323187672508872,547351,462245,499363
653323187679944932,547274,462230,499219
653323187687380992,547284,462308,499301
653323187694786120,547564,462059,499607
6.53323E+17,547326,462097,499351
653323187709661880,547255,462090,499410
653323187717099760,547282,462356,499407
653323187724537640,547198,462401,499483
653323187731975520,547303,462310,499429
653323187739413400,547317,462262,499467
653323187746851280,547440,462335,499493
653323187754289160,547396,462238,499515
653323187761727040,547354,462340,499478
653323187769164920,547438,462304,499567
653323187776602800,547498,462359,499598
653323187784040680,547538,462212,499547
653323187791478560,547620,462479,499746
653323187798916440,547572,462520,499768
653323187806354320,547703,462466,499695
653323187813792200,547863,462575,499869
653323187821230080,547859,462608,499887
653323187828698916,547669,462650,499648
653323187836134976,547913,462599,499868
653323187843571036,548056,462782,500067
653323187851007096,547945,462852,500003
653323187858443156,548172,462798,500184
653323187865879216,548177,462817,500332
653323187873315276,548377,462765,500332
653323187880751336,548481,463047,500552
653323187888187396,548561,463128,500450
653323187895623456,548693,463111,500632
653323187903059516,548758,463141,500774
653323187910495576,548822,463115,500775
653323187917931636,548954,463252,500979
653323187925367696,549075,463277,501007
653323187932803756,549099,463363,501032
653323187940239816,549153,463229,501103
653323187947675876,549117,463337,501240
653323187955111936,549261,463333,501220
653323187962578944,549446,463408,501203
653323187970013184,549610,463556,501410
653323187977447424,549761,463756,501538
653323187984881664,549671,463719,501494
653323187992315904,549760,463713,501723
653323187999750144,549990,463777,501776
653323188007184384,550039,463830,501811
653323188014618624,550078,463907,501801
653323188022052864,550101,463994,502043
653323188029487104,550192,464070,502130
653323188036921344,550228,464156,502238
653323188044355584,550390,464135,502306
653323188051789824,550671,464080,502329
653323188059224064,550592,464291,502442
653323188066658304,550738,464290,502529
653323188074092544,550921,464430,502587
653323188081526784,550965,464503,502671
653323188088961024,550984,464519,502903
653323188096333384,551331,464298,502697
653323188103771264,551280,464580,502818
653323188111209144,551417,464634,502876
653323188118647024,551328,464752,503049
653323188126084904,551446,464792,503267
653323188133522784,551657,464724,503324
653323188140960664,551824,464958,503409
653323188148398544,551914,465044,503555
653323188155836424,551933,465051,503728
653323188163274304,552112,465176,503734
653323188170712184,552149,465196,503931
653323188178150064,552333,465224,503876
653323188185587944,552430,465389,503998
653323188193025824,552541,465476,504039
653323188200463704,552556,465392,504090
653323188207901584,552404,465186,503897
653323188215339464,552319,465194,503831
653323188222777344,552214,465125,503697
653323188230277120,552156,465079,503485
653323188237711360,551769,464908,503432
653323188245145600,551555,464796,503279
653323188252579840,551387,464670,503152
653323188260014080,551079,464443,502973
653323188267448320,550773,464181,502737
653323188274882560,550406,464121,502495
653323188282316800,550242,464023,502251
653323188289751040,550088,463873,502082
653323188297185280,549796,463716,501874
653323188304619520,549606,463560,501684
653323188312053760,549460,463304,501384
6.53323E+17,548970,463249,501180
653323188326922240,548894,463052,501041
653323188334356480,548747,462994,500912
653323188341790720,548459,462760,500710
653323188349224960,548224,462703,500563
653323188356659200,547980,462575,500484
653323188364031560,548101,462099,500112
653323188371469440,547622,462194,499995
653323188378907320,547472,462206,499819
653323188386345200,547158,462168,499651
653323188393783080,547009,462094,499417
653323188401220960,546901,461995,499344
653323188408658840,546854,461824,499212
653323188416096720,546672,461803,499219
653323188423534600,546506,461674,499093
653323188430972480,546390,461618,498981
653323188438410360,546338,461529,498820
653323188445848240,546211,461544,498818
653323188453286120,546053,461544,498736
6.53323E+17,546027,461476,498626
653323188468161880,546003,461424,498573
653323188475599760,546070,461475,498669
653323188483037640,545990,461410,498588
653323188490475520,546099,461423,498567
653323188497913416,546086,461208,498587
653323188505351296,545849,461318,498449
653323188512789176,545834,461275,498413
653323188520227056,545857,461275,498515
653323188527664936,545910,461135,498534
653323188535102816,545890,461291,498634
653323188542540696,545837,461240,498583
653323188549978576,545680,461167,498595
653323188557416456,545730,461229,498552
653323188564854336,545684,461341,498589
653323188572292216,545789,461371,498455
653323188579730096,545819,461267,498425
653323188587167976,545741,461301,498513
653323188594605856,545673,461308,498490
653323188602043736,545683,461335,498640
653323188609481616,545753,461251,498603
653323188616919496,545615,461282,498570
653323188624357376,545774,461311,498603
653323188631826212,545508,461168,498383
653323188639262272,545673,461227,498552
653323188646698332,545755,461212,498602
653323188654134392,545822,461222,498651
653323188661570452,545867,461365,498642
653323188669006512,545988,461407,498544
653323188676442572,545983,461395,498777
653323188683878632,546061,461417,498809
653323188691314692,546049,461546,498929
653323188698750752,546091,461463,498936
653323188706186812,546159,461473,499013
653323188713622872,546218,461636,499058
653323188721058932,546239,461576,499138
653323188728494992,546458,461720,499165
653323188735931052,546600,461722,499175
653323188743367112,546608,461814,499322
653323188750803172,546713,461896,499326
653323188758239232,546837,461858,499386
653323188765675300,546935,461750,499535
653323188773111360,546999,462225,499701
653323188780547420,546908,462105,499712
653323188787983480,546921,462164,499677
653323188795419540,547135,462288,499765
653323188802855600,547157,462270,499962
653323188810291660,547079,462249,500004
653323188817727720,547397,462272,500141
653323188825163780,547352,462431,500157
653323188832599840,547461,462284,500279
653323188840035900,547504,462286,500223
653323188847471960,547652,462395,500312
653323188854908020,547760,462468,500421
653323188862344080,547830,462507,500684
653323188869780140,547810,462524,500627
653323188877216200,548056,462737,500821
653323188884652260,548004,462817,500882
653323188892088320,548167,462875,500945
653323188899524388,548335,463148,500665
653323188906960448,548448,463144,500994
653323188914396508,548428,463071,501084
653323188921832568,548555,463122,501163
653323188929268628,548695,463188,501129
653323188936704688,548801,463091,501294
653323188944140748,548805,463197,501440
653323188951576808,549048,463275,501685
653323188959012868,549031,463347,501690
653323188966448928,549258,463328,501840
653323188973884988,549182,463481,502023
653323188981321048,549354,463483,501897
653323188988757108,549423,463470,502120
653323188996193168,549461,463544,502198
653323189003629228,549641,463574,502210
653323189011065288,549813,463745,502364
653323189018501348,549956,463806,502366
653323189025937408,549899,463990,502530
653323189033342536,550020,464527,502862
653323189040780416,550147,464242,502881
653323189048218296,550256,464328,502875
653323189055656176,550441,464307,503024
653323189063094056,550441,464283,503116
653323189070531936,550519,464234,503071
653323189077969816,550515,464214,503044
653323189085407696,550394,464315,503124
653323189092845576,550329,464159,503081
653323189100283456,550198,464034,502912
653323189107721336,549973,463974,502771
653323189115159216,549620,463722,502543
653323189122597096,549487,463616,502344
653323189130034976,549157,463519,502104
653323189137472856,548901,463254,501792
653323189144910736,548630,463013,501588
653323189152348616,548349,462821,501350
653323189159786496,548023,462737,501088
653323189167255332,547957,462721,500970
653323189174691392,547687,462590,500801
653323189182127452,547279,462338,500486
653323189189563512,547059,462104,500265
653323189196999572,546935,462024,500040
653323189204435632,546673,461853,499848
653323189211871692,546468,461730,499621
653323189219307752,546148,461643,499465
653323189226743812,545915,461286,499224
653323189234179872,545599,461241,499046
653323189241615932,545454,461016,498891
653323189249051992,545185,460872,498698
653323189256488052,545051,460929,498487
653323189263924112,544971,460861,498402
653323189271360172,544669,460676,498244
653323189278796232,544298,460581,498132
653323189286232292,544244,460456,497930
653323189293668352,544169,460382,497873
653323189301096685,544169,460146,497465
653323189308533200,544048,460058,497551
653323189315969715,543690,460172,497552
653323189323406230,543618,459945,497430
653323189330842745,543479,459921,497346
653323189338279260,543655,460018,497432
653323189345715775,543419,460024,497316
653323189353152290,543533,460007,497279
653323189360588805,543466,460060,497300
653323189368025320,543426,459994,497221
653323189375461835,543435,460101,497354
653323189382898350,543399,460061,497354
653323189390334865,543427,460018,497198
653323189397771380,543447,459900,497197
653323189405207895,543357,459921,497161
653323189412644410,543345,459938,497222
653323189420080925,543328,459967,497106
653323189427517440,543262,459904,497204
653323189434992640,543414,460120,497430
653323189442426880,543229,459937,497257
653323189449861120,543332,459927,497156
653323189457295360,543218,459889,497164
653323189464729600,543257,459995,497087
653323189472163840,543391,459885,497207
653323189479598080,543352,459893,497067
653323189487032320,543406,459933,497194
653323189494466560,543419,459898,497138
653323189501900800,543368,460031,497275
653323189509335040,543310,459974,497300
653323189516769280,543295,459984,497192
653323189524203520,543355,460109,497266
653323189531637760,543451,460101,497324
6.53323E+17,543487,460121,497300
653323189546506240,543671,460172,497433
653323189553940480,543585,460177,497543
653323189561374720,543679,460244,497562
653323189568723858,543666,460390,497476
653323189576163104,543777,460335,497553
653323189583602350,543919,460491,497719
653323189591041596,543875,460453,497704
653323189598480842,543949,460352,497730
653323189605920088,544195,460527,497964
653323189613359334,544150,460500,497849
653323189620798580,544243,460630,497990
653323189628237826,544206,460534,498021
653323189635677072,544303,460661,498140
653323189643116318,544408,460858,498244
653323189650555564,544576,460821,498322
653323189657994810,544564,460882,498436
653323189665434056,544586,460878,498510
653323189672873302,544751,461000,498467
653323189680312548,544868,460945,498559
653323189687751794,544956,461011,498600
653323189695191040,545051,461216,498843
653323189702707657,545339,461560,498963
653323189710142352,545370,461335,498967
653323189717577047,545379,461344,499033
653323189725011742,545540,461399,499081
653323189732446437,545620,461433,499168
653323189739881132,545738,461441,499242
653323189747315827,545799,461582,499374
653323189754750522,545914,461679,499502
653323189762185217,545985,461801,499599
653323189769619912,546057,461844,499586
653323189777054607,545972,461780,499784
653323189784489302,546231,461889,499944
653323189791923997,546404,462071,500033
653323189799358692,546449,462023,499959
653323189806793387,546615,462109,500039
653323189814228082,546665,462155,500245
653323189821662777,546772,462147,500294
653323189829097472,546975,462228,500451
653323189836454802,547214,462077,500487
653323189843894048,547187,462357,500697
653323189851333294,547213,462349,500714
653323189858772540,547383,462482,500874
653323189866211786,547341,462560,500821
653323189873651032,547543,462624,501025
653323189881090278,547749,462771,501259
653323189888529524,547846,462886,501283
653323189895968770,547930,462829,501338
653323189903408016,548044,463040,501450
653323189910847262,548273,463138,501552
653323189918286508,548199,463135,501675
653323189925725754,548332,463125,501881
6.53323E+17,548480,463313,502015
653323189940604246,548602,463357,502002
653323189948043492,548636,463402,501995
653323189955482738,548585,463359,501891
653323189962921984,548616,463375,501974
653323189970469558,548670,463440,501664
653323189977902432,548329,463305,501661
653323189985335306,548263,463128,501516
653323189992768180,548065,462945,501491
653323190000201054,547530,462687,501251
653323190007633928,547383,462541,500929
653323190015066802,547216,462435,500842
653323190022499676,546828,462128,500635
653323190029932550,546641,461992,500385
653323190037365424,546453,461887,500103
653323190044798298,546200,461702,499974
653323190052231172,545988,461620,499693
653323190059664046,545687,461519,499545
653323190067096920,545596,461465,499573
653323190074529794,545381,461378,499243
653323190081962668,545099,461107,498960
653323190089395542,544780,461040,498885
653323190096828416,544619,460876,498740
653323190104176200,544134,460767,498678
653323190111614080,544192,460629,498366
653323190119051960,543982,460439,498140
653323190126489840,543802,460431,497986
653323190133927720,543685,460406,497964
653323190141365600,543522,460257,497782
653323190148803480,543360,460190,497568
653323190156241360,543272,460039,497471
653323190163679240,543011,459998,497310
653323190171117120,542989,459938,497224
6.53323E+17,542856,459828,497146
653323190185992880,542786,459627,497084
653323190193430760,542625,459674,496847
653323190200868640,542699,459633,496843
653323190208306520,542591,459635,496763
653323190215744400,542439,459658,496668
653323190223182280,542460,459436,496628
653323190230620160,542350,459630,496676
653323190238058056,542692,459778,496894
653323190245495936,542588,459623,496844
653323190252933816,542618,459676,496826
653323190260371696,542609,459712,496712
653323190267809576,542613,459562,496746
653323190275247456,542612,459614,496798
653323190282685336,542696,459516,496814
653323190290123216,542610,459616,496765
653323190297561096,542613,459786,496808
653323190304998976,542567,459723,496789
653323190312436856,542392,459657,496718
653323190319874736,542338,459619,496596
653323190327312616,542545,459600,496597
653323190334750496,542492,459574,496720
653323190342188376,542479,459586,496684
653323190349626256,542531,459691,496795
653323190357064136,542613,459761,496681
653323190364502016,542602,459783,496792
653323190371939912,542793,459900,496776
653323190379377792,542766,459717,496806
653323190386815672,542483,459755,496823
653323190394253552,542566,459819,496845
653323190401691432,542755,459781,496909
653323190409129312,542696,459737,496846
653323190416567192,542860,459809,497020
653323190424005072,542807,459794,496925
653323190431442952,543039,459712,497065
653323190438880832,542966,459892,497011
653323190446318712,543043,460024,497185
653323190453756592,543224,459831,497194
653323190461194472,543182,460088,497128
653323190468632352,543169,460031,497238
653323190476070232,543366,460156,497425
653323190483508112,543436,460262,497570
653323190490945992,543497,460177,497498
653323190498383872,543577,460288,497533
653323190505914605,543535,460363,497650
653323190513347024,543747,460497,497846
653323190520779443,543831,460393,497842
653323190528211862,543956,460497,498018
653323190535644281,543967,460501,498011
653323190543076700,544155,460627,498035
653323190550509119,544182,460765,498125
653323190557941538,544160,460649,498183
653323190565373957,544316,460753,498327
653323190572806376,544473,460658,498310
653323190580238795,544687,460740,498455
653323190587671214,544721,460905,498461
653323190595103633,544870,461025,498683
653323190602536052,545044,461063,498795
653323190609968471,544972,461031,498812
653323190617400890,545195,461170,498895
653323190624833309,545137,461255,499069
653323190632265728,545293,461396,499200
653323190639574363,545542,461582,499354
653323190647014064,545577,461408,499304
653323190654453765,545706,461549,499425
653323190661893466,545801,461617,499405
653323190669333167,545875,461680,499431
653323190676772868,545993,461680,499675
653323190684212569,545995,461833,499672
653323190691652270,546173,461837,499818
653323190699091971,546172,461951,499833
653323190706531672,546277,461927,499778
653323190713971373,546411,462057,499966
653323190721411074,546576,462061,500146
653323190728850775,546621,462076,500285
653323190736290476,546655,462240,500401
653323190743730177,546807,462279,500470
653323190751169878,547027,462345,500494
653323190758609579,547123,462369,500773
653323190766049280,547296,462318,501002
653323190773550884,547564,462311,500762
653323190780986944,547518,462472,500884
653323190788423004,547659,462602,501023
653323190795859064,547686,462732,501217
653323190803295124,547612,462743,501148
653323190810731184,547669,462739,501171
653323190818167244,547610,462652,501168
653323190825603304,547428,462516,501078
653323190833039364,547358,462452,501019
653323190840475424,547251,462271,500761
653323190847911484,547066,462249,500642
653323190855347544,546757,462003,500530
653323190862783604,546317,461865,500334
653323190870219664,546227,461731,499905
653323190877655724,545988,461662,499680
653323190885091784,545783,461457,499570
653323190892527844,545529,461272,499406
653323190899963904,545338,461179,499237
653323190907430912,545286,460837,499166
653323190914865152,544965,460888,498886
653323190922299392,544687,460675,498758
653323190929733632,544483,460579,498621
653323190937167872,544323,460542,498437
653323190944602112,544111,460465,498127
653323190952036352,544006,460323,497908
653323190959470592,543753,460269,497904
653323190966904832,543646,460165,497817
653323190974339072,543477,459999,497596
653323190981773312,543365,459940,497459
653323190989207552,543179,459919,497317
653323190996641792,543125,459727,497220
653323191004076032,542977,459767,497105
653323191011510272,542841,459703,496908
653323191018944512,542595,459630,496952
653323191026378752,542645,459392,496675
653323191033812992,542460,459383,496630
653323191041154395,542541,459683,496600
653323191048594096,542430,459505,496575
653323191056033797,542349,459375,496627
653323191063473498,542394,459347,496597
653323191070913199,542363,459322,496606
653323191078352900,542301,459258,496531
653323191085792601,542287,459192,496581
653323191093232302,542261,459251,496518
653323191100672003,542400,459432,496502
653323191108111704,542281,459424,496536
653323191115551405,542412,459426,496567
653323191122991106,542476,459452,496565
653323191130430807,542334,459447,496633
653323191137870508,542399,459365,496678
653323191145310209,542522,459453,496777
653323191152749910,542420,459361,496573
653323191160189611,542400,459364,496593
653323191167629312,542443,459374,496629
653323191175161856,542619,459328,496434
653323191182596096,542507,459323,496525
653323191190030336,542533,459397,496638
653323191197464576,542550,459371,496663
653323191204898816,542664,459567,496745
653323191212333056,542571,459482,496629
653323191219767296,542674,459420,496675
653323191227201536,542786,459468,496700
653323191234635776,542748,459520,496821
653323191242070016,542738,459638,496855
653323191249504256,542843,459680,496855
653323191256938496,542806,459721,496923
653323191264372736,542941,459736,497091
653323191271806976,542873,459686,497053
653323191279241216,542800,459701,497143
653323191286675456,543040,459736,497237
653323191294109696,543209,459852,497380
653323191301543936,543225,459870,497339
653323191308885339,543201,460031,497600
653323191316325040,543321,460000,497525
653323191323764741,543514,460069,497522
653323191331204442,543338,460037,497538
653323191338644143,543618,460152,497604
653323191346083844,543783,460187,497633
653323191353523545,543776,460235,497638
653323191360963246,543825,460207,497673
653323191368402947,543905,460378,497862
653323191375842648,543982,460405,497905
653323191383282349,544165,460491,498057
653323191390722050,544268,460579,498132
653323191398161751,544328,460646,498293
653323191405601452,544462,460587,498317
653323191413041153,544666,460904,498141
653323191420480854,544790,460860,498387
653323191427920555,544848,460890,498534
653323191435360256,545007,460960,498652
653323191442861860,544959,460818,499049
653323191450297920,545096,460927,498996
653323191457733980,545157,461062,498949
653323191465170040,545232,461017,499058
653323191472606100,545354,461140,499221
653323191480042160,545289,461260,499118
653323191487478220,545478,461197,499277
653323191494914280,545509,461230,499320
653323191502350340,545684,461321,499361
653323191509786400,545748,461497,499410
653323191517222460,545857,461646,499580
653323191524658520,546066,461687,499774
653323191532094580,546154,461729,499895
653323191539530640,546343,461785,500004
653323191546966700,546342,461864,500123
653323191554402760,546492,461988,500095
653323191561838820,546696,461982,500141
653323191569274880,546919,462019,500342
653323191576710948,546785,462373,500674
653323191584147008,547017,462317,500639
653323191591583068,547074,462254,500637
653323191599019128,547096,462319,500789
653323191606455188,547230,462381,500717
653323191613891248,547349,462444,500946
653323191621327308,547570,462395,500915
653323191628763368,547723,462569,501178
653323191636199428,547823,462630,501193
653323191643635488,547855,462713,501304
653323191651071548,547946,462746,501218
653323191658507608,547975,462850,501091
653323191665943668,547945,462860,501188
653323191673379728,547882,462640,501288
653323191680815788,547771,462594,501120
653323191688251848,547567,462485,501049
653323191695687908,547400,462296,500757
653323191703123968,547223,462135,500747
653323191710529096,547050,461859,500701
653323191717966976,546723,461833,500379
653323191725404856,546462,461739,500106
653323191732842736,546142,461629,499932
653323191740280616,545939,461411,499758
653323191747718496,545696,461247,499437
653323191755156376,545583,461235,499116
653323191762594256,545287,460941,498749
653323191770032136,544963,460859,498677
653323191777470016,544744,460743,498513
653323191784907896,544473,460527,498396
653323191792345776,544312,460429,498295
653323191799783656,544181,460339,498094
653323191807221536,543945,460192,497743
653323191814659416,543880,460198,497733
653323191822097296,543594,459966,497366
653323191829535176,543580,459879,497316
653323191836973056,543261,459778,497176
653323191844441892,543076,459732,496867
653323191851877952,542881,459551,496838
653323191859314012,542677,459364,496675
653323191866750072,542428,459168,496506
653323191874186132,542397,459078,496438
653323191881622192,542293,459149,496421
653323191889058252,542213,459085,496268
653323191896494312,542053,458959,496109
653323191903930372,541906,458971,495962
653323191911366432,541889,458989,495951
653323191918802492,542028,458886,495831
653323191926238552,542017,459004,495983
653323191933674612,541930,458913,495870
653323191941110672,541911,458817,495880
653323191948546732,541850,458750,495812
653323191955982792,542046,458852,495921
653323191963418852,542069,458908,495918
653323191970854912,541995,458823,495929
653323191978314185,542035,458960,495960
653323191985748880,542081,458900,495783
653323191993183575,541961,458907,495820
653323192000618270,541996,458876,495846
653323192008052965,542053,458818,495857
653323192015487660,541937,458995,495829
653323192022922355,542014,458849,495834
653323192030357050,542049,458970,495916
653323192037791745,541997,458944,495880
653323192045226440,542067,458861,495774
653323192052661135,542162,458933,495905
653323192060095830,542109,458818,495811
653323192067530525,542167,458933,495781
653323192074965220,542205,458943,495757
653323192082399915,542059,458941,495781
653323192089834610,542179,458880,495839
653323192097269305,542190,458901,495996
6.53323E+17,542303,458988,496084
653323192112092287,542342,459085,496250
653323192119529712,542431,459107,496143
653323192126967137,542307,459030,496092
653323192134404562,542391,459142,496206
653323192141841987,542622,459080,496144
653323192149279412,542585,459180,496263
653323192156716837,542832,459233,496345
653323192164154262,542884,459271,496477
653323192171591687,542871,459420,496545
653323192179029112,543051,459418,496712
653323192186466537,543080,459444,496661
653323192193903962,543141,459591,496775
653323192201341387,543220,459690,496862
653323192208778812,543367,459649,496925
653323192216216237,543486,459745,497025
653323192223653662,543570,459714,497119
653323192231091087,543634,459872,497211
653323192238528512,543573,459808,497235
653323192245958216,543960,459767,497480
653323192253396096,543906,459886,497474
653323192260833976,543898,460040,497471
653323192268271856,544082,460222,497517
653323192275709736,544160,460139,497658
653323192283147616,544225,460221,497740
653323192290585496,544501,460352,497886
653323192298023376,544509,460350,497967
653323192305461256,544595,460443,497947
653323192312899136,544611,460460,498076
653323192320337016,544809,460611,498221
653323192327774896,544918,460576,498333
653323192335212776,545012,460721,498389
653323192342650656,545261,460850,498568
