timestamp,ch1,ch2,ch3
653329438324368896,-57850,-76218,-73440
653329438331807232,-58187,-76149,-73426
653329438339245568,-58269,-75991,-73338
653329438346683904,-58278,-76155,-73462
653329438354122240,-58343,-76058,-73542
653329438361560576,-58249,-75942,-73411
653329438368998912,-58240,-75976,-73462
653329438376437248,-58263,-76010,-73448
653329438383875584,-58318,-76089,-73442
653329438391313920,-58377,-76060,-73358
653329438398752256,-58308,-76146,-73398
653329438406190592,-58403,-75955,-73274
653329438413628928,-58350,-76047,-73349
653329438421067264,-58291,-75960,-73283
653329438428505600,-58218,-76029,-73330
653329438435943936,-58083,-75938,-73229
653329438443382272,-58334,-75927,-73333
653329438450820608,-58177,-75919,-73301
653329438458320841,-58556,-76097,-73320
653329438465755536,-58385,-76071,-73330
653329438473190231,-58261,-76108,-73376
653329438480624926,-58294,-76137,-73390
653329438488059621,-58210,-76148,-73450
653329438495494316,-58436,-76155,-73463
653329438502929011,-58395,-76143,-73469
653329438510363706,-58336,-75968,-73378
653329438517798401,-58435,-76028,-73467
653329438525233096,-58446,-76104,-73471
653329438532667791,-58410,-76080,-73520
653329438540102486,-58449,-76120,-73454
653329438547537181,-58435,-76089,-73470
653329438554971876,-58416,-76226,-73493
653329438562406571,-58374,-76119,-73469
653329438569841266,-58416,-76057,-73504
653329438577275961,-58449,-75011,-72514
653329438584710656,-58397,-75704,-73067
653329438592083456,-58438,-75766,-73075
653329438599521792,-58397,-75868,-73283
653329438606960128,-57359,-74848,-72224
653329438614398464,-58038,-75601,-72894
653329438621836800,-58166,-75910,-73279
653329438629275136,-58315,-75973,-73357
653329438636713472,-57589,-76122,-73459
653329438644151808,-58134,-76182,-73504
653329438651590144,-58224,-76208,-73496
653329438659028480,-58390,-76098,-73430
653329438666466816,-58376,-76224,-73531
653329438673905152,-58463,-76211,-73550
653329438681343488,-58391,-76190,-73525
653329438688781824,-58379,-76225,-73451
653329438696220160,-58351,-76240,-73512
653329438703658496,-58450,-76212,-73667
653329438711096832,-58625,-76358,-73665
653329438718535168,-58558,-76281,-73743
653329438726097298,-58323,-75965,-73761
653329438733528352,-58518,-76205,-73875
653329438740959406,-58681,-76282,-73844
653329438748390460,-58761,-76368,-73817
653329438755821514,-58659,-76414,-73799
653329438763252568,-58790,-76514,-73936
653329438770683622,-58858,-76586,-74144
653329438778114676,-58839,-76440,-74109
653329438785545730,-58793,-76633,-74092
653329438792976784,-58957,-76567,-74219
653329438800407838,-58855,-76588,-74133
653329438807838892,-59024,-76546,-74284
653329438815269946,-59012,-76682,-74236
6.53329E+17,-59019,-76609,-74300
653329438830132054,-59029,-76648,-74305
653329438837563108,-58998,-76560,-74336
653329438844994162,-59113,-76552,-74349
653329438852425216,-59035,-76625,-74293
653329438859670600,-59120,-76376,-74059
653329438867112576,-59122,-76635,-74131
653329438874554552,-59131,-76764,-74295
653329438881996528,-59050,-76831,-74221
653329438889438504,-59103,-76687,-74120
653329438896880480,-59156,-75563,-73039
653329438904322456,-59139,-76433,-73885
653329438911764432,-59160,-76549,-74065
653329438919206408,-59097,-76729,-74190
653329438926648384,-58054,-75647,-73110
653329438934090360,-58634,-76372,-73600
653329438941532336,-58940,-76567,-73921
653329438948974312,-58959,-76649,-74174
653329438956416288,-58408,-76772,-74323
653329438963858264,-58809,-76842,-74182
653329438971300240,-58932,-76773,-74215
653329438978742216,-59093,-76752,-74285
653329438986184192,-59095,-76890,-74340
653329438993811858,-58847,-76608,-74239
653329439001242912,-59018,-76723,-74359
653329439008673966,-59109,-76733,-74391
653329439016105020,-59235,-76782,-74378
653329439023536074,-59200,-76901,-74481
653329439030967128,-59183,-76892,-74372
653329439038398182,-59113,-76777,-74427
653329439045829236,-59316,-76721,-74268
653329439053260290,-59327,-76779,-74350
653329439060691344,-59321,-76773,-74494
653329439068122398,-59304,-76864,-74482
653329439075553452,-59334,-76986,-74366
653329439082984506,-59268,-76955,-74419
653329439090415560,-59366,-76945,-74542
653329439097846614,-59415,-77034,-74562
653329439105277668,-59493,-76973,-74433
653329439112708722,-59546,-76924,-74542
653329439120139776,-59449,-76883,-74613
653329439127508937,-59172,-76740,-74810
653329439134943632,-59347,-76810,-74690
653329439142378327,-59377,-76957,-74652
653329439149813022,-59338,-77109,-74702
653329439157247717,-59458,-77008,-74619
653329439164682412,-59507,-77059,-74754
653329439172117107,-59437,-76992,-74671
653329439179551802,-59415,-77020,-74659
653329439186986497,-59423,-77004,-74726
653329439194421192,-59582,-77076,-74653
653329439201855887,-59456,-76950,-74625
653329439209290582,-59383,-76960,-74697
653329439216725277,-59542,-75831,-73645
653329439224159972,-59512,-76521,-74127
653329439231594667,-59406,-76903,-74280
653329439239029362,-59433,-76881,-74518
653329439246464057,-58294,-75940,-73520
653329439253898752,-58929,-76515,-74080
653329439261271552,-59255,-76813,-74255
653329439268709888,-59360,-76937,-74407
653329439276148224,-58627,-76951,-74605
653329439283586560,-59011,-76963,-74575
653329439291024896,-59240,-76926,-74586
653329439298463232,-59422,-76969,-74673
653329439305901568,-59378,-77020,-74678
653329439313339904,-59348,-76880,-74475
653329439320778240,-59511,-76820,-74512
653329439328216576,-59452,-76927,-74503
653329439335654912,-59580,-76941,-74504
653329439343093248,-59522,-76961,-74475
653329439350531584,-59390,-77004,-74476
653329439357969920,-59363,-77066,-74489
653329439365408256,-59138,-76757,-74340
653329439372846592,-59244,-76874,-74342
653329439380284928,-59301,-76873,-74376
653329439387723264,-59361,-76830,-74446
653329439395285394,-59501,-76860,-74119
653329439402716448,-59509,-76855,-74332
653329439410147502,-59313,-76941,-74378
653329439417578556,-59241,-76950,-74422
653329439425009610,-59334,-76950,-74526
653329439432440664,-59246,-76911,-74431
653329439439871718,-59181,-76887,-74342
653329439447302772,-59272,-76923,-74473
653329439454733826,-59278,-76930,-74473
653329439462164880,-59244,-76899,-74492
653329439469595934,-59281,-76833,-74327
653329439477026988,-59258,-76888,-74332
653329439484458042,-59446,-76824,-74486
653329439491889096,-59338,-76836,-74443
653329439499320150,-59293,-76963,-74369
653329439506751204,-59310,-76870,-74433
653329439514182258,-59306,-76962,-74442
653329439521613312,-59340,-76892,-74555
653329439528858696,-59278,-76878,-74293
653329439536300672,-59519,-75812,-73274
653329439543742648,-59476,-76543,-73931
653329439551184624,-59336,-76753,-74237
653329439558626600,-59352,-76843,-74342
653329439566068576,-58390,-75906,-73297
653329439573510552,-59050,-76670,-73970
653329439580952528,-59254,-76931,-74237
653329439588394504,-59358,-76979,-74470
653329439595836480,-58927,-77054,-74505
653329439603278456,-59267,-77111,-74527
653329439610720432,-59445,-77166,-74499
653329439618162408,-59363,-77115,-74514
653329439625604384,-59528,-77144,-74635
653329439633046360,-59603,-77125,-74676
653329439640488336,-59614,-77162,-74660
653329439647930312,-59536,-77270,-74538
653329439655372288,-59549,-77233,-74651
653329439662999954,-59781,-77366,-74675
653329439670431008,-59700,-77290,-74647
653329439677862062,-59744,-77291,-74663
653329439685293116,-59555,-77228,-74604
653329439692724170,-59585,-77181,-74637
653329439700155224,-59563,-77118,-74661
653329439707586278,-59575,-77149,-74781
653329439715017332,-59534,-77191,-74709
653329439722448386,-59571,-77328,-74664
653329439729879440,-59521,-77213,-74716
653329439737310494,-59627,-77178,-74797
653329439744741548,-59625,-77219,-74794
653329439752172602,-59615,-77344,-74734
653329439759603656,-59680,-77169,-74737
653329439767034710,-59590,-77122,-74751
653329439774465764,-59645,-77313,-74655
653329439781896818,-59683,-77371,-74624
653329439789327872,-59705,-77254,-74731
653329439796697033,-59855,-77139,-74607
653329439804131728,-59906,-77200,-74745
653329439811566423,-59758,-77276,-74740
653329439819001118,-59656,-77132,-74817
653329439826435813,-59679,-77227,-74823
653329439833870508,-59606,-77271,-74823
653329439841305203,-59561,-77133,-74703
653329439848739898,-59679,-77176,-74678
653329439856174593,-59644,-76261,-73614
653329439863609288,-59719,-76778,-74359
653329439871043983,-59649,-77028,-74618
653329439878478678,-59770,-77127,-74693
653329439885913373,-58538,-76270,-73563
653329439893348068,-59218,-76894,-74397
653329439900782763,-59480,-76962,-74606
653329439908217458,-59636,-77139,-74714
653329439915652153,-59540,-77340,-74728
653329439923086848,-59568,-77343,-74784
653329439930459648,-59532,-76996,-74897
653329439937897984,-59624,-77214,-74791
653329439945336320,-59698,-77244,-74839
653329439952774656,-59646,-77212,-74834
653329439960212992,-59664,-77285,-74839
653329439967651328,-59654,-77335,-74972
653329439975089664,-59606,-77282,-74837
6.53329E+17,-59698,-77271,-74791
653329439989966336,-59655,-77292,-74812
653329439997404672,-59659,-77228,-74854
653329440004843008,-59627,-77248,-74757
653329440012281344,-59668,-77196,-74876
653329440019719680,-59682,-77293,-74813
653329440027158016,-59736,-77251,-74917
653329440034596352,-59594,-77357,-74716
653329440042034688,-59649,-77220,-74767
653329440049473024,-59598,-77157,-74739
653329440056911360,-59699,-77155,-74785
653329440064473490,-59538,-77281,-74898
653329440071904544,-59683,-77392,-74823
653329440079335598,-59779,-77326,-74880
653329440086766652,-59735,-77323,-74841
653329440094197706,-59787,-77174,-74812
653329440101628760,-59756,-77271,-74759
653329440109059814,-59702,-77297,-74777
653329440116490868,-59756,-77206,-74818
653329440123921922,-59620,-77225,-74781
653329440131352976,-59672,-77272,-74795
653329440138784030,-59604,-77332,-74834
653329440146215084,-59697,-77251,-74832
653329440153646138,-59696,-77232,-74811
653329440161077192,-59647,-77151,-74798
653329440168508246,-59741,-77257,-74728
653329440175939300,-59685,-76161,-73556
653329440183370354,-59740,-76826,-74365
653329440190801408,-59661,-77026,-74562
653329440198046792,-59772,-77299,-74775
653329440205488768,-58593,-76344,-73649
653329440212930744,-59227,-76828,-74407
653329440220372720,-59450,-76940,-74592
653329440227814696,-59565,-77105,-74787
653329440235256672,-59707,-77195,-74875
653329440242698648,-59769,-77224,-74726
653329440250140624,-59715,-77167,-74762
653329440257582600,-59675,-77092,-74778
653329440265024576,-59724,-77147,-74883
653329440272466552,-59653,-77211,-74808
653329440279908528,-59741,-77148,-74841
653329440287350504,-59764,-77227,-74950
653329440294792480,-59735,-77300,-74774
653329440302234456,-59700,-77130,-74858
653329440309676432,-59647,-77198,-74703
653329440317118408,-59746,-77168,-74744
653329440324560384,-59620,-77115,-74631
653329440332188050,-59602,-77125,-74550
653329440339619104,-59701,-77217,-74695
653329440347050158,-59739,-77373,-74697
653329440354481212,-59626,-77404,-74657
653329440361912266,-59688,-77331,-74792
653329440369343320,-59831,-77376,-74851
653329440376774374,-59869,-77440,-74896
653329440384205428,-59913,-77594,-75056
653329440391636482,-60110,-77640,-75026
653329440399067536,-60120,-77613,-75039
653329440406498590,-59980,-77666,-75074
653329440413929644,-59878,-77571,-75084
653329440421360698,-59881,-77537,-75101
653329440428791752,-59945,-77535,-75103
653329440436222806,-60008,-77555,-75212
653329440443653860,-60089,-77545,-75140
653329440451084914,-60075,-77530,-75089
653329440458515968,-60111,-77545,-75108
653329440465885129,-60172,-77422,-75096
653329440473319824,-60118,-77649,-75216
653329440480754519,-60019,-77617,-75169
653329440488189214,-60089,-77565,-75168
653329440495623909,-60040,-76436,-74131
653329440503058604,-60052,-77147,-74829
653329440510493299,-60094,-77322,-75097
653329440517927994,-60206,-77595,-75283
653329440525362689,-58945,-76889,-74150
653329440532797384,-59625,-77280,-74747
653329440540232079,-59924,-77473,-74951
653329440547666774,-59964,-77595,-75125
653329440555101469,-60055,-77658,-75191
653329440562536164,-60012,-77522,-75229
653329440569970859,-59968,-77557,-75139
653329440577405554,-60088,-77536,-75252
653329440584840249,-60244,-77666,-75218
653329440592274944,-60155,-77569,-75240
653329440599771538,-60042,-77668,-75158
653329440607202592,-60055,-77657,-75171
653329440614633646,-59940,-77535,-75146
653329440622064700,-60024,-77525,-75161
653329440629495754,-60041,-77597,-75038
653329440636926808,-60036,-77715,-75030
653329440644357862,-59883,-77486,-74901
653329440651788916,-59889,-77455,-75016
653329440659219970,-60037,-77450,-75074
653329440666651024,-59918,-77478,-75078
653329440674082078,-59837,-77525,-74983
653329440681513132,-59885,-77594,-74942
653329440688944186,-59936,-77433,-74928
653329440696375240,-60015,-77616,-74968
653329440703806294,-59889,-77434,-74928
653329440711237348,-59897,-77473,-74947
653329440718668402,-59880,-77416,-74865
653329440726099456,-59913,-77392,-74993
653329440733406720,-60032,-77555,-74611
653329440740845056,-59962,-77415,-74835
653329440748283392,-59837,-77443,-74869
653329440755721728,-59990,-77463,-74970
653329440763160064,-59820,-77524,-74971
653329440770598400,-59802,-77402,-74932
653329440778036736,-59868,-77400,-74776
653329440785475072,-59945,-77321,-74882
653329440792913408,-59930,-77336,-74908
653329440800351744,-59957,-77348,-74834
653329440807790080,-59803,-77369,-74864
653329440815228416,-59740,-76229,-73721
653329440822666752,-59663,-76871,-74346
653329440830105088,-59716,-77155,-74412
653329440837543424,-59661,-77232,-74627
653329440844981760,-58599,-76774,-73644
653329440852420096,-59051,-76940,-74200
653329440859858432,-59424,-77101,-74382
653329440867234888,-59730,-77297,-74421
653329440874676864,-59758,-77214,-74576
653329440882118840,-59774,-77167,-74668
653329440889560816,-59673,-77271,-74623
653329440897002792,-59779,-77277,-74748
653329440904444768,-59829,-77256,-74789
653329440911886744,-59709,-77281,-74810
653329440919328720,-59638,-77213,-74775
653329440926770696,-59688,-77137,-74736
653329440934212672,-59743,-77197,-74640
653329440941654648,-59560,-77150,-74625
653329440949096624,-59553,-77093,-74756
653329440956538600,-59676,-77272,-74610
653329440963980576,-59405,-77105,-74518
653329440971422552,-59520,-77163,-74670
653329440978864528,-59600,-77165,-74493
653329440986306504,-59577,-77119,-74612
653329440993748480,-59441,-77109,-74470
653329441001376146,-59645,-77082,-74637
653329441008807200,-59641,-77048,-74600
653329441016238254,-59631,-77078,-74670
653329441023669308,-59522,-77070,-74546
653329441031100362,-59608,-77019,-74526
653329441038531416,-59598,-77233,-74647
653329441045962470,-59511,-77224,-74542
653329441053393524,-59558,-77115,-74561
653329441060824578,-59504,-77030,-74498
653329441068255632,-59475,-77069,-74665
653329441075686686,-59595,-77149,-74590
653329441083117740,-59551,-77132,-74613
653329441090548794,-59535,-76991,-74553
653329441097979848,-59634,-77191,-74613
653329441105410902,-59651,-77119,-74649
653329441112841956,-59675,-77170,-74602
653329441120273010,-59525,-77148,-74712
653329441127704064,-59705,-77184,-74666
653329441135073225,-59811,-76162,-73304
653329441142507920,-59683,-76678,-74031
653329441149942615,-59765,-77009,-74478
653329441157377310,-59750,-77172,-74652
653329441164812005,-58686,-76522,-73637
653329441172246700,-59178,-76999,-74261
653329441179681395,-59375,-77102,-74597
653329441187116090,-59714,-77244,-74778
653329441194550785,-59730,-77325,-74758
653329441201985480,-59761,-77337,-74901
653329441209420175,-59821,-77331,-74852
653329441216854870,-59909,-77547,-74984
653329441224289565,-59952,-77492,-75022
653329441231724260,-59888,-77495,-74992
653329441239158955,-59982,-77474,-75003
653329441246593650,-60159,-77546,-75029
653329441254028345,-60067,-77560,-74996
653329441261463040,-60155,-77603,-75034
653329441268835840,-60040,-77322,-75157
653329441276274176,-60107,-77515,-75139
653329441283712512,-59934,-77496,-75010
653329441291150848,-60063,-77646,-75050
653329441298589184,-60226,-77719,-75217
653329441306027520,-60308,-77749,-75150
653329441313465856,-59992,-77759,-75056
653329441320904192,-60122,-77740,-75199
653329441328342528,-60242,-77788,-75161
653329441335780864,-60231,-77937,-75135
653329441343219200,-60190,-77750,-75136
653329441350657536,-60241,-77752,-75143
653329441358095872,-60311,-77881,-75343
653329441365534208,-60267,-78077,-75165
653329441372972544,-60345,-77966,-75323
653329441380410880,-60163,-77837,-75268
653329441387849216,-60248,-77868,-75278
653329441395287552,-60237,-77803,-75171
653329441402849682,-60000,-77708,-74984
653329441410280736,-60156,-77786,-75236
653329441417711790,-60303,-77863,-75269
653329441425142844,-60257,-77813,-75317
653329441432573898,-60389,-77927,-75295
653329441440004952,-60423,-77839,-75266
653329441447436006,-60367,-77934,-75305
653329441454867060,-60257,-76905,-74369
653329441462298114,-60347,-77436,-75013
653329441469729168,-60323,-77714,-75146
653329441477160222,-60343,-77898,-75414
653329441484591276,-59309,-77452,-74332
653329441492022330,-59868,-77665,-74958
653329441499453384,-60159,-77797,-75169
653329441506884438,-60381,-77881,-75254
653329441514315492,-60413,-77910,-75415
653329441521746546,-60381,-78055,-75331
653329441529177600,-60311,-77952,-75313
653329441536422984,-60207,-77820,-75441
653329441543864960,-60236,-77918,-75389
653329441551306936,-60366,-77885,-75320
653329441558748912,-60325,-77872,-75326
653329441566190888,-60517,-77944,-75375
653329441573632864,-60445,-77918,-75433
653329441581074840,-60343,-77894,-75376
653329441588516816,-60305,-77900,-75366
653329441595958792,-60417,-77836,-75341
653329441603400768,-60324,-77745,-75299
653329441610842744,-60387,-77804,-75329
653329441618284720,-60427,-77811,-75352
653329441625726696,-60536,-77929,-75364
653329441633168672,-60366,-78065,-75283
653329441640610648,-60397,-78013,-75212
653329441648052624,-60459,-78052,-75312
653329441655494600,-60418,-78077,-75347
653329441662936576,-60404,-77938,-75394
653329441670564242,-60243,-78161,-75468
653329441677995296,-60326,-78032,-75468
653329441685426350,-60481,-78036,-75345
653329441692857404,-60478,-78025,-75368
653329441700288458,-60349,-77899,-75345
653329441707719512,-60405,-77920,-75374
653329441715150566,-60329,-77893,-75356
653329441722581620,-60323,-77955,-75279
653329441730012674,-60362,-77790,-75238
653329441737443728,-60306,-77821,-75312
653329441744874782,-60461,-77896,-75445
653329441752305836,-60393,-77889,-75358
653329441759736890,-60405,-77795,-75388
653329441767167944,-60374,-77929,-75444
653329441774598998,-60058,-76707,-74363
653329441782030052,-60194,-77361,-74933
653329441789461106,-60377,-77589,-75115
653329441796892160,-60391,-77788,-75292
653329441804137544,-59374,-77406,-73948
653329441811579520,-59869,-77589,-74724
653329441819021496,-60238,-77629,-75088
653329441826463472,-60323,-77859,-75233
653329441833905448,-60276,-77809,-75243
653329441841347424,-60380,-77797,-75232
653329441848789400,-60329,-77956,-75310
653329441856231376,-60297,-77787,-75284
653329441863673352,-60405,-77908,-75249
653329441871115328,-60170,-77840,-75276
653329441878557304,-60326,-77720,-75146
653329441885999280,-60303,-77831,-75141
653329441893441256,-60142,-77630,-75140
653329441900883232,-59992,-77481,-75088
653329441908325208,-59955,-77641,-74902
653329441915767184,-60011,-77631,-74958
653329441923209160,-59918,-77460,-74785
653329441930651136,-59798,-77502,-74742
653329441938278802,-59632,-77382,-74862
653329441945709856,-59776,-77469,-74765
653329441953140910,-59472,-77457,-74641
653329441960571964,-59571,-77335,-74564
653329441968003018,-59564,-77450,-74488
653329441975434072,-59534,-77310,-74581
653329441982865126,-59473,-77320,-74500
653329441990296180,-59532,-77273,-74429
653329441997727234,-59444,-77370,-74400
653329442005158288,-59456,-77322,-74387
653329442012589342,-59470,-77349,-74346
653329442020020396,-59359,-77360,-74338
653329442027451450,-59549,-77440,-74405
653329442034882504,-59390,-77531,-74465
653329442042313558,-59364,-77417,-74381
653329442049744612,-59486,-77347,-74225
653329442057175666,-59387,-77429,-74279
653329442064606720,-59297,-77309,-74233
653329442072037778,-59110,-77637,-74449
653329442079468832,-59188,-77407,-74212
653329442086899886,-59249,-77355,-74197
653329442094330940,-58478,-76238,-73099
653329442101761994,-58875,-76751,-73661
653329442109193048,-59050,-76946,-73794
653329442116624102,-59105,-77236,-74095
653329442124055156,-58009,-77296,-72968
653329442131486210,-58571,-77133,-73605
653329442138917264,-58768,-77204,-73857
653329442146348318,-58929,-77186,-73758
653329442153779372,-58961,-77069,-73770
653329442161210426,-58857,-76971,-73755
653329442168641480,-58770,-76886,-73792
653329442176072534,-58711,-76909,-73730
653329442183503588,-58716,-76882,-73645
653329442190934642,-58626,-76820,-73697
653329442198365696,-58522,-76786,-73526
653329442205611080,-58435,-76574,-73235
653329442213053056,-58443,-76438,-73240
653329442220495032,-58427,-76642,-73423
653329442227937008,-58288,-76694,-73384
653329442235378984,-58396,-76702,-73381
653329442242820960,-58271,-76479,-73201
653329442250262936,-58137,-76517,-73191
653329442257704912,-58111,-76469,-73259
653329442265146888,-58163,-76513,-73250
653329442272588864,-57925,-76387,-73132
653329442280030840,-57856,-76412,-73000
653329442287472816,-57986,-76343,-73075
653329442294914792,-57940,-76426,-72932
653329442302356768,-57794,-76328,-72919
653329442309798744,-57917,-76240,-72915
653329442317240720,-57864,-76311,-72830
653329442324682696,-57919,-76145,-72800
653329442332124672,-57923,-76172,-72721
653329442339752338,-58105,-76138,-72818
653329442347183392,-57931,-76206,-72909
653329442354614446,-57880,-76127,-72859
653329442362045500,-57715,-76030,-72693
653329442369476554,-57563,-76005,-72608
653329442376907608,-57665,-76059,-72647
653329442384338662,-57596,-76000,-72613
653329442391769716,-57585,-75952,-72518
653329442399200770,-57473,-75907,-72576
653329442406631824,-57504,-75929,-72480
653329442414062878,-56678,-74663,-71361
653329442421493932,-56979,-75251,-71986
653329442428924986,-57292,-75541,-72318
653329442436356040,-57313,-75750,-72349
653329442443787094,-56250,-75749,-71243
653329442451218148,-56850,-75646,-71884
653329442458649202,-57079,-75618,-72287
653329442466080256,-57184,-75773,-72263
653329442473325640,-57245,-75678,-72303
653329442480767616,-57268,-75548,-72419
653329442488209592,-57216,-75610,-72380
653329442495651568,-57155,-75697,-72424
653329442503093544,-57121,-75714,-72386
653329442510535520,-57206,-75482,-72321
653329442517977496,-57245,-75682,-72464
653329442525419472,-57303,-75723,-72318
653329442532861448,-57088,-75385,-72250
653329442540303424,-57128,-75364,-72162
653329442547745400,-57105,-75381,-72257
653329442555187376,-57131,-75441,-72289
653329442562629352,-56948,-75217,-72215
653329442570071328,-57000,-75456,-72181
653329442577513304,-57021,-75442,-72130
653329442584955280,-57091,-75474,-72215
653329442592397256,-56935,-75253,-72172
653329442599839232,-56857,-75225,-72160
653329442607528795,-57086,-75690,-72422
653329442614956208,-57116,-75479,-72247
653329442622383621,-57020,-75410,-72256
653329442629811034,-56940,-75361,-72152
653329442637238447,-57016,-75444,-72098
653329442644665860,-56921,-75331,-72166
653329442652093273,-56866,-75204,-72080
653329442659520686,-56813,-75169,-72006
653329442666948099,-56792,-75123,-72043
653329442674375512,-56817,-75159,-72008
653329442681802925,-56861,-75151,-72036
653329442689230338,-56918,-75085,-72027
653329442696657751,-56910,-75148,-71970
653329442704085164,-56771,-74958,-72034
653329442711512577,-56746,-74997,-71962
653329442718939990,-56762,-74999,-72059
653329442726367403,-56857,-75116,-71935
653329442733794816,-55671,-73841,-70844
653329442740974664,-56422,-74668,-71611
653329442748416640,-56560,-74977,-71678
653329442755858616,-56612,-74965,-71829
653329442763300592,-55432,-74892,-70731
653329442770742568,-56089,-74914,-71366
653329442778184544,-56507,-74852,-71507
653329442785626520,-56508,-74917,-71690
653329442793068496,-56489,-74925,-71804
653329442800510472,-56542,-74898,-71738
653329442807952448,-56568,-74873,-71830
653329442815394424,-56636,-75017,-71799
653329442822836400,-56499,-75016,-71621
653329442830278376,-56542,-75003,-71704
653329442837720352,-56648,-74878,-71665
653329442845162328,-56543,-75002,-71714
653329442852604304,-56546,-74705,-71653
653329442860046280,-56567,-74871,-71719
653329442867488256,-56489,-74813,-71677
653329442875054025,-56405,-74808,-71793
653329442882488720,-56327,-74780,-71554
653329442889923415,-56419,-74740,-71565
653329442897358110,-56479,-74928,-71666
653329442904792805,-56584,-74914,-71753
653329442912227500,-56502,-75022,-71733
653329442919662195,-56456,-74985,-71716
653329442927096890,-56561,-74936,-71828
653329442934531585,-56664,-75060,-71727
653329442941966280,-56596,-74873,-71867
653329442949400975,-56557,-74968,-71868
653329442956835670,-56730,-75018,-71794
653329442964270365,-56675,-74973,-71858
653329442971705060,-56699,-75030,-71827
653329442979139755,-56655,-75085,-71905
653329442986574450,-56690,-75072,-71956
653329442994009145,-56730,-75116,-72011
653329443001443840,-56720,-75079,-71887
653329443008878537,-56833,-74938,-71895
653329443016313232,-56817,-75091,-72044
653329443023747927,-56924,-74647,-72045
653329443031182622,-56800,-74967,-72051
653329443038617317,-56809,-74994,-72000
653329443046052012,-56740,-75002,-71978
653329443053486707,-55655,-73979,-70969
653329443060921402,-56272,-74601,-71525
653329443068356097,-56555,-74874,-71580
653329443075790792,-56497,-75065,-71728
653329443083225487,-55350,-74938,-70851
653329443090660182,-55707,-74793,-71130
653329443098094877,-55919,-74827,-71157
653329443105529572,-55887,-74710,-71022
653329443112964267,-55712,-74577,-70920
653329443120398962,-55617,-74567,-70630
653329443127833657,-55431,-74359,-70502
653329443135268352,-55413,-74346,-70326
653329443142703049,-54890,-74038,-69817
653329443150137744,-54736,-73931,-69654
653329443157572439,-54530,-73924,-69557
653329443165007134,-54247,-73665,-69175
653329443172441829,-53789,-73223,-68621
653329443179876524,-53206,-73072,-68187
653329443187311219,-52836,-72780,-67779
653329443194745914,-52525,-72447,-67275
653329443202180609,-51779,-72085,-66612
653329443209615304,-51393,-71702,-66205
653329443217049999,-50858,-71515,-65681
653329443224484694,-50391,-71215,-65148
653329443231919389,-49771,-70944,-64578
653329443239354084,-49285,-70634,-64027
653329443246788779,-48739,-70294,-63545
653329443254223474,-48530,-70035,-62969
653329443261658169,-48072,-69680,-62531
653329443269092864,-47726,-69420,-62182
653329443276527561,-47562,-69382,-61929
653329443283962256,-47185,-69183,-61591
653329443291396951,-46951,-68995,-61496
653329443298831646,-46826,-68775,-61192
653329443306266341,-46590,-68573,-60958
653329443313701036,-46254,-68360,-60626
653329443321135731,-46042,-68167,-60489
653329443328570426,-45845,-68005,-60253
653329443336005121,-45785,-67872,-60156
653329443343439816,-45404,-66779,-59943
653329443350874511,-45321,-67098,-59768
653329443358309206,-45300,-67197,-59698
653329443365743901,-45062,-67222,-59587
653329443373178596,-43853,-66130,-58482
653329443380613291,-44266,-66708,-58887
653329443388047986,-44496,-66911,-59033
653329443395482681,-44409,-66911,-59112
653329443402917376,-43326,-66809,-58956
653329443410228296,-43517,-66899,-58885
653329443417670272,-43782,-66641,-58800
653329443425112248,-43718,-66650,-58779
653329443432554224,-43595,-66416,-58540
653329443439996200,-43586,-66206,-58434
653329443447438176,-43529,-66234,-58510
653329443454880152,-43450,-66139,-58378
653329443462322128,-43275,-66034,-58190
653329443469764104,-43081,-65974,-58128
653329443477206080,-43054,-65852,-58179
653329443484648056,-42964,-65854,-58073
653329443492090032,-42945,-65551,-57801
653329443499532008,-42719,-65647,-57700
653329443506973984,-42663,-65592,-57759
653329443514415960,-42588,-65577,-57681
653329443521857936,-42336,-65247,-57463
653329443529299912,-42307,-65287,-57531
653329443536741888,-42143,-65251,-57442
653329443544431451,-42417,-65206,-57163
653329443551858864,-42021,-64949,-57200
653329443559286277,-42028,-65082,-57296
653329443566713690,-41990,-64932,-57190
653329443574141103,-41965,-64809,-57152
653329443581568516,-41818,-64868,-57121
653329443588995929,-41843,-64769,-57089
653329443596423342,-41574,-64768,-57002
653329443603850755,-41575,-64761,-57066
653329443611278168,-41455,-64567,-56890
653329443618705581,-41300,-64313,-56844
653329443626132994,-41351,-64458,-56868
653329443633560407,-41116,-64311,-56694
653329443640987820,-41072,-64238,-56638
653329443648415233,-41082,-64210,-56580
653329443655842646,-41165,-64215,-56579
653329443663270059,-40959,-63089,-56346
653329443670697472,-40833,-63652,-56317
653329443678001097,-40604,-63620,-56408
653329443685435792,-40645,-63743,-56289
653329443692870487,-39580,-62855,-55183
653329443700305182,-40027,-63280,-55563
653329443707739877,-40215,-63522,-55872
653329443715174572,-40399,-63581,-55863
653329443722609267,-39244,-63564,-55831
653329443730043962,-39642,-63471,-55704
653329443737478657,-40135,-63455,-55805
653329443744913352,-40264,-63503,-55717
653329443752348047,-40131,-63504,-55715
653329443759782742,-40102,-63530,-55634
653329443767217437,-40183,-63432,-55737
653329443774652132,-40198,-63458,-55665
653329443782086827,-40069,-63447,-55575
653329443789521522,-39961,-63356,-55424
653329443796956217,-39888,-63289,-55483
653329443804390912,-39718,-63300,-55431
653329443811825609,-39469,-63209,-55044
653329443819260304,-39690,-63165,-55122
653329443826694999,-39788,-63244,-55309
653329443834129694,-39661,-63180,-55180
653329443841564389,-39494,-62937,-55059
653329443848999084,-39400,-62919,-55044
653329443856433779,-39525,-62959,-55034
653329443863868474,-39494,-62941,-54932
653329443871303169,-39175,-62812,-54868
653329443878737864,-39248,-62832,-54973
653329443886172559,-39251,-62903,-54959
653329443893607254,-39215,-62885,-54922
653329443901041949,-39295,-62925,-55137
653329443908476644,-39209,-62838,-54932
653329443915911339,-39185,-62794,-55043
653329443923346034,-39195,-62767,-54911
653329443930780729,-39080,-62708,-54871
653329443938215424,-39046,-62748,-54895
653329443945526344,-38776,-62731,-54897
653329443952968320,-38835,-62556,-54662
653329443960410296,-38752,-62466,-54596
653329443967852272,-38696,-62432,-54625
653329443975294248,-38640,-62532,-54407
653329443982736224,-38659,-61282,-54378
653329443990178200,-38541,-61852,-54358
653329443997620176,-38559,-62076,-54339
653329444005062152,-38530,-62234,-54276
653329444012504128,-37364,-61156,-53152
653329444019946104,-37920,-61661,-53752
653329444027388080,-38061,-61951,-53995
653329444034830056,-38253,-62046,-54152
653329444042272032,-37157,-62064,-54112
653329444049714008,-37681,-62083,-54023
653329444057155984,-37803,-61975,-54029
653329444064597960,-37998,-62046,-54149
653329444072039936,-37933,-61917,-53984
653329444079605705,-38132,-61994,-54060
653329444087040400,-37919,-61940,-53973
653329444094475095,-37899,-61778,-53894
653329444101909790,-37860,-61656,-53753
653329444109344485,-37680,-61698,-53787
653329444116779180,-37694,-61709,-53746
653329444124213875,-37715,-61689,-53747
653329444131648570,-37588,-61496,-53609
653329444139083265,-37580,-61480,-53600
653329444146517960,-37498,-61424,-53637
653329444153952655,-37448,-61511,-53633
653329444161387350,-37367,-61284,-53349
653329444168822045,-37315,-61348,-53349
653329444176256740,-37306,-61287,-53461
653329444183691435,-37339,-61309,-53289
653329444191126130,-37088,-61269,-53363
653329444198560825,-37076,-61304,-53279
653329444205995520,-37121,-61296,-53360
653329444213430217,-36751,-61240,-53044
653329444220864912,-36945,-61122,-53020
653329444228299607,-36937,-61054,-53009
653329444235734302,-36965,-61003,-53070
653329444243168997,-36955,-61055,-53057
653329444250603692,-36818,-60937,-52940
653329444258038387,-36765,-60878,-52812
653329444265473082,-36797,-60746,-52784
653329444272907777,-36619,-60695,-52745
653329444280342472,-36470,-60654,-52669
653329444287777167,-36493,-60633,-52749
653329444295211862,-36442,-60770,-52684
653329444302646557,-36394,-59677,-52577
653329444310081252,-36341,-60025,-52517
653329444317515947,-36404,-60246,-52550
653329444324950642,-36368,-60549,-52559
653329444332385337,-35059,-59385,-51346
653329444339820032,-35622,-59957,-51972
653329444347254729,-36118,-59954,-52237
653329444354689424,-36063,-60200,-52342
653329444362124119,-34834,-60366,-52039
653329444369558814,-35504,-60226,-52073
653329444376993509,-35698,-60263,-52200
653329444384428204,-35729,-60208,-52112
653329444391862899,-35668,-60175,-52064
653329444399297594,-35695,-60112,-52068
653329444406732289,-35563,-60193,-52021
653329444414166984,-35549,-60030,-51969
653329444421601679,-35554,-60107,-51844
653329444429036374,-35593,-59967,-51805
653329444436471069,-35500,-59967,-51767
653329444443905764,-35476,-59847,-51825
653329444451340459,-35428,-59656,-51651
653329444458775154,-35416,-59815,-51644
653329444466209849,-35308,-59829,-51602
653329444473644544,-35117,-59809,-51440
653329444481079241,-34981,-59371,-51108
653329444488513936,-34926,-59561,-51188
653329444495948631,-35079,-59512,-51342
653329444503383326,-34891,-59570,-51297
653329444510818021,-34562,-59461,-51165
653329444518252716,-34648,-59491,-51122
653329444525687411,-34717,-59468,-51119
653329444533122106,-34607,-59414,-50998
653329444540556801,-34500,-59258,-50971
653329444547991496,-34221,-59180,-50952
653329444555426191,-34409,-59190,-50829
653329444562860886,-34411,-59240,-50870
653329444570295581,-34241,-59032,-50759
653329444577730276,-34270,-59079,-50681
653329444585164971,-34343,-58945,-50701
653329444592599666,-34199,-58875,-50559
653329444600034361,-34151,-58797,-50549
653329444607469056,-34226,-58865,-50571
653329444614903753,-34271,-58923,-50292
653329444622338448,-34055,-57699,-50249
653329444629773143,-33875,-58208,-50243
653329444637207838,-33818,-58420,-50284
653329444644642533,-33777,-58632,-50241
653329444652077228,-32829,-57642,-49175
653329444659511923,-33310,-58252,-49733
653329444666946618,-33633,-58461,-50003
653329444674381313,-33677,-58671,-50051
653329444681816008,-32606,-58659,-50002
653329444689250703,-33252,-58598,-50065
653329444696685398,-33364,-58637,-50146
653329444704120093,-33612,-58721,-50162
653329444711554788,-33558,-58649,-50038
653329444718989483,-33584,-58723,-50134
653329444726424178,-33609,-58705,-50015
653329444733858873,-33628,-58631,-50005
653329444741293568,-33543,-58670,-50001
653329444748604488,-33750,-58774,-49759
653329444756046464,-33689,-58745,-49825
653329444763488440,-33528,-58605,-49849
653329444770930416,-33486,-58555,-49763
653329444778372392,-33542,-58501,-49784
653329444785814368,-33545,-58639,-49866
653329444793256344,-33558,-58535,-49922
653329444800698320,-33317,-58489,-49800
653329444808140296,-33355,-58514,-49864
653329444815582272,-33357,-58545,-49754
653329444823024248,-33330,-58527,-49742
653329444830466224,-33149,-58534,-49706
653329444837908200,-33128,-58459,-49698
653329444845350176,-33335,-58453,-49784
653329444852792152,-33236,-58420,-49735
653329444860234128,-33210,-58418,-49573
653329444867676104,-33336,-58411,-49575
653329444875118080,-33257,-58488,-49655
653329444882807643,-33049,-58145,-49597
653329444890235056,-33087,-58235,-49553
653329444897662469,-33078,-58381,-49531
653329444905089882,-33106,-58433,-49577
653329444912517295,-33174,-58396,-49490
653329444919944708,-33006,-58317,-49316
653329444927372121,-32994,-58222,-49360
653329444934799534,-32971,-58214,-49315
653329444942226947,-32887,-57556,-49221
653329444949654360,-32885,-57926,-49240
653329444957081773,-32687,-58006,-49132
653329444964509186,-32773,-58105,-49212
653329444971936599,-31686,-57036,-48054
653329444979364012,-32231,-57786,-48661
653329444986791425,-32622,-58010,-48867
653329444994218838,-32663,-57983,-49091
653329445001646251,-31506,-58118,-48138
653329445009073664,-32220,-58059,-48563
653329445016377289,-32498,-58212,-49042
653329445023811984,-32519,-58135,-49085
653329445031246679,-32486,-57986,-48958
653329445038681374,-32576,-58041,-48873
653329445046116069,-32468,-58102,-48896
653329445053550764,-32576,-57990,-48854
653329445060985459,-32613,-57918,-48780
653329445068420154,-32465,-57793,-48693
653329445075854849,-32512,-57813,-48695
653329445083289544,-32410,-57931,-48734
653329445090724239,-32334,-57682,-48659
653329445098158934,-32361,-57734,-48663
653329445105593629,-32445,-57847,-48634
653329445113028324,-32263,-57750,-48516
653329445120463019,-32023,-57501,-48320
653329445127897714,-32061,-57677,-48268
653329445135332409,-32095,-57606,-48419
653329445142767104,-32036,-57650,-48221
653329445150078024,-31748,-57722,-48585
6.53329E+17,-31917,-57514,-48260
653329445164961976,-31875,-57529,-48304
653329445172403952,-31892,-57584,-48159
653329445179845928,-31831,-57492,-48149
653329445187287904,-31777,-57375,-48033
653329445194729880,-31734,-57453,-48095
653329445202171856,-31733,-57369,-48056
653329445209613832,-31675,-57494,-48062
653329445217055808,-31751,-57341,-48044
653329445224497784,-31791,-57312,-47958
653329445231939760,-31791,-57219,-47867
653329445239381736,-31622,-57173,-47800
653329445246823712,-31609,-57097,-47774
653329445254265688,-31458,-57098,-47709
653329445261707664,-31442,-56991,-47549
653329445269149640,-31348,-56940,-47559
653329445276591616,-31355,-57072,-47450
653329445284157385,-31171,-56944,-47636
653329445291592080,-30022,-55759,-46351
653329445299026775,-30794,-56542,-46976
653329445306461470,-31006,-56755,-47164
653329445313896165,-30990,-56958,-47391
653329445321330860,-29995,-56858,-46197
653329445328765555,-30641,-56940,-46869
653329445336200250,-30793,-56885,-47035
653329445343634945,-30993,-56821,-47160
653329445351069640,-30861,-56831,-47134
653329445358504335,-30800,-56702,-47053
653329445365939030,-30810,-56655,-46935
653329445373373725,-30679,-56602,-46936
653329445380808420,-30621,-56506,-46842
653329445388243115,-30477,-56391,-46721
653329445395677810,-30426,-56415,-46644
653329445403112505,-30349,-56292,-46385
653329445410547200,-30147,-56164,-46208
653329445417981897,-29790,-56070,-46058
653329445425416592,-29812,-56036,-45804
653329445432851287,-29822,-56077,-45812
653329445440285982,-29609,-55798,-45550
653329445447720677,-29603,-55718,-45475
653329445455155372,-29453,-55805,-45373
653329445462590067,-29455,-55767,-45341
653329445470024762,-29193,-55670,-45254
653329445477459457,-29240,-55706,-45099
653329445484894152,-29222,-55533,-45028
653329445492328847,-29249,-55446,-44751
653329445499763542,-29131,-55410,-44700
653329445507198237,-29184,-55405,-44767
653329445514632932,-29064,-55372,-44715
653329445522067627,-28934,-55265,-44758
653329445529502322,-28920,-55396,-44616
653329445536937017,-28960,-55354,-44564
653329445544371712,-28984,-55436,-44583
653329445551806409,-28815,-55103,-44597
653329445559241104,-28848,-55266,-44542
653329445566675799,-29019,-55254,-44575
653329445574110494,-29006,-55530,-44685
653329445581545189,-28903,-55407,-44521
653329445588979884,-28918,-55460,-44652
653329445596414579,-28686,-55484,-44645
653329445603849274,-28799,-55475,-44584
653329445611283969,-28408,-54316,-43314
653329445618718664,-28670,-55067,-43967
653329445626153359,-28787,-55330,-44283
653329445633588054,-28915,-55333,-44356
653329445641022749,-27823,-55481,-43267
653329445648457444,-28429,-55565,-43998
653329445655892139,-28713,-55539,-44141
653329445663326834,-28797,-55515,-44251
653329445670761529,-28850,-55509,-44416
653329445678196224,-28866,-55651,-44309
653329445685630921,-28653,-55627,-44088
653329445693065616,-28642,-55516,-44144
653329445700500311,-28814,-55424,-44256
653329445707935006,-28697,-55431,-44264
653329445715369701,-28633,-55508,-44266
653329445722804396,-28686,-55423,-44192
653329445730239091,-28761,-55355,-44309
653329445737673786,-28780,-55479,-44201
653329445745108481,-28809,-55541,-44185
653329445752543176,-28674,-55391,-44174
653329445759977871,-28687,-55471,-44130
653329445767412566,-28685,-55439,-44252
653329445774847261,-28636,-55465,-44225
653329445782281956,-28691,-55407,-44248
653329445789716651,-28629,-55404,-44305
653329445797151346,-28614,-55478,-44379
653329445804586041,-28554,-55411,-44374
653329445812020736,-28593,-55393,-44343
653329445819579227,-28691,-55533,-44465
653329445827006640,-28727,-55558,-44443
653329445834434053,-28630,-55556,-44430
653329445841861466,-28523,-55382,-44273
653329445849288879,-28556,-55381,-44289
653329445856716292,-28576,-55343,-44250
653329445864143705,-28534,-55356,-44306
653329445871571118,-28399,-55300,-44204
653329445878998531,-28446,-55333,-44327
653329445886425944,-28546,-55294,-44360
653329445893853357,-28501,-55342,-44200
653329445901280770,-28565,-55175,-44134
653329445908708183,-28439,-55139,-44051
653329445916135596,-28440,-55187,-44178
653329445923563009,-28514,-55358,-44179
653329445930990422,-27705,-54154,-42895
653329445938417835,-28042,-54747,-43455
653329445945845248,-28307,-55068,-43662
653329445953025096,-28314,-55189,-44019
653329445960467072,-27118,-55141,-42937
653329445967909048,-27718,-55176,-43481
653329445975351024,-28029,-55117,-43622
6.53329E+17,-27989,-55057,-43773
653329445990234976,-28096,-55059,-43837
653329445997676952,-28188,-55043,-43990
653329446005118928,-28266,-55190,-43898
653329446012560904,-28140,-55127,-43809
653329446020002880,-28144,-55181,-43850
653329446027444856,-28224,-55104,-43878
653329446034886832,-28258,-55200,-43922
653329446042328808,-28236,-55003,-43828
653329446049770784,-28097,-54920,-43773
653329446057212760,-28063,-55055,-43892
653329446064654736,-28157,-55043,-43826
653329446072096712,-28207,-55060,-43791
653329446079538688,-27940,-54911,-43654
653329446087104457,-28332,-54889,-43910
653329446094539152,-28134,-54910,-43895
653329446101973847,-28095,-54932,-43864
653329446109408542,-27955,-54839,-43792
653329446116843237,-27922,-55031,-43832
653329446124277932,-27974,-54935,-43898
653329446131712627,-28091,-55081,-43802
653329446139147322,-27997,-55047,-43887
653329446146582017,-28033,-54959,-43841
653329446154016712,-28012,-54947,-43778
653329446161451407,-28031,-54907,-43863
653329446168886102,-27934,-54893,-43768
653329446176320797,-27955,-54864,-43749
653329446183755492,-27768,-54878,-43727
653329446191190187,-27798,-54784,-43762
653329446198624882,-27842,-54828,-43701
653329446206059577,-27799,-54844,-43691
653329446213494272,-27656,-54783,-43602
653329446220928969,-27546,-54730,-43697
653329446228363664,-27509,-54660,-43612
653329446235798359,-27532,-54681,-43514
653329446243233054,-27502,-54644,-43481
653329446250667749,-26436,-53534,-42322
653329446258102444,-27060,-54210,-42891
653329446265537139,-27159,-54313,-43071
653329446272971834,-27291,-54539,-43151
653329446280406529,-26116,-54442,-42125
653329446287841224,-26833,-54392,-42661
653329446295275919,-27146,-54422,-42905
653329446302710614,-27144,-54400,-42846
653329446310145309,-27125,-54412,-42989
653329446317580004,-27176,-54350,-42997
653329446325014699,-27113,-54241,-42959
653329446332449394,-27089,-54251,-42846
653329446339884089,-27051,-54291,-42671
653329446347318784,-27079,-54391,-42859
653329446354753481,-26725,-53980,-42792
653329446362188176,-26929,-54063,-42727
653329446369622871,-26887,-54012,-42684
653329446377057566,-26931,-54079,-42643
653329446384492261,-26919,-54172,-42544
653329446391926956,-26863,-54075,-42621
653329446399361651,-26628,-53907,-42497
653329446406796346,-26742,-53922,-42623
653329446414231041,-26660,-54062,-42438
653329446421665736,-26659,-53993,-42499
653329446429100431,-26610,-53952,-42541
653329446436535126,-26698,-53955,-42433
653329446443969821,-26631,-53933,-42464
653329446451404516,-26782,-53962,-42372
653329446458839211,-26673,-54019,-42293
653329446466273906,-26650,-53930,-42326
653329446473708601,-26559,-53983,-42311
653329446481143296,-26566,-53968,-42338
653329446488577993,-26656,-54103,-42055
653329446496012688,-26512,-54025,-42172
653329446503447383,-26626,-53973,-42104
653329446510882078,-26539,-54092,-42148
653329446518316773,-26504,-54033,-42137
653329446525751468,-26525,-54041,-42131
653329446533186163,-26476,-54034,-42226
653329446540620858,-26506,-53453,-42086
653329446548055553,-26420,-53810,-42094
653329446555490248,-26475,-54042,-42286
653329446562924943,-26487,-54047,-42204
653329446570359638,-25481,-52994,-41000
653329446577794333,-26043,-53681,-41650
653329446585229028,-26358,-53886,-41859
653329446592663723,-26432,-54100,-41874
653329446600098418,-25392,-54188,-41452
653329446607533113,-25940,-54205,-41904
653329446614967808,-26237,-54131,-41994
653329446622278728,-26263,-54335,-42135
653329446629720704,-26330,-54244,-42121
653329446637162680,-26475,-54330,-42200
653329446644604656,-26543,-54183,-42067
653329446652046632,-26600,-54235,-41987
653329446659488608,-26477,-54043,-41949
653329446666930584,-26567,-54120,-41994
653329446674372560,-26529,-54200,-41985
653329446681814536,-26418,-54128,-41931
653329446689256512,-26545,-54094,-41923
653329446696698488,-26481,-54160,-41963
653329446704140464,-26644,-54204,-41965
653329446711582440,-26544,-54195,-41898
653329446719024416,-26365,-54111,-41845
653329446726466392,-26474,-54133,-41979
653329446733908368,-26618,-54093,-42072
653329446741350344,-26545,-54045,-42015
653329446748792320,-26390,-54036,-41998
653329446756481883,-26605,-53821,-42057
653329446763909296,-26710,-53966,-42096
653329446771336709,-26484,-54098,-42082
653329446778764122,-26579,-54135,-42013
653329446786191535,-26571,-54014,-41949
653329446793618948,-26669,-54160,-41991
653329446801046361,-26566,-54099,-41955
653329446808473774,-26569,-54120,-41997
653329446815901187,-26654,-54160,-42151
653329446823328600,-26592,-54134,-42086
653329446830756013,-26584,-54159,-42076
653329446838183426,-26649,-54282,-42093
653329446845610839,-26682,-54272,-42123
653329446853038252,-26639,-54244,-42111
653329446860465665,-26621,-53075,-42073
653329446867893078,-26617,-53689,-42152
653329446875320491,-26675,-54019,-42258
653329446882747904,-26649,-54254,-42168
653329446889927752,-25779,-52840,-40914
653329446897369728,-26477,-53613,-41766
653329446904811704,-26711,-54051,-42164
653329446912253680,-26776,-54188,-42289
653329446919695656,-25632,-54235,-42373
653329446927137632,-26331,-54237,-42412
653329446934579608,-26734,-54270,-42512
653329446942021584,-26893,-54353,-42408
653329446949463560,-26800,-54305,-42442
653329446956905536,-26911,-54339,-42480
653329446964347512,-26850,-54377,-42448
653329446971789488,-26966,-54369,-42609
653329446979231464,-27036,-54386,-42540
653329446986673440,-26902,-54297,-42503
653329446994115416,-26865,-54368,-42588
653329447001557392,-26853,-54288,-42566
653329447008999368,-26846,-54196,-42530
653329447016441344,-26833,-54238,-42617
653329447024007113,-26969,-54267,-42578
653329447031441808,-27012,-54242,-42528
653329447038876503,-26693,-54218,-42484
653329447046311198,-26887,-54271,-42537
653329447053745893,-26929,-54275,-42497
653329447061180588,-26810,-54235,-42540
653329447068615283,-26780,-54304,-42533
653329447076049978,-26840,-54244,-42592
653329447083484673,-26662,-54318,-42473
653329447090919368,-26614,-54130,-42406
653329447098354063,-26765,-54321,-42364
653329447105788758,-26658,-54282,-42426
653329447113223453,-26775,-54297,-42422
653329447120658148,-26723,-54162,-42444
653329447128092843,-26693,-54245,-42376
653329447135527538,-26615,-54148,-42262
653329447142962233,-26575,-54152,-42253
653329447150396928,-26657,-54127,-42176
653329447157831625,-26361,-54135,-42337
653329447165266320,-26426,-54100,-42283
653329447172701015,-26565,-53966,-42212
653329447180135710,-26399,-53018,-41970
653329447187570405,-26429,-53574,-42166
653329447195005100,-26361,-53875,-42051
653329447202439795,-26398,-53935,-42128
653329447209874490,-25287,-52797,-40962
653329447217309185,-25830,-53369,-41547
653329447224743880,-26167,-53576,-41852
653329447232178575,-26296,-53801,-42002
653329447239613270,-25197,-53909,-42015
653329447247047965,-25911,-54052,-41989
653329447254482660,-26243,-53990,-41980
653329447261917355,-26242,-53875,-42098
653329447269352050,-26345,-53864,-41899
653329447276786745,-26357,-53984,-42023
653329447284221440,-26342,-53997,-41973
653329447291656137,-26376,-54106,-41894
653329447299090832,-26275,-54112,-42000
653329447306525527,-26323,-54009,-41981
653329447313960222,-26307,-54054,-41849
653329447321394917,-26323,-53906,-41936
653329447328829612,-26170,-53787,-41783
653329447336264307,-26268,-53638,-41847
653329447343699002,-26202,-53766,-41726
653329447351133697,-26181,-53743,-41764
653329447358568392,-26042,-53614,-41718
653329447366003087,-26015,-53734,-41779
653329447373437782,-26036,-53693,-41777
653329447380872477,-26099,-53847,-41808
653329447388307172,-26024,-53867,-41952
653329447395741867,-26117,-53988,-41800
653329447403176562,-26165,-53905,-41826
653329447410611257,-26096,-53847,-41812
653329447418045952,-26168,-53937,-41897
653329447425356872,-25943,-53712,-42041
653329447432798848,-26044,-53914,-41944
653329447440240824,-26051,-54045,-42037
653329447447682800,-26077,-54072,-42008
653329447455124776,-26292,-54063,-42055
653329447462566752,-26260,-54197,-41995
653329447470008728,-26198,-54076,-41970
653329447477450704,-26418,-54102,-42065
653329447484892680,-26338,-54155,-42201
653329447492334656,-26325,-54142,-42186
653329447499776632,-26372,-53087,-42048
653329447507218608,-26571,-53822,-42203
653329447514660584,-26510,-54197,-42377
653329447522102560,-26604,-54100,-42394
653329447529544536,-25514,-53210,-41186
653329447536986512,-26118,-53958,-41980
653329447544428488,-26509,-54193,-42373
653329447551870464,-26658,-54312,-42431
653329447559560027,-25740,-54555,-42720
653329447566987440,-26364,-54502,-42686
653329447574414853,-26663,-54514,-42757
653329447581842266,-26731,-54528,-42722
653329447589269679,-26852,-54578,-42714
653329447596697092,-26766,-54929,-42563
653329447604124505,-26785,-54758,-42724
653329447611551918,-26777,-54723,-42829
653329447618979331,-26829,-54643,-42769
653329447626406744,-26728,-54773,-43003
653329447633834157,-26840,-54768,-43111
653329447641261570,-26900,-54637,-43099
653329447648688983,-26918,-54652,-43062
653329447656116396,-27118,-54627,-43071
653329447663543809,-27005,-54688,-43124
653329447670971222,-27085,-54732,-43211
653329447678398635,-26876,-54747,-43093
653329447685826048,-27067,-54678,-43190
653329447693129673,-27039,-55031,-43523
653329447700564368,-27143,-54876,-43347
653329447707999063,-26954,-54937,-43242
653329447715433758,-27043,-54864,-43359
653329447722868453,-27214,-54861,-43356
653329447730303148,-27070,-54854,-43275
653329447737737843,-27124,-54944,-43287
653329447745172538,-27160,-55040,-43441
653329447752607233,-27078,-54850,-43360
653329447760041928,-27146,-55022,-43438
653329447767476623,-27254,-54959,-43488
653329447774911318,-27227,-55048,-43466
653329447782346013,-27229,-54837,-43456
653329447789780708,-27137,-54927,-43386
653329447797215403,-27255,-54988,-43486
653329447804650098,-27327,-55070,-43459
653329447812084793,-27256,-55041,-43366
653329447819519488,-27266,-53828,-43482
653329447826830408,-27308,-54578,-43642
653329447834272384,-27317,-54757,-43616
653329447841714360,-27201,-54872,-43589
653329447849156336,-26142,-53844,-42578
653329447856598312,-26917,-54486,-43111
653329447864040288,-27132,-54810,-43333
653329447871482264,-27169,-54868,-43461
653329447878924240,-26123,-55000,-43624
653329447886366216,-26752,-55050,-43535
653329447893808192,-27008,-54995,-43581
653329447901250168,-27115,-54869,-43625
653329447908692144,-27320,-54908,-43581
653329447916134120,-27334,-55023,-43697
653329447923576096,-27448,-55166,-43639
653329447931018072,-27278,-55018,-43606
653329447938460048,-27349,-55127,-43688
653329447945902024,-27324,-55046,-43727
6.53329E+17,-27309,-54989,-43715
653329447960909769,-27389,-55197,-43618
653329447968344464,-27440,-54903,-43542
653329447975779159,-27376,-55100,-43777
653329447983213854,-27392,-55022,-43743
653329447990648549,-27224,-54982,-43695
653329447998083244,-27222,-54911,-43591
653329448005517939,-27294,-55097,-43625
653329448012952634,-27283,-54983,-43760
653329448020387329,-27345,-54968,-43728
653329448027822024,-27239,-55117,-43808
653329448035256719,-27340,-54963,-43753
653329448042691414,-27359,-55083,-43678
653329448050126109,-27272,-55149,-43741
653329448057560804,-27342,-54981,-43785
653329448064995499,-27304,-55102,-43744
653329448072430194,-27355,-55051,-43799
653329448079864889,-27264,-55035,-43777
653329448087299584,-27339,-55084,-43751
653329448094734281,-27461,-54948,-43614
653329448102168976,-27290,-54993,-43707
653329448109603671,-27321,-54992,-43776
653329448117038366,-27295,-55023,-43837
653329448124473061,-27313,-55029,-43844
653329448131907756,-27228,-55017,-43782
653329448139342451,-27255,-53842,-43802
653329448146777146,-27389,-54643,-43968
653329448154211841,-27395,-54730,-43870
653329448161646536,-27381,-55065,-43786
653329448169081231,-26140,-53894,-42691
653329448176515926,-26812,-54656,-43347
653329448183950621,-27224,-54802,-43693
653329448191385316,-27183,-54879,-43622
653329448198820011,-26169,-54883,-43650
653329448206254706,-26651,-54925,-43698
653329448213689401,-27017,-55030,-43794
653329448221124096,-27034,-54831,-43669
653329448228558793,-27082,-54961,-43913
653329448235993488,-27217,-54991,-43793
653329448243428183,-27227,-54923,-43809
653329448250862878,-27190,-54954,-43548
653329448258297573,-27179,-54878,-43592
653329448265732268,-27099,-54882,-43687
653329448273166963,-27053,-54844,-43578
653329448280601658,-27175,-54820,-43520
653329448288036353,-27155,-54729,-43506
653329448295471048,-27180,-54824,-43621
653329448302905743,-27173,-54716,-43588
653329448310340438,-27187,-54839,-43593
653329448317775133,-26989,-54698,-43500
653329448325209828,-27106,-54928,-43540
653329448332644523,-27176,-54951,-43599
653329448340079218,-27174,-54976,-43698
653329448347513913,-27015,-55034,-43687
653329448354948608,-27204,-54993,-43656
653329448362383305,-27087,-55055,-43894
6.53329E+17,-27167,-55082,-43817
653329448377252695,-27324,-55168,-43833
653329448384687390,-27313,-55240,-43841
653329448392122085,-27322,-55269,-43817
653329448399556780,-27378,-55193,-43758
653329448406991475,-27346,-55253,-43861
653329448414426170,-27313,-55296,-43889
653329448421860865,-27330,-55256,-43787
653329448429295560,-27373,-55262,-43719
653329448436730255,-27306,-55198,-43887
653329448444164950,-27463,-55281,-43823
653329448451599645,-27347,-55222,-43775
653329448459034340,-27533,-54214,-43926
653329448466469035,-27425,-54740,-43946
653329448473903730,-27520,-55183,-43864
653329448481338425,-27462,-55214,-43841
653329448488773120,-26342,-54187,-42765
653329448496331611,-26726,-54607,-43345
653329448503759024,-27104,-55040,-43727
653329448511186437,-27268,-55257,-43742
653329448518613850,-26253,-55283,-43722
653329448526041263,-26908,-55321,-43853
653329448533468676,-27289,-55337,-43871
653329448540896089,-27413,-55419,-43786
653329448548323502,-27366,-55589,-43932
653329448555750915,-27413,-55533,-43978
653329448563178328,-27611,-55494,-44075
653329448570605741,-27525,-55477,-43936
653329448578033154,-27610,-55483,-44087
653329448585460567,-27542,-55513,-43923
653329448592887980,-27519,-55466,-43889
653329448600315393,-27602,-55497,-43896
653329448607742806,-27623,-55361,-43834
653329448615170219,-27524,-55446,-43883
653329448622597632,-27430,-55422,-43826
653329448629777480,-27607,-55371,-43913
653329448637219456,-27483,-55322,-43908
653329448644661432,-27481,-55399,-43820
653329448652103408,-27527,-55467,-43885
653329448659545384,-27388,-55451,-43913
653329448666987360,-27422,-55467,-43956
653329448674429336,-27318,-55453,-43799
653329448681871312,-27382,-55463,-43831
653329448689313288,-27383,-55499,-43795
653329448696755264,-27419,-55431,-43846
653329448704197240,-27356,-55378,-43811
653329448711639216,-27402,-55395,-43857
653329448719081192,-27418,-55351,-43815
653329448726523168,-27434,-55389,-43795
653329448733965144,-27393,-55428,-43763
653329448741407120,-27368,-55328,-43721
653329448748849096,-27393,-55378,-43624
653329448756291072,-27342,-55415,-43698
653329448763733064,-27465,-55419,-43552
653329448771175040,-27424,-55514,-43518
653329448778617016,-27390,-54273,-43674
653329448786058992,-27437,-54980,-43738
653329448793500968,-27360,-55225,-43776
653329448800942944,-27255,-55277,-43695
653329448808384920,-26222,-54261,-42608
653329448815826896,-26752,-54899,-43252
653329448823268872,-26982,-55124,-43563
653329448830710848,-27092,-55254,-43539
653329448838152824,-26199,-55277,-43114
653329448845594800,-26719,-55204,-43277
653329448853036776,-27038,-55264,-43546
653329448860478752,-27053,-55219,-43529
653329448867920728,-27121,-55262,-43570
653329448875362704,-27094,-55218,-43454
653329448882804680,-27122,-55131,-43396
653329448890246656,-27122,-55161,-43481
653329448897936219,-27026,-55144,-43485
653329448905363632,-27071,-55095,-43313
653329448912791045,-26979,-55024,-43313
653329448920218458,-27007,-55181,-43213
653329448927645871,-26961,-55090,-43214
653329448935073284,-27024,-55043,-43181
653329448942500697,-26817,-55119,-43172
653329448949928110,-26969,-55093,-43199
653329448957355523,-26774,-55014,-42947
653329448964782936,-26816,-55023,-42926
653329448972210349,-26913,-55053,-42895
653329448979637762,-26929,-54988,-42854
653329448987065175,-26742,-55014,-43048
653329448994492588,-26736,-54981,-42929
653329449001920001,-26715,-54983,-42900
653329449009347414,-26689,-55007,-42901
653329449016774827,-26693,-54924,-42839
653329449024202240,-26533,-54867,-42681
653329449031505865,-26680,-54801,-42405
653329449038940560,-26714,-54810,-42657
653329449046375255,-26589,-54804,-42606
653329449053809950,-26491,-54773,-42452
653329449061244645,-26540,-54833,-42563
653329449068679340,-26491,-54739,-42451
653329449076114035,-26412,-54747,-42463
653329449083548730,-26478,-54698,-42495
653329449090983425,-26340,-54686,-42409
653329449098418120,-26370,-54296,-42215
653329449105852815,-26353,-54523,-42338
653329449113287510,-26250,-54596,-42303
653329449120722205,-26237,-54673,-42162
653329449128156900,-24975,-53538,-41059
653329449135591595,-25645,-54207,-41565
653329449143026290,-25896,-54347,-41774
653329449150460985,-25912,-54348,-41824
653329449157895680,-24753,-54456,-40767
653329449165206600,-25564,-54891,-40995
653329449172648576,-25745,-54593,-41354
653329449180090552,-25674,-54442,-41516
653329449187532528,-25813,-54586,-41595
653329449194974504,-25849,-54408,-41757
653329449202416480,-25823,-54372,-41786
653329449209858456,-25786,-54401,-41776
653329449217300432,-25793,-54488,-41746
653329449224742408,-25803,-54416,-41821
653329449232184384,-25901,-54475,-41682
653329449239626360,-25772,-54529,-41684
653329449247068336,-25819,-54466,-41649
653329449254510312,-25847,-54479,-41656
653329449261952288,-25824,-54506,-41691
653329449269394264,-25779,-54405,-41684
653329449276836240,-25668,-54453,-41560
653329449284278216,-25746,-54606,-41692
653329449291720192,-25771,-54603,-41659
653329449299162184,-25731,-54365,-41720
653329449306604160,-25842,-54607,-41731
653329449314046136,-25886,-54631,-41804
653329449321488112,-25897,-54643,-41772
653329449328930088,-26052,-54751,-41811
653329449336372064,-26169,-54756,-41899
653329449343814040,-26111,-54814,-42065
653329449351256016,-25959,-54865,-41995
653329449358697992,-26057,-54862,-42042
653329449366139968,-26161,-54939,-42049
653329449373581944,-26116,-54908,-42051
653329449381023920,-26072,-54864,-42060
653329449388465896,-26212,-54929,-42094
653329449395907872,-26376,-54985,-42187
653329449403349848,-26293,-55085,-42048
653329449410791824,-26271,-55138,-42040
653329449418233800,-26269,-55151,-42080
653329449425675776,-26323,-55053,-42150
653329449433365339,-26499,-54799,-41961
653329449440792752,-26344,-54861,-42025
653329449448220165,-26269,-53861,-40976
653329449455647578,-26309,-54564,-41649
653329449463074991,-26313,-54769,-41937
653329449470502404,-26256,-54987,-42036
653329449477929817,-25160,-54569,-40999
653329449485357230,-25891,-54833,-41626
653329449492784643,-26048,-55016,-41937
653329449500212056,-26173,-54992,-41998
653329449507639469,-26306,-55031,-42087
653329449515066882,-26367,-55070,-42212
653329449522494295,-26268,-55027,-42118
653329449529921708,-26399,-55098,-42071
653329449537349121,-26463,-55088,-42030
653329449544776534,-26299,-55018,-42119
653329449552203947,-26260,-55052,-42082
653329449559631360,-26382,-55127,-42178
653329449566934985,-26403,-55091,-42263
653329449574369680,-26423,-55024,-42167
653329449581804375,-26289,-55110,-42123
653329449589239070,-26219,-55205,-42160
653329449596673765,-26410,-54963,-41976
653329449604108460,-26543,-55227,-42181
653329449611543155,-26476,-55152,-42207
653329449618977850,-26479,-55246,-42277
653329449626412545,-26358,-55177,-42110
653329449633847240,-26425,-55215,-42256
653329449641281935,-26514,-55122,-42375
653329449648716630,-26479,-55211,-42298
653329449656151325,-26554,-55177,-42389
653329449663586020,-26549,-55236,-42340
653329449671020715,-26455,-55242,-42271
653329449678455410,-26597,-55194,-42227
653329449685890105,-26567,-55287,-42327
653329449693324800,-26505,-55185,-42242
653329449700635720,-26405,-55019,-42017
653329449708077696,-26454,-55030,-42140
653329449715519672,-26393,-55140,-42194
653329449722961648,-26379,-55120,-42117
653329449730403624,-26407,-55070,-42246
653329449737845600,-26430,-55131,-42151
653329449745287576,-26501,-55133,-42228
653329449752729552,-26590,-55146,-42350
653329449760171528,-26441,-55157,-42263
653329449767613504,-26400,-53982,-41116
653329449775055480,-26443,-54711,-41692
653329449782497456,-26398,-55041,-41879
653329449789939432,-26283,-55075,-41976
653329449797381408,-25212,-54018,-40942
653329449804823384,-26047,-54711,-41613
653329449812265360,-26100,-54867,-41797
653329449819707336,-26333,-55036,-42106
653329449827149312,-25969,-55063,-42203
653329449834838875,-26310,-55331,-42227
653329449842266288,-26194,-55105,-42076
653329449849693701,-26138,-54922,-41970
653329449857121114,-26199,-54958,-42006
653329449864548527,-26230,-54971,-42000
653329449871975940,-26260,-55038,-42038
653329449879403353,-26335,-55010,-42012
653329449886830766,-26298,-55041,-42045
653329449894258179,-26259,-54954,-41905
653329449901685592,-26150,-54958,-41940
653329449909113005,-26271,-54801,-42011
653329449916540418,-26240,-54758,-41901
653329449923967831,-26101,-54756,-41827
653329449931395244,-26153,-54804,-42004
653329449938822657,-26116,-54922,-41939
653329449946250070,-26080,-54951,-41800
653329449953677483,-26098,-54817,-41847
653329449961104896,-25983,-54777,-41766
653329449968284744,-25813,-54889,-41747
653329449975726720,-25996,-54927,-41926
653329449983168696,-25944,-54651,-41756
653329449990610672,-25992,-54613,-41838
653329449998052648,-26069,-54858,-41870
653329450005494624,-26077,-54677,-41785
653329450012936600,-26066,-54743,-41720
653329450020378576,-26117,-54774,-41657
653329450027820552,-26130,-54714,-41716
653329450035262528,-26027,-54683,-41746
653329450042704504,-25984,-54618,-41679
653329450050146480,-25959,-54579,-41759
653329450057588456,-25966,-54613,-41691
653329450065030432,-26030,-54706,-41665
653329450072472408,-26041,-54661,-41608
653329450079914384,-25970,-54536,-41619
653329450087356360,-25888,-53420,-40547
653329450094798336,-25799,-54066,-41099
653329450102364105,-25669,-54353,-41552
653329450109798800,-25871,-54476,-41486
653329450117233495,-24779,-53594,-40430
653329450124668190,-25384,-54129,-41026
653329450132102885,-25683,-54365,-41347
653329450139537580,-25726,-54428,-41435
653329450146972275,-24758,-54559,-41591
653329450154406970,-25480,-54693,-41626
653329450161841665,-25714,-54686,-41606
653329450169276360,-25904,-54644,-41781
653329450176711055,-25932,-54786,-41786
653329450184145750,-25963,-54947,-41759
653329450191580445,-26032,-55058,-41804
653329450199015140,-26102,-55065,-41857
653329450206449835,-26171,-55093,-41911
653329450213884530,-26153,-55043,-41906
653329450221319225,-26136,-55076,-41896
653329450228753920,-26191,-55001,-42010
653329450236188617,-26378,-54699,-41763
653329450243623312,-26297,-55025,-41906
653329450251058007,-26352,-55094,-41936
653329450258492702,-26440,-55200,-42037
653329450265927397,-26307,-55238,-41996
653329450273362092,-26281,-55173,-42030
653329450280796787,-26531,-55371,-42140
653329450288231482,-26565,-55377,-42192
653329450295666177,-26456,-55447,-42237
653329450303100872,-26473,-55382,-42213
653329450310535567,-26488,-55294,-42270
653329450317970262,-26588,-55479,-42260
653329450325404957,-26556,-55461,-42262
653329450332839652,-26665,-55612,-42319
653329450340274347,-26724,-55480,-42337
653329450347709042,-26733,-55510,-42301
653329450355143737,-26776,-55475,-42366
653329450362578432,-26632,-55481,-42435
653329450369889352,-26705,-55698,-42503
653329450377331328,-26781,-55563,-42507
653329450384773304,-26805,-55588,-42654
653329450392215280,-26840,-55617,-42597
653329450399657256,-26747,-55545,-42563
653329450407099232,-26950,-54453,-41674
653329450414541208,-26970,-55104,-42303
653329450421983184,-26980,-55297,-42430
653329450429425160,-26912,-55573,-42608
653329450436867136,-25845,-54520,-41592
653329450444309112,-26458,-55114,-42193
653329450451751088,-26759,-55434,-42471
653329450459193064,-27088,-55615,-42689
653329450466635040,-25993,-55785,-42905
653329450474077016,-26470,-55720,-42906
653329450481518992,-26917,-55709,-42894
653329450488960968,-27105,-55819,-43007
653329450496402944,-27237,-55855,-43125
653329450503968713,-27265,-55670,-43285
653329450511403408,-27272,-55742,-43133
653329450518838103,-27320,-55888,-43248
653329450526272798,-27371,-55889,-43213
653329450533707493,-27269,-55876,-43202
653329450541142188,-27315,-55964,-43164
653329450548576883,-27323,-56039,-43246
653329450556011578,-27385,-55760,-43230
653329450563446273,-27486,-55960,-43367
653329450570880968,-27453,-56093,-43277
653329450578315663,-27414,-56040,-43356
653329450585750358,-27454,-56000,-43332
653329450593185053,-27552,-56005,-43362
653329450600619748,-27565,-56056,-43566
653329450608054443,-27607,-56043,-43513
653329450615489138,-27439,-56206,-43498
653329450622923833,-27399,-56080,-43451
653329450630358528,-27502,-56014,-43380
653329450637793225,-27640,-56131,-43570
653329450645227920,-27590,-56112,-43561
653329450652662615,-27581,-55974,-43509
653329450660097310,-27504,-56015,-43478
653329450667532005,-27587,-56015,-43459
653329450674966700,-27510,-55982,-43461
653329450682401395,-27464,-55993,-43419
653329450689836090,-27443,-55945,-43435
653329450697270785,-27543,-56024,-43601
653329450704705480,-27593,-56116,-43513
653329450712140175,-27689,-56071,-43500
653329450719574870,-27673,-56167,-43652
653329450727009565,-27688,-54906,-43394
653329450734444260,-27644,-55635,-43493
653329450741878955,-27559,-55759,-43530
653329450749313650,-27661,-55901,-43574
653329450756748345,-26606,-54887,-42406
653329450764183040,-27184,-55562,-42955
653329450771617737,-27215,-55962,-43239
653329450779052432,-27388,-56119,-43425
653329450786487127,-26472,-55959,-43481
653329450793921822,-27052,-56029,-43447
653329450801356517,-27394,-55992,-43524
653329450808791212,-27471,-56068,-43558
653329450816225907,-27546,-56092,-43530
653329450823660602,-27597,-55996,-43458
653329450831095297,-27505,-55990,-43485
653329450838529992,-27681,-56061,-43486
653329450845964687,-27594,-56017,-43476
653329450853399382,-27498,-56002,-43463
653329450860834077,-27586,-55952,-43484
653329450868268772,-27527,-55950,-43451
653329450875703467,-27630,-55817,-43303
653329450883138162,-27517,-55896,-43398
653329450890572857,-27527,-56003,-43419
653329450898007552,-27607,-55938,-43484
653329450905442249,-27262,-55742,-43398
653329450912876944,-27308,-55760,-43398
653329450920311639,-27499,-55739,-43344
653329450927746334,-27452,-55767,-43277
653329450935181029,-27286,-55890,-43342
653329450942615724,-27450,-55781,-43349
653329450950050419,-27369,-55858,-43438
653329450957485114,-27537,-55842,-43385
653329450964919809,-27408,-55802,-43339
653329450972354504,-27546,-55653,-43324
653329450979789199,-27494,-55893,-43264
653329450987223894,-27433,-55840,-43215
653329450994658589,-27356,-55630,-43266
653329451002093284,-27533,-55730,-43349
653329451009527979,-27436,-55703,-43342
653329451016962674,-27551,-55708,-43419
653329451024397369,-27417,-55651,-43315
653329451031832064,-27379,-55594,-43268
653329451039142984,-27236,-55324,-43311
653329451046584960,-27327,-54310,-42610
653329451054026936,-27430,-55005,-42925
653329451061468912,-27380,-55476,-43217
653329451068910888,-27473,-55477,-43293
653329451076352864,-26294,-54562,-42119
653329451083794840,-26885,-55170,-42768
653329451091236816,-27150,-55445,-43082
653329451098678792,-27377,-55578,-43286
653329451106120768,-26280,-55792,-43300
653329451113562744,-26938,-55707,-43399
653329451121004720,-27265,-55879,-43348
653329451128446696,-27423,-55874,-43471
653329451135888672,-27410,-55819,-43479
653329451143330648,-27642,-55851,-43529
653329451150772624,-27647,-55894,-43537
653329451158214600,-27648,-56099,-43457
653329451165656576,-27625,-56041,-43501
653329451173346139,-27752,-56148,-43277
653329451180773552,-27774,-56112,-43529
653329451188200965,-27910,-56090,-43622
653329451195628378,-27898,-56126,-43573
653329451203055791,-27853,-56100,-43584
653329451210483204,-27734,-56202,-43651
653329451217910617,-27924,-56295,-43675
653329451225338030,-27820,-56218,-43575
653329451232765443,-27828,-56200,-43720
653329451240192856,-27896,-56404,-43770
653329451247620269,-28003,-56363,-43877
653329451255047682,-27839,-56327,-43858
653329451262475095,-28023,-56433,-43922
653329451269902508,-28047,-56320,-43890
653329451277329921,-28109,-56496,-43889
653329451284757334,-28127,-56534,-43890
653329451292184747,-28088,-56527,-43926
653329451299612160,-28119,-56497,-43930
653329451306792008,-28242,-56417,-44089
653329451314233984,-28170,-56458,-43969
653329451321675960,-28059,-56423,-43929
653329451329117936,-28141,-56481,-43945
653329451336559912,-28109,-56529,-44046
653329451344001888,-28273,-56502,-44014
653329451351443864,-28207,-56656,-44115
653329451358885840,-28273,-56523,-44122
653329451366327816,-28484,-55509,-43195
653329451373769792,-28383,-56184,-43762
653329451381211768,-28306,-56456,-44133
653329451388653744,-28341,-56594,-44255
653329451396095720,-27313,-55567,-43138
653329451403537696,-27810,-56210,-43773
653329451410979672,-28141,-56470,-44107
653329451418421648,-28348,-56658,-44156
653329451425863624,-27316,-56640,-44257
653329451433305600,-27778,-56625,-44166
653329451440871369,-27890,-56787,-44028
653329451448306064,-28316,-56723,-44144
653329451455740759,-28357,-56824,-44272
653329451463175454,-28220,-56722,-44291
653329451470610149,-28303,-56839,-44368
653329451478044844,-28562,-56831,-44404
653329451485479539,-28611,-56889,-44462
653329451492914234,-28643,-56926,-44515
653329451500348929,-28634,-56858,-44426
653329451507783624,-28642,-56931,-44499
653329451515218319,-28629,-56722,-44401
653329451522653014,-28567,-56724,-44444
653329451530087709,-28669,-56824,-44517
653329451537522404,-28723,-56839,-44615
653329451544957099,-28545,-56732,-44536
653329451552391794,-28594,-56823,-44573
653329451559826489,-28744,-56865,-44699
653329451567261184,-28661,-56938,-44752
653329451574695881,-28311,-56759,-44789
653329451582130576,-28554,-56929,-44714
653329451589565271,-28749,-56825,-44728
653329451596999966,-28565,-57182,-44519
653329451604434661,-28595,-57065,-44651
653329451611869356,-28727,-56944,-44585
653329451619304051,-28728,-56925,-44676
653329451626738746,-28848,-56881,-44663
653329451634173441,-28841,-56882,-44645
653329451641608136,-28748,-56826,-44648
653329451649042831,-28766,-56846,-44782
653329451656477526,-28898,-56870,-44746
653329451663912221,-28730,-56826,-44752
653329451671346916,-28818,-56852,-44736
653329451678781611,-28731,-57069,-44696
653329451686216306,-28798,-55808,-43927
653329451693651001,-28698,-56267,-44295
653329451701085696,-28705,-56488,-44493
653329451708520393,-28782,-56687,-44684
653329451715955088,-27671,-55654,-43534
653329451723389783,-28157,-56277,-44130
653329451730824478,-28471,-56527,-44349
653329451738259173,-28597,-56716,-44444
653329451745693868,-27463,-56733,-44580
653329451753128563,-28166,-56722,-44468
653329451760563258,-28469,-56712,-44461
653329451767997953,-28693,-56859,-44469
653329451775432648,-28651,-56750,-44439
653329451782867343,-28785,-56794,-44329
653329451790302038,-28595,-56834,-44357
653329451797736733,-28600,-56745,-44471
653329451805171428,-28664,-56727,-44354
653329451812606123,-28570,-56534,-44284
653329451820040818,-28499,-56578,-44282
653329451827475513,-28504,-56610,-44172
653329451834910208,-28580,-56474,-44148
653329451842221128,-28329,-56328,-43967
653329451849663104,-28448,-56589,-44143
653329451857105080,-28504,-56634,-44116
653329451864547056,-28293,-56446,-43992
653329451871989032,-28344,-56422,-44000
653329451879431008,-28388,-56369,-44135
653329451886872984,-28495,-56483,-44244
653329451894314960,-28254,-56486,-44223
653329451901756936,-28439,-56528,-44121
653329451909198912,-28519,-56454,-44216
653329451916640888,-28605,-56428,-44157
653329451924082864,-28565,-56433,-44204
653329451931524840,-28509,-56402,-44173
653329451938966816,-28565,-56394,-44189
653329451946408792,-28729,-56567,-44236
653329451953850768,-28675,-56610,-44208
653329451961292744,-28686,-56541,-44249
653329451968734720,-28586,-56386,-44297
653329451976300489,-28863,-56536,-44124
653329451983735184,-28559,-56442,-44195
653329451991169879,-28523,-56539,-44275
653329451998604574,-28508,-56436,-44248
653329452006039269,-28469,-55385,-44027
653329452013473964,-28307,-55858,-44089
653329452020908659,-28345,-56113,-44199
653329452028343354,-28457,-56234,-44160
653329452035778049,-27351,-55110,-43028
653329452043212744,-27723,-55704,-43616
653329452050647439,-28090,-56062,-43746
653329452058082134,-28216,-56140,-43894
653329452065516829,-27021,-56202,-44002
653329452072951524,-27765,-56275,-43948
653329452080386219,-28075,-56297,-44086
653329452087820914,-28360,-56472,-44255
653329452095255609,-28388,-56525,-44242
653329452102690304,-28403,-56487,-44357
653329452110125001,-28579,-56289,-44334
653329452117559696,-28587,-56416,-44446
653329452124994391,-28568,-56624,-44441
653329452132429086,-28529,-56639,-44497
653329452139863781,-28729,-56651,-44627
653329452147298476,-28826,-56665,-44679
653329452154733171,-28849,-56653,-44643
653329452162167866,-28869,-56747,-44700
653329452169602561,-29060,-56855,-44900
653329452177037256,-29082,-56876,-44977
653329452184471951,-28929,-56796,-44914
653329452191906646,-29007,-56979,-45009
653329452199341341,-29046,-57098,-45253
653329452206776036,-29271,-57023,-45243
653329452214210731,-29078,-57094,-45254
653329452221645426,-29252,-57062,-45224
653329452229080121,-29305,-57111,-45269
653329452236514816,-29433,-57175,-45367
653329452243949513,-29538,-56920,-45173
653329452251384208,-29433,-57014,-45317
653329452258818903,-29478,-57208,-45303
653329452266253598,-29502,-57227,-45434
653329452273688293,-29545,-57251,-45412
653329452281122988,-29529,-57307,-45338
653329452288557683,-29527,-57344,-45514
653329452295992378,-29686,-57373,-45512
653329452303427073,-29717,-57497,-45607
653329452310861768,-29749,-57404,-45643
653329452318296463,-29880,-57426,-45683
653329452325731158,-29934,-56315,-45755
653329452333165853,-29904,-56896,-45885
653329452340600548,-29925,-57199,-45908
653329452348035243,-29956,-57313,-45914
653329452355469938,-28692,-56262,-44828
653329452362904633,-29316,-57057,-45621
653329452370339328,-29664,-57330,-45938
653329452377650248,-29618,-57256,-45864
653329452385092224,-28653,-57436,-45753
653329452392534200,-29506,-57469,-46126
653329452399976176,-29799,-57608,-46392
653329452407418152,-30045,-57650,-46516
653329452414860128,-30057,-57586,-46586
653329452422302104,-30055,-57556,-46661
653329452429744080,-29851,-57597,-46680
653329452437186056,-30148,-57781,-46875
653329452444628032,-30242,-57815,-46840
653329452452070008,-30212,-57697,-46822
653329452459511984,-30358,-57731,-46849
653329452466953960,-30285,-57923,-46880
653329452474395936,-30280,-57714,-46890
653329452481837912,-30306,-57739,-47039
653329452489279888,-30382,-57850,-47084
653329452496721864,-30507,-57852,-47244
653329452504163840,-30357,-57830,-47014
653329452511853403,-30411,-58109,-46895
653329452519280816,-30455,-58117,-47097
653329452526708229,-30573,-58049,-47187
653329452534135642,-30437,-58007,-47243
653329452541563055,-30438,-57976,-47257
653329452548990468,-30411,-57856,-47274
653329452556417881,-30429,-57971,-47262
653329452563845294,-30565,-57935,-47278
653329452571272707,-30406,-58026,-47115
653329452578700120,-30504,-57961,-47217
653329452586127533,-30572,-58056,-47250
653329452593554946,-30466,-57955,-47176
653329452600982359,-30413,-57909,-47199
653329452608409772,-30477,-58046,-47134
653329452615837185,-30313,-57947,-47123
653329452623264598,-30398,-57974,-47035
653329452630692011,-30284,-57981,-47081
653329452638119424,-30346,-57869,-47073
653329452645299272,-30289,-56769,-46705
653329452652741248,-30303,-57287,-46833
653329452660183224,-30320,-57582,-46844
653329452667625200,-30380,-57762,-46946
653329452675067176,-29169,-56607,-45795
653329452682509152,-29739,-57189,-46336
653329452689951128,-30055,-57435,-46529
653329452697393104,-30133,-57607,-46634
653329452704835080,-29048,-57540,-46177
653329452712277056,-29730,-57632,-46324
653329452719719032,-29927,-57670,-46434
653329452727161008,-29971,-57573,-46442
653329452734602984,-29988,-57410,-46415
653329452742044960,-29968,-57384,-46306
653329452749486936,-30109,-57388,-46382
653329452756928912,-30084,-57482,-46274
653329452764370888,-30047,-57421,-46301
653329452771812864,-29969,-57415,-46137
653329452779378633,-29825,-57415,-46181
653329452786813328,-29858,-57438,-46088
653329452794248023,-29756,-57183,-45858
653329452801682718,-29909,-57094,-45682
653329452809117413,-29905,-57292,-45736
653329452816552108,-29984,-57221,-45628
653329452823986803,-29859,-57104,-45266
653329452831421498,-29919,-57145,-45326
653329452838856193,-29731,-57082,-45178
653329452846290888,-29640,-57012,-45179
653329452853725583,-29620,-56954,-45154
653329452861160278,-29642,-56969,-45017
653329452868594973,-29693,-57006,-44935
653329452876029668,-29835,-56921,-45005
653329452883464363,-29679,-56889,-44817
653329452890899058,-29701,-57009,-44736
653329452898333753,-29756,-56890,-44732
653329452905768448,-29708,-57005,-44693
653329452913326939,-29514,-56986,-44985
653329452920754352,-29558,-56846,-44831
653329452928181765,-29705,-56857,-44724
653329452935609178,-29657,-56792,-44604
653329452943036591,-29794,-56737,-44592
653329452950464004,-29714,-56821,-44663
653329452957891417,-29797,-56968,-44629
653329452965318830,-29858,-55662,-44487
653329452972746243,-29698,-56296,-44424
653329452980173656,-29634,-56456,-44424
653329452987601069,-29754,-56600,-44422
653329452995028482,-28560,-55412,-43308
653329453002455895,-29201,-56028,-43997
653329453009883308,-29422,-56411,-44278
653329453017310721,-29475,-56543,-44412
653329453024738134,-28391,-56556,-44553
653329453032165547,-28970,-56678,-44469
653329453039592960,-29243,-56722,-44484
653329453046772808,-29162,-56639,-44472
653329453054214784,-29310,-56747,-44384
653329453061656760,-29252,-56813,-44464
653329453069098736,-29290,-56778,-44423
653329453076540712,-29275,-56761,-44450
653329453083982688,-29343,-56736,-44405
653329453091424664,-29387,-56777,-44454
653329453098866640,-29270,-56833,-44422
653329453106308616,-29388,-56907,-44567
653329453113750592,-29375,-56857,-44317
653329453121192568,-29380,-56911,-44454
653329453128634544,-29319,-56935,-44435
653329453136076520,-29369,-56910,-44451
653329453143518496,-29114,-56798,-44259
653329453150960472,-29188,-56769,-44390
653329453158402448,-29165,-56945,-44251
653329453165844424,-29062,-56989,-44198
653329453173286400,-28950,-56925,-44217
653329453180852169,-29066,-56710,-44257
653329453188286864,-29023,-56725,-43990
653329453195721559,-29069,-56680,-43744
653329453203156254,-28891,-56714,-43599
653329453210590949,-28845,-56724,-43463
653329453218025644,-28807,-56641,-43309
653329453225460339,-28761,-56662,-43111
653329453232895034,-28621,-56509,-42928
653329453240329729,-28457,-56528,-42784
653329453247764424,-28435,-56484,-42776
653329453255199119,-28303,-56426,-42545
653329453262633814,-28249,-56324,-42348
653329453270068509,-28222,-56340,-42183
653329453277503204,-28141,-56228,-42144
653329453284937899,-28124,-55022,-41578
653329453292372594,-27960,-55599,-41648
653329453299807289,-27947,-56022,-41604
653329453307241984,-27975,-56148,-41621
653329453314676681,-26956,-54779,-40147
653329453322111376,-27585,-55592,-40893
653329453329546071,-27970,-55850,-41271
653329453336980766,-27985,-56050,-41363
653329453344415461,-26881,-55943,-41433
653329453351850156,-27513,-56068,-41445
653329453359284851,-27838,-56102,-41437
653329453366719546,-27937,-56113,-41484
653329453374154241,-27851,-56040,-41305
653329453381588936,-27871,-55997,-41254
653329453389023631,-27938,-56010,-41347
653329453396458326,-27952,-56066,-41192
653329453403893021,-27792,-55911,-41126
653329453411327716,-27754,-55927,-41009
653329453418762411,-27654,-55876,-40892
653329453426197106,-27595,-55889,-40902
653329453433631801,-27601,-55593,-40645
653329453441066496,-27462,-55698,-40617
653329453448501193,-27625,-55715,-40341
653329453455935888,-27432,-55614,-40340
653329453463370583,-27314,-55474,-40211
653329453470805278,-27204,-55485,-40295
653329453478239973,-27222,-55628,-40283
653329453485674668,-27108,-55468,-40121
653329453493109363,-26912,-55385,-39933
653329453500544058,-26940,-55380,-39838
653329453507978753,-26988,-55418,-39694
653329453515413448,-26935,-55316,-39616
653329453522848143,-26963,-55288,-39422
653329453530282838,-26881,-55258,-39445
653329453537717533,-26902,-55334,-39375
653329453545152228,-26934,-55164,-39322
653329453552586923,-26873,-55160,-39280
653329453560021618,-26777,-55167,-39179
653329453567456313,-26893,-55091,-39204
653329453574891008,-26910,-55112,-39131
653329453582201928,-26904,-54864,-38714
653329453589643904,-26754,-54979,-38883
653329453597085880,-27077,-54933,-39043
653329453604527856,-26863,-53767,-38044
653329453611969832,-26634,-54429,-38412
653329453619411808,-26590,-54654,-38599
653329453626853784,-26654,-54807,-38669
653329453634295760,-25400,-53591,-37408
653329453641737736,-26013,-54240,-38022
653329453649179712,-26351,-54510,-38247
653329453656621688,-26277,-54596,-38285
653329453664063664,-25010,-54699,-38268
653329453671505640,-25569,-54650,-38189
653329453678947616,-25905,-54693,-38166
653329453686389592,-25996,-54667,-38156
653329453693831568,-25901,-54576,-38029
653329453701273544,-25994,-54552,-37987
653329453708715520,-26088,-54589,-37973
653329453716281289,-25945,-54308,-37937
653329453723715984,-25945,-54366,-37747
653329453731150679,-25799,-54279,-37739
653329453738585374,-25979,-54388,-37807
653329453746020069,-25869,-54412,-37721
653329453753454764,-25846,-54119,-37467
653329453760889459,-25719,-54223,-37525
653329453768324154,-25610,-54246,-37496
653329453775758849,-25683,-54191,-37423
653329453783193544,-25501,-54164,-37280
653329453790628239,-25673,-54265,-37316
653329453798062934,-25677,-54239,-37440
653329453805497629,-25711,-54339,-37370
653329453812932324,-25553,-54193,-37315
653329453820367019,-25617,-54145,-37376
653329453827801714,-25624,-54220,-37256
653329453835236409,-25635,-54109,-37386
653329453842671104,-25564,-54156,-37272
653329453850105801,-25420,-53963,-37375
653329453857540496,-25502,-54106,-37337
653329453864975191,-25477,-54125,-37314
653329453872409886,-25413,-54025,-37154
653329453879844581,-25325,-54084,-37122
653329453887279276,-25307,-53968,-36990
653329453894713971,-25230,-53809,-36818
653329453902148666,-25193,-53801,-36731
653329453909583361,-25111,-53876,-36693
653329453917018056,-25012,-53745,-36572
653329453924452751,-24975,-52504,-35261
653329453931887446,-24732,-53156,-35873
653329453939322141,-24908,-53346,-36063
653329453946756836,-24897,-53730,-36061
653329453954191531,-23472,-52548,-34730
653329453961626226,-23944,-53091,-35306
653329453969060921,-24413,-53480,-35601
653329453976495616,-24489,-53634,-35661
653329453983930313,-23390,-53419,-35894
653329453991365008,-24041,-53545,-35807
653329453998799703,-24297,-53581,-35742
653329454006234398,-24389,-53753,-35516
653329454013669093,-24408,-53670,-35561
653329454021103788,-24453,-53698,-35589
653329454028538483,-24444,-53620,-35574
653329454035973178,-24474,-53690,-35519
653329454043407873,-24497,-53668,-35599
653329454050842568,-24434,-53715,-35414
653329454058277263,-24567,-53699,-35475
653329454065711958,-24504,-53725,-35391
653329454073146653,-24423,-53635,-35163
653329454080581348,-24492,-53681,-35278
653329454088016043,-24588,-53809,-35281
653329454095450738,-24586,-53832,-35172
653329454102885433,-24348,-53640,-35081
653329454110320128,-24376,-53744,-35233
653329454117754825,-24783,-53883,-35013
653329454125189520,-24582,-53883,-35085
653329454132624215,-24461,-53802,-35036
653329454140058910,-24455,-53777,-34941
653329454147493605,-24565,-53889,-34886
653329454154928300,-24387,-53799,-34932
653329454162362995,-24442,-53631,-34909
653329454169797690,-24314,-53730,-34846
653329454177232385,-24369,-53813,-34909
653329454184667080,-24372,-53805,-34833
653329454192101775,-24305,-53685,-34849
653329454199536470,-24374,-53761,-34759
653329454206971165,-24394,-53907,-34878
653329454214405860,-24380,-53816,-34794
653329454221840555,-24256,-53761,-34764
653329454229275250,-24374,-53809,-34793
653329454236709945,-24444,-53681,-34861
653329454244144640,-24409,-52449,-33637
653329454251579337,-24538,-53061,-34383
653329454259014032,-24480,-53403,-34463
653329454266448727,-24504,-53696,-34563
653329454273883422,-23165,-52454,-33541
653329454281318117,-23740,-53034,-34182
653329454288752812,-24061,-53285,-34493
653329454296187507,-24279,-53538,-34541
653329454303622202,-23088,-53530,-34484
653329454311056897,-23811,-53555,-34648
653329454318491592,-24170,-53588,-34620
653329454325926287,-24289,-53650,-34583
653329454333360982,-24238,-53626,-34579
653329454340795677,-24284,-53571,-34542
653329454348230372,-24214,-53550,-34560
653329454355665067,-24239,-53605,-34425
653329454363099762,-24261,-53606,-34375
653329454370534457,-24103,-53460,-34288
653329454377969152,-24232,-53496,-34392
653329454385403849,-23992,-53294,-34551
653329454392838544,-24184,-53235,-34213
653329454400273239,-24210,-53364,-34224
653329454407707934,-24216,-53500,-34420
653329454415142629,-24148,-53427,-34334
653329454422577324,-23984,-53404,-34151
653329454430012019,-24078,-53385,-34202
653329454437446714,-24087,-53473,-34235
653329454444881409,-24061,-53406,-34205
653329454452316104,-23926,-53404,-34220
653329454459750799,-24093,-53501,-34192
653329454467185494,-24038,-53464,-34173
653329454474620189,-24224,-53402,-34296
653329454482054884,-24053,-53412,-34060
653329454489489579,-24146,-53377,-34080
653329454496924274,-24168,-53415,-34264
653329454504358969,-24092,-53368,-34198
653329454511793664,-24013,-53451,-34190
653329454519104584,-23929,-53636,-34412
653329454526546560,-24085,-53488,-34450
653329454533988536,-24085,-53488,-34366
653329454541430512,-24044,-53268,-34264
653329454548872488,-24005,-53363,-34361
653329454556314464,-24119,-53340,-34299
653329454563756440,-24058,-52157,-34179
653329454571198416,-24136,-52744,-34349
653329454578640392,-24207,-53312,-34484
653329454586082368,-24228,-53240,-34585
653329454593524344,-22929,-52092,-33332
653329454600966320,-23539,-52692,-33942
653329454608408296,-24030,-53197,-34210
653329454615850272,-24108,-53242,-34385
653329454623292248,-22853,-53109,-34299
653329454630734224,-23615,-53216,-34404
653329454638176200,-23883,-53260,-34296
653329454645618176,-24003,-53181,-34284
653329454653307739,-24085,-53195,-33988
653329454660735152,-24033,-53191,-34253
653329454668162565,-23931,-52996,-34261
653329454675589978,-24036,-53152,-34319
653329454683017391,-23900,-53052,-34221
653329454690444804,-24061,-53056,-34169
653329454697872217,-24069,-53224,-34085
653329454705299630,-24109,-53097,-34117
653329454712727043,-24032,-52889,-34036
653329454720154456,-23951,-53043,-33988
653329454727581869,-24069,-53016,-34119
653329454735009282,-24061,-53086,-34166
653329454742436695,-23870,-52863,-34047
653329454749864108,-23890,-52955,-34012
653329454757291521,-24006,-52952,-34100
653329454764718934,-24142,-52938,-34232
653329454772146347,-23966,-52911,-34301
653329454779573760,-24155,-53054,-34193
653329454786877385,-23929,-53096,-34191
653329454794312080,-23977,-53148,-34303
653329454801746775,-24093,-52969,-34170
653329454809181470,-24054,-52983,-34258
653329454816616165,-24197,-52869,-34275
653329454824050860,-24141,-52974,-34146
653329454831485555,-24019,-52922,-34082
653329454838920250,-23968,-52879,-34202
653329454846354945,-23993,-52907,-34253
653329454853789640,-24005,-52936,-34206
653329454861224335,-24109,-52906,-34251
653329454868659030,-24148,-52906,-34234
653329454876093725,-24041,-52883,-34189
653329454883528420,-24166,-51813,-34245
653329454890963115,-24001,-52391,-34035
653329454898397810,-24062,-52780,-34083
653329454905832505,-24143,-53018,-34253
653329454913267200,-22936,-51951,-33092
653329454920578120,-23714,-52664,-33533
653329454928020096,-23952,-52955,-33986
653329454935462072,-24073,-53074,-34316
653329454942904048,-23073,-53208,-33825
653329454950346024,-23705,-53300,-34207
6.53329E+17,-24108,-53396,-34444
653329454965229976,-24249,-53405,-34526
653329454972671952,-24381,-53389,-34794
653329454980113928,-24522,-53553,-34789
653329454987555904,-24622,-53662,-34957
653329454994997880,-24614,-53552,-35040
653329455002439856,-24608,-53592,-35069
653329455009881832,-24636,-53867,-35151
653329455017323808,-24797,-53845,-35315
653329455024765784,-24800,-53789,-35291
653329455032207760,-24956,-53596,-35511
653329455039649736,-24983,-53684,-35640
653329455047091712,-25012,-53910,-35825
653329455054657481,-25306,-53875,-35979
653329455062092176,-25091,-53794,-36064
653329455069526871,-25266,-53898,-36260
653329455076961566,-25368,-54101,-36496
653329455084396261,-25439,-54121,-36623
653329455091830956,-25514,-54116,-36778
653329455099265651,-25745,-54368,-37058
653329455106700346,-25866,-54433,-37318
653329455114135041,-26009,-54506,-37567
653329455121569736,-26123,-54581,-38042
653329455129004431,-26169,-54646,-38354
653329455136439126,-26323,-54773,-38698
653329455143873821,-26419,-54798,-39000
653329455151308516,-26536,-54865,-39322
653329455158743211,-26693,-55046,-39594
653329455166177906,-26796,-55109,-39779
653329455173612601,-26868,-55102,-39994
653329455181047296,-26914,-55155,-40224
653329455188481993,-26883,-54987,-40274
653329455195916688,-27030,-55247,-40489
653329455203351383,-27203,-54731,-40596
653329455210786078,-27187,-55001,-40850
653329455218220773,-27185,-55330,-41066
653329455225655468,-27308,-55384,-41304
653329455233090163,-26259,-54325,-40176
653329455240524858,-26864,-54942,-40851
653329455247959553,-27307,-55356,-41309
653329455255394248,-27395,-55436,-41528
653329455262828943,-26301,-55264,-40648
653329455270263638,-27012,-55417,-41445
653329455277698333,-27379,-55504,-41918
653329455285133028,-27658,-55672,-42233
653329455292567723,-27761,-55598,-42201
653329455300002418,-27734,-55649,-42398
653329455307437113,-27761,-55673,-42508
653329455314871808,-27713,-55653,-42546
653329455322306505,-27600,-55381,-42501
653329455329741200,-27784,-55559,-42652
653329455337175895,-27912,-55509,-42803
653329455344610590,-28041,-55565,-42927
653329455352045285,-28002,-55294,-43026
653329455359479980,-28015,-55617,-43071
653329455366914675,-28100,-55758,-43217
653329455374349370,-28134,-55651,-43310
653329455381784065,-28144,-55516,-43273
653329455389218760,-28201,-55622,-43429
653329455396653455,-28252,-55808,-43530
653329455404088150,-28375,-55744,-43645
653329455411522845,-28175,-55732,-43712
653329455418957540,-28285,-55753,-43772
653329455426392235,-28336,-55712,-43853
653329455433826930,-28368,-55615,-43995
653329455441261625,-28365,-55640,-43926
653329455448696320,-28455,-55623,-44097
653329455456131017,-28217,-55342,-44261
653329455463565712,-28397,-55564,-44189
653329455471000407,-28578,-55799,-44218
653329455478435102,-28696,-55760,-44380
653329455485869797,-28727,-55754,-44470
653329455493304492,-28734,-55634,-44426
653329455500739187,-28699,-55751,-44407
653329455508173882,-28737,-55697,-44632
653329455515608577,-28828,-55732,-44610
653329455523043272,-28765,-55628,-44584
653329455530477967,-28793,-55566,-44696
653329455537912662,-28806,-55670,-44787
653329455545347357,-28860,-55620,-44843
653329455552782052,-28102,-54479,-43640
653329455560216747,-28650,-55141,-44357
653329455567651442,-28829,-55412,-44713
653329455575086137,-28930,-55495,-44845
653329455582520832,-27748,-55505,-43832
653329455589955529,-28714,-55314,-44562
653329455597390224,-28977,-55662,-44849
653329455604824919,-29134,-55611,-45066
653329455612259614,-29131,-55697,-45158
653329455619694309,-29223,-55787,-45436
653329455627129004,-29327,-55718,-45515
653329455634563699,-29329,-55733,-45466
653329455641998394,-29263,-55718,-45529
653329455649433089,-29316,-55560,-45458
653329455656867784,-29441,-55551,-45561
653329455664302479,-29405,-55656,-45622
653329455671737174,-29387,-55428,-45626
653329455679171869,-29506,-55527,-45574
653329455686606564,-29578,-55626,-45616
653329455694041259,-29440,-55579,-45640
653329455701475954,-29483,-55527,-45576
653329455708910649,-29538,-55573,-45655
653329455716345344,-29711,-55498,-45821
653329455723656264,-29840,-55360,-45665
653329455731098240,-29500,-55365,-45650
653329455738540216,-29682,-55424,-45794
653329455745982192,-29712,-55518,-45790
653329455753424168,-29632,-55366,-45731
653329455760866144,-29611,-55338,-45633
653329455768308120,-29774,-55411,-45843
653329455775750096,-29739,-55416,-45853
653329455783192072,-29663,-55340,-45884
653329455790634048,-29627,-55328,-45792
653329455798076024,-29750,-55391,-45875
6.53329E+17,-29720,-55565,-45822
653329455812959976,-29718,-55358,-45864
653329455820401952,-29824,-55391,-45787
653329455827843928,-29834,-55376,-45898
653329455835285904,-29910,-55388,-46030
653329455842727880,-29917,-55436,-45986
653329455850169856,-29864,-55624,-46003
653329455857735625,-30137,-55428,-46404
653329455865170320,-30064,-55565,-46205
653329455872605015,-29800,-54495,-45018
653329455880039710,-30084,-55266,-45715
653329455887474405,-30152,-55627,-45963
653329455894909100,-30163,-55789,-46167
653329455902343795,-29179,-55485,-45219
653329455909778490,-29825,-55826,-45939
653329455917213185,-30233,-56033,-46282
653329455924647880,-30426,-56109,-46345
653329455932082575,-30377,-56075,-46562
653329455939517270,-30600,-56161,-46614
653329455946951965,-30587,-56292,-46742
653329455954386660,-30555,-56266,-46794
653329455961821355,-30667,-56299,-46811
653329455969256050,-30723,-56421,-46998
653329455976690745,-30741,-56516,-47124
653329455984125440,-30886,-56532,-47257
653329455991560137,-30728,-56622,-47551
653329455998994832,-30981,-56647,-47473
653329456006429527,-31127,-56747,-47417
653329456013864222,-31040,-56765,-47381
653329456021298917,-31099,-56613,-47292
653329456028733612,-31190,-56765,-47515
653329456036168307,-31180,-56856,-47621
653329456043603002,-31173,-56757,-47639
653329456051037697,-31217,-56776,-47534
653329456058472392,-31276,-56914,-47643
653329456065907087,-31276,-56882,-47833
653329456073341782,-31225,-56938,-47766
653329456080776477,-31466,-56930,-47825
653329456088211172,-31571,-57113,-47901
653329456095645867,-31538,-57056,-47982
653329456103080562,-31517,-57032,-47931
653329456110515257,-31578,-57105,-48142
653329456117949952,-31619,-57104,-48093
653329456125508443,-31932,-57335,-48441
653329456132935856,-31698,-57329,-48351
653329456140363269,-31660,-57205,-48324
653329456147790682,-31689,-57346,-48211
653329456155218095,-31752,-57269,-48343
653329456162645508,-31736,-57386,-48243
653329456170072921,-31746,-57492,-48456
653329456177500334,-31787,-57388,-48482
653329456184927747,-31825,-57381,-48591
653329456192355160,-31610,-56272,-47426
653329456199782573,-31875,-56988,-48231
653329456207209986,-31950,-57271,-48446
653329456214637399,-31769,-57471,-48508
653329456222064812,-30810,-57094,-47619
653329456229492225,-31340,-57352,-48199
653329456236919638,-31757,-57525,-48616
653329456244347051,-31863,-57531,-48703
653329456251774464,-32001,-57557,-48929
653329456258954312,-32100,-57388,-48827
653329456266396288,-32127,-57527,-49006
653329456273838264,-32141,-57619,-49084
653329456281280240,-32226,-57662,-49103
653329456288722216,-32387,-57803,-49200
653329456296164192,-32310,-57862,-49233
653329456303606168,-32211,-57838,-49156
653329456311048144,-32176,-57856,-49293
653329456318490120,-32364,-57914,-49401
653329456325932096,-32203,-57831,-49331
653329456333374072,-32272,-57875,-49292
653329456340816048,-32211,-57675,-49246
653329456348258024,-32294,-57922,-49448
6.53329E+17,-32475,-58002,-49504
653329456363141976,-32378,-57887,-49544
653329456370583952,-32312,-57970,-49464
653329456378025928,-32283,-58043,-49541
653329456385467904,-32396,-57967,-49547
653329456393033673,-32500,-58010,-49266
653329456400468368,-32415,-58025,-49464
653329456407903063,-32498,-58056,-49564
653329456415337758,-32470,-58054,-49559
653329456422772453,-32516,-58016,-49638
653329456430207148,-32387,-58006,-49665
653329456437641843,-32367,-57967,-49652
653329456445076538,-32531,-57933,-49616
653329456452511233,-32396,-57931,-49520
653329456459945928,-32470,-57984,-49731
653329456467380623,-32539,-58071,-49618
653329456474815318,-32422,-58104,-49659
653329456482250013,-32332,-57995,-49546
653329456489684708,-32371,-58154,-49600
653329456497119403,-32399,-57989,-49768
653329456504554098,-32373,-57921,-49673
653329456511988793,-32254,-56851,-48495
653329456519423488,-32499,-57533,-49235
653329456526858185,-32711,-57581,-49561
653329456534292880,-32466,-57897,-49493
653329456541727575,-31335,-57665,-48446
653329456549162270,-31881,-57928,-49082
653329456556596965,-32277,-57969,-49406
653329456564031660,-32350,-57967,-49625
653329456571466355,-32364,-57965,-49700
653329456578901050,-32455,-58033,-49771
653329456586335745,-32434,-58076,-49789
653329456593770440,-32582,-58008,-49823
653329456601205135,-32433,-58090,-49772
653329456608639830,-32510,-58111,-49787
653329456616074525,-32418,-58016,-49840
653329456623509220,-32480,-57981,-49816
653329456630943915,-32441,-57957,-49735
653329456638378610,-32455,-58003,-49735
653329456645813305,-32491,-58029,-49794
6.53329E+17,-32465,-57916,-49834
653329456660682697,-32493,-57874,-49444
653329456668117392,-32548,-58147,-49819
653329456675552087,-32423,-58045,-49752
653329456682986782,-32360,-58049,-49774
653329456690421477,-32334,-57960,-49603
653329456697856172,-32269,-58076,-49740
653329456705290867,-32344,-57961,-49714
653329456712725562,-32384,-57979,-49701
653329456720160257,-32407,-57941,-49755
653329456727594952,-32428,-58043,-49833
653329456735029647,-32355,-57951,-49781
653329456742464342,-32298,-57962,-49796
653329456749899037,-32310,-58097,-49751
653329456757333732,-32534,-58098,-49864
653329456764768427,-32482,-58040,-49912
653329456772203122,-32487,-58163,-49874
653329456779637817,-32516,-58192,-49903
653329456787072512,-32485,-58289,-49853
653329456794383432,-32578,-58400,-50174
653329456801825408,-32660,-58315,-50110
653329456809267384,-32667,-58491,-50198
653329456816709360,-32859,-58508,-50245
653329456824151336,-32961,-58504,-50197
653329456831593312,-32397,-57486,-49161
653329456839035288,-32541,-58124,-49753
653329456846477264,-32832,-58453,-50018
653329456853919240,-32708,-58625,-50134
653329456861361216,-31632,-58684,-49119
653329456868803192,-32400,-58856,-49882
653329456876245168,-32792,-58823,-50137
653329456883687144,-32825,-58926,-50298
653329456891129120,-32941,-58907,-50355
653329456898571096,-32945,-59085,-50406
653329456906013072,-33009,-59128,-50580
653329456913455048,-33024,-59305,-50608
653329456920897024,-33168,-59314,-50810
653329456928586587,-33250,-59124,-50657
6.53329E+17,-33338,-59338,-50866
653329456943441413,-33291,-59404,-51081
653329456950868826,-33501,-59491,-51245
653329456958296239,-33591,-59663,-51315
653329456965723652,-33712,-59638,-51390
653329456973151065,-33671,-59862,-51384
653329456980578478,-33560,-59694,-51202
653329456988005891,-33726,-59853,-51493
653329456995433304,-33668,-59924,-51534
653329457002860717,-33637,-60008,-51469
653329457010288130,-33459,-59970,-51452
653329457017715543,-33639,-59944,-51504
653329457025142956,-33528,-59847,-51393
653329457032570369,-33596,-59875,-51391
653329457039997782,-33643,-59792,-51398
653329457047425195,-33841,-59943,-51473
653329457054852608,-33583,-59814,-51332
653329457062156233,-33625,-59562,-50965
653329457069590928,-33656,-59651,-51081
653329457077025623,-33564,-59712,-51181
653329457084460318,-33517,-59885,-51016
653329457091895013,-33488,-59781,-51075
653329457099329708,-33633,-59780,-51025
653329457106764403,-33575,-59822,-51008
653329457114199098,-33441,-59777,-50878
653329457121633793,-33378,-59765,-50885
653329457129068488,-33375,-59940,-50846
653329457136503183,-33295,-59904,-50819
653329457143937878,-33216,-59824,-50649
653329457151372573,-31958,-58596,-49425
653329457158807268,-32481,-59205,-50068
653329457166241963,-32789,-59604,-50277
653329457173676658,-32714,-59580,-50315
653329457181111353,-31640,-59654,-49212
653329457188546048,-32327,-59587,-49925
653329457195856968,-32547,-59735,-50230
653329457203298944,-32583,-59593,-50289
653329457210740920,-32385,-59562,-50270
653329457218182896,-32359,-59452,-50271
653329457225624872,-32242,-59358,-50292
653329457233066848,-32251,-59339,-50156
653329457240508824,-32264,-59502,-50099
653329457247950800,-32392,-59468,-50171
653329457255392776,-32399,-59427,-50162
653329457262834752,-32418,-59367,-50187
653329457270276728,-32473,-59288,-50296
653329457277718704,-32673,-59443,-50536
653329457285160680,-32799,-59480,-50754
653329457292602656,-32807,-59741,-50803
653329457300044632,-32886,-59679,-50884
653329457307486608,-33007,-59651,-51090
653329457314928584,-33229,-59910,-51068
653329457322370560,-33281,-59846,-51123
653329457329936329,-33508,-59605,-50945
653329457337371024,-33480,-59740,-51130
653329457344805719,-33448,-59786,-51214
653329457352240414,-33578,-59889,-51230
653329457359675109,-33674,-59809,-51335
653329457367109804,-33784,-59905,-51371
653329457374544499,-33782,-59937,-51391
653329457381979194,-33869,-59922,-51370
653329457389413889,-33811,-59978,-51324
653329457396848584,-33902,-60004,-51365
653329457404283279,-33884,-59998,-51565
653329457411717974,-33810,-60129,-51437
653329457419152669,-33840,-60180,-51400
653329457426587364,-33858,-60104,-51467
653329457434022059,-33832,-60163,-51348
653329457441456754,-33727,-59353,-51376
653329457448891449,-33806,-59811,-51422
653329457456326144,-33781,-60014,-51320
653329457463760841,-33898,-60131,-51292
653329457471195536,-32509,-58849,-50044
653329457478630231,-33183,-59456,-50602
653329457486064926,-33280,-59744,-50855
653329457493499621,-33408,-59825,-50973
653329457500934316,-32225,-59784,-50283
653329457508369011,-32825,-59721,-50636
653329457515803706,-33190,-59792,-50731
653329457523238401,-33199,-59762,-50824
653329457530673096,-33336,-59676,-50732
653329457538107791,-33259,-59734,-50821
653329457545542486,-33281,-59674,-50864
653329457552977181,-33107,-59589,-50695
653329457560411876,-33126,-59704,-50671
653329457567846571,-33209,-59646,-50872
653329457575281266,-33130,-59587,-50652
653329457582715961,-33189,-59638,-50674
653329457590150656,-33140,-59451,-50685
653329457597585353,-33339,-59683,-50803
653329457605020048,-33073,-59437,-50608
653329457612454743,-33084,-59401,-50510
653329457619889438,-32851,-59335,-50392
653329457627324133,-32860,-59352,-50369
653329457634758828,-32797,-59274,-50333
653329457642193523,-32897,-59252,-50272
653329457649628218,-32707,-59366,-50270
653329457657062913,-32794,-59309,-50105
653329457664497608,-32707,-59421,-50091
653329457671932303,-32619,-59247,-50136
653329457679366998,-32816,-59187,-50113
653329457686801693,-32673,-59192,-50167
653329457694236388,-32723,-59005,-50187
653329457701671083,-32597,-59118,-50019
653329457709105778,-32728,-59071,-49935
653329457716540473,-32733,-59032,-50025
653329457723975168,-32603,-59181,-50048
653329457731286088,-32246,-59326,-49758
653329457738728064,-32421,-59316,-49914
653329457746170040,-32444,-59142,-49962
653329457753612016,-32461,-59086,-49925
653329457761053992,-32653,-58126,-50049
653329457768495968,-32700,-58804,-49985
653329457775937944,-32592,-59043,-50015
653329457783379920,-32663,-59209,-50040
653329457790821896,-31541,-58274,-48830
653329457798263872,-32192,-58930,-49621
653329457805705848,-32469,-59103,-50052
653329457813147824,-32624,-59395,-50057
653329457820589800,-31700,-59442,-49890
653329457828031776,-32413,-59539,-50138
653329457835473752,-32687,-59500,-50180
653329457842915728,-32759,-59646,-50172
653329457850357704,-32890,-59559,-50189
653329457857799680,-33014,-59562,-50175
653329457865489243,-33250,-59794,-50311
653329457872916656,-32992,-59907,-50317
653329457880344069,-33002,-59698,-50392
653329457887771482,-33097,-59852,-50407
653329457895198895,-32926,-59812,-50368
653329457902626308,-33018,-59776,-50395
653329457910053721,-33073,-59705,-50358
653329457917481134,-33099,-59786,-50453
653329457924908547,-33191,-59799,-50423
653329457932335960,-33119,-59854,-50559
653329457939763373,-33065,-59732,-50527
653329457947190786,-33207,-59805,-50518
653329457954618199,-33156,-59895,-50599
653329457962045612,-33244,-59911,-50498
653329457969473025,-33148,-59989,-50683
653329457976900438,-33235,-60133,-50753
653329457984327851,-33231,-60043,-50588
653329457991755264,-33320,-60025,-50804
653329457999058889,-33198,-60262,-50977
653329458006493584,-33292,-60195,-50963
653329458013928279,-33341,-60089,-50793
653329458021362974,-33266,-60098,-50776
653329458028797669,-33357,-60084,-50793
653329458036232364,-33423,-60037,-50778
653329458043667059,-33280,-60082,-50760
653329458051101754,-33405,-60129,-50880
653329458058536449,-33515,-60090,-50861
653329458065971144,-33378,-60176,-50828
653329458073405839,-33389,-60159,-50726
653329458080840534,-33426,-58993,-50800
653329458088275229,-33377,-59663,-50938
653329458095709924,-33372,-59880,-50710
653329458103144619,-33343,-59941,-50611
653329458110579314,-32202,-58808,-49475
653329458118014009,-32893,-59535,-50256
653329458125448704,-33142,-59834,-50405
653329458132759624,-33467,-59814,-50263
653329458140201600,-32183,-59877,-50338
653329458147643576,-32826,-59955,-50381
653329458155085552,-33070,-60059,-50490
653329458162527528,-33305,-60006,-50564
653329458169969504,-33395,-60068,-50574
653329458177411480,-33367,-60075,-50696
653329458184853456,-33370,-60140,-50546
653329458192295432,-33313,-60105,-50508
653329458199737408,-33337,-60094,-50596
653329458207179384,-33318,-60111,-50598
653329458214621360,-33302,-59998,-50630
653329458222063336,-33402,-60003,-50608
653329458229505312,-33274,-59899,-50494
653329458236947288,-33294,-59864,-50565
653329458244389264,-33233,-59883,-50501
653329458251831240,-33299,-59968,-50668
653329458259273216,-33042,-59871,-50444
653329458266838985,-33187,-59870,-50345
653329458274273680,-33140,-59855,-50432
653329458281708375,-33126,-59885,-50572
653329458289143070,-33003,-59869,-50491
653329458296577765,-33125,-59945,-50510
653329458304012460,-33151,-59895,-50517
653329458311447155,-33141,-59948,-50534
653329458318881850,-33203,-59963,-50400
653329458326316545,-33180,-59913,-50513
653329458333751240,-33111,-59933,-50505
653329458341185935,-33064,-60189,-50453
653329458348620630,-33259,-60032,-50474
653329458356055325,-33126,-59997,-50534
653329458363490020,-33062,-59879,-50512
653329458370924715,-33134,-59814,-50416
653329458378359410,-33203,-59869,-50435
653329458385794105,-33071,-59825,-50475
653329458393228800,-32989,-59850,-50491
653329458400663497,-33088,-58539,-50163
653329458408098192,-33133,-59271,-50275
653329458415532887,-33083,-59495,-50400
653329458422967582,-33008,-59549,-50386
653329458430402277,-31818,-58454,-49263
653329458437836972,-32514,-59193,-49936
653329458445271667,-32848,-59527,-50245
653329458452706362,-32987,-59687,-50347
653329458460141057,-32038,-59805,-50378
653329458467575752,-32503,-59693,-50423
653329458475010447,-32818,-59674,-50307
653329458482445142,-32944,-59642,-50484
653329458489879837,-32995,-59767,-50458
653329458497314532,-33083,-59671,-50468
653329458504749227,-32937,-59637,-50405
653329458512183922,-33095,-59663,-50365
653329458519618617,-33099,-59709,-50364
653329458527053312,-32990,-59616,-50381
653329458534488009,-33061,-59334,-50201
653329458541922704,-33057,-59476,-50293
653329458549357399,-33020,-59572,-50208
653329458556792094,-33063,-59545,-50290
653329458564226789,-32967,-59512,-50186
653329458571661484,-33020,-59469,-50296
653329458579096179,-32848,-59421,-50154
653329458586530874,-32863,-59452,-50200
653329458593965569,-32867,-59355,-50142
653329458601400264,-32936,-59424,-50209
653329458608834959,-32755,-59473,-50225
653329458616269654,-32899,-59441,-50265
653329458623704349,-32828,-59459,-50237
653329458631139044,-32818,-59342,-50224
653329458638573739,-32748,-59364,-50254
653329458646008434,-32799,-59319,-50362
653329458653443129,-32895,-59441,-50168
653329458660877824,-32840,-59407,-50160
653329458668312521,-32935,-59333,-50028
653329458675747216,-32942,-59333,-50149
653329458683181911,-32943,-59520,-50195
653329458690616606,-32871,-59462,-50197
653329458698051301,-32999,-59463,-50325
653329458705485996,-32991,-59538,-50200
653329458712920691,-32943,-59623,-50275
653329458720355386,-32985,-58447,-50376
653329458727790081,-32996,-59218,-50535
653329458735224776,-33100,-59537,-50528
653329458742659471,-33132,-59688,-50510
653329458750094166,-32052,-58612,-49482
653329458757528861,-32857,-59470,-50138
653329458764963556,-33057,-59718,-50403
653329458772398251,-33204,-59877,-50599
653329458779832946,-32172,-59988,-50777
653329458787267641,-32860,-60098,-50768
653329458794702336,-33333,-60202,-50934
653329458802137033,-33140,-60145,-50973
653329458809571728,-33312,-60274,-51100
653329458817006423,-33430,-60214,-50983
653329458824441118,-33535,-60295,-51037
653329458831875813,-33335,-60345,-51097
653329458839310508,-33678,-60394,-51151
653329458846745203,-33729,-60599,-51208
653329458854179898,-33736,-60439,-51283
653329458861614593,-33844,-60550,-51203
653329458869049288,-33884,-60582,-51250
653329458876483983,-33914,-60601,-51347
653329458883918678,-33942,-60579,-51449
653329458891353373,-33998,-60681,-51448
653329458898788068,-34076,-60576,-51337
653329458906222763,-34047,-60729,-51452
653329458913657458,-34129,-60737,-51392
653329458921092153,-34252,-60821,-51540
653329458928526848,-34123,-60901,-51660
653329458935961545,-34224,-60687,-51465
653329458943396240,-34249,-60715,-51503
653329458950830935,-34307,-60824,-51685
653329458958265630,-34440,-61083,-51665
653329458965700325,-34286,-61039,-51702
653329458973135020,-34360,-60975,-51795
653329458980569715,-34332,-61082,-51697
653329458988004410,-34454,-61133,-51732
653329458995439105,-34309,-61118,-51668
653329459002873800,-34369,-60981,-51770
653329459010308495,-34433,-61152,-51867
653329459017743190,-34551,-61027,-51985
653329459025177885,-34358,-61023,-51878
653329459032612580,-34431,-61270,-51918
653329459040047275,-34475,-60174,-51896
653329459047481970,-34545,-60717,-51865
653329459054916665,-34514,-60922,-51964
653329459062351360,-34525,-61101,-52067
653329459069662280,-33421,-60229,-51228
653329459077104256,-34112,-60843,-51801
653329459084546232,-34347,-60981,-51821
653329459091988208,-34478,-61029,-51806
653329459099430184,-33441,-61244,-51826
653329459106872160,-33987,-61282,-51961
653329459114314136,-34217,-61249,-52035
653329459121756112,-34559,-61269,-52034
653329459129198088,-34739,-61328,-52023
653329459136640064,-34538,-61325,-52119
653329459144082040,-34585,-61280,-51959
653329459151524016,-34506,-61199,-51985
653329459158965992,-34523,-61232,-52053
653329459166407968,-34560,-61156,-51953
653329459173849944,-34449,-61282,-51964
653329459181291920,-34430,-61211,-52098
653329459188733896,-34463,-61080,-52001
653329459196175872,-34386,-61223,-52006
653329459203865435,-34151,-61272,-52086
653329459211292848,-34282,-61210,-52094
653329459218720261,-34305,-61091,-51790
653329459226147674,-34319,-61075,-51917
653329459233575087,-34336,-61028,-51843
653329459241002500,-34369,-61150,-51877
653329459248429913,-34265,-61257,-51843
653329459255857326,-34292,-61124,-51802
653329459263284739,-34232,-61075,-51823
653329459270712152,-34337,-61152,-51822
653329459278139565,-34409,-61165,-51858
653329459285566978,-34393,-61025,-51807
653329459292994391,-34375,-61132,-51730
653329459300421804,-34342,-61138,-51811
653329459307849217,-34209,-61016,-51747
653329459315276630,-34142,-61010,-51708
653329459322704043,-34151,-60733,-51720
653329459330131456,-34299,-60817,-51729
653329459337311304,-34177,-60714,-51804
653329459344753280,-34257,-60890,-51851
653329459352195256,-34192,-60783,-51893
653329459359637232,-34275,-59733,-51822
653329459367079208,-34179,-60436,-51856
653329459374521184,-34300,-60658,-51994
653329459381963160,-34332,-60793,-51908
653329459389405136,-33060,-59574,-50744
653329459396847112,-33714,-60157,-51321
653329459404289088,-34035,-60442,-51647
653329459411731064,-34228,-60632,-51831
653329459419173040,-33287,-60824,-51614
653329459426615016,-33977,-60645,-51641
653329459434056992,-34171,-60629,-51822
653329459441498968,-34237,-60697,-51766
653329459448940944,-34306,-60545,-51765
653329459456382920,-34273,-60490,-51590
653329459463824896,-34303,-60415,-51751
653329459471266888,-34443,-60604,-51838
653329459478708864,-34476,-60398,-51604
653329459486150840,-34349,-60375,-51420
653329459493592816,-34189,-60095,-51244
653329459501034792,-34113,-60095,-51133
653329459508476768,-34016,-60009,-51007
653329459515918744,-33880,-59808,-50912
653329459523360720,-33758,-59721,-50729
653329459530802696,-33693,-59619,-50665
653329459538244672,-33558,-59454,-50265
653329459545686648,-33374,-59360,-50122
653329459553128624,-33247,-59192,-49845
653329459560570600,-33225,-58994,-49769
653329459568012576,-33004,-58911,-49676
653329459575454552,-33140,-58658,-49583
653329459582896528,-33265,-58561,-49771
653329459590338504,-33489,-58358,-50103
653329459597780480,-33759,-58226,-50519
653329459605470043,-33544,-57691,-50945
653329459612897456,-33692,-57421,-50906
653329459620324869,-33515,-57201,-50719
653329459627752282,-33169,-56764,-50480
653329459635179695,-32808,-56219,-50009
653329459642607108,-32356,-55731,-49728
653329459650034521,-31927,-55278,-49360
653329459657461934,-31485,-54688,-49095
653329459664889347,-30897,-54113,-48617
653329459672316760,-30450,-53395,-48191
653329459679744173,-30011,-51433,-47799
653329459687171586,-29353,-51453,-47310
653329459694598999,-28669,-51110,-46725
653329459702026412,-28065,-50673,-46187
653329459709453825,-26187,-49001,-44530
653329459716881238,-26163,-49199,-44643
653329459724308651,-26021,-49074,-44549
653329459731736064,-25441,-48945,-43924
653329459739039689,-23629,-49007,-43736
653329459746474384,-23921,-48697,-43106
653329459753909079,-23774,-48353,-42483
653329459761343774,-23545,-48215,-42123
653329459768778469,-23280,-47979,-41769
653329459776213164,-23081,-47590,-41417
653329459783647859,-22946,-47244,-41050
653329459791082554,-23061,-47048,-41179
653329459798517249,-23382,-46717,-41261
653329459805951944,-23760,-46428,-41266
653329459813386639,-24065,-46140,-41458
653329459820821334,-24543,-45738,-41715
653329459828256029,-24796,-45409,-41752
653329459835690724,-25086,-45017,-41948
653329459843125419,-25353,-44783,-42157
653329459850560114,-25713,-44585,-42498
653329459857994809,-25686,-44370,-42576
653329459865429504,-25840,-44138,-42734
653329459872740424,-26020,-44168,-42873
653329459880182400,-26122,-43979,-43076
653329459887624376,-26256,-43714,-43210
653329459895066352,-26264,-43440,-43243
653329459902508328,-26401,-43005,-43129
653329459909950304,-26664,-42704,-43159
653329459917392280,-26748,-42410,-42971
653329459924834256,-26784,-41966,-42783
653329459932276232,-26637,-41551,-42759
653329459939718208,-26578,-41103,-42479
653329459947160184,-26453,-40583,-42295
653329459954602160,-26072,-40054,-41675
653329459962044136,-25950,-39524,-41363
653329459969486112,-25910,-39136,-41073
653329459976928088,-25724,-38617,-40577
653329459984370064,-25573,-38162,-40044
653329459991812040,-25684,-37751,-39816
653329459999254016,-25609,-36667,-39513
653329460006943579,-25204,-36598,-38801
653329460014370992,-25279,-36289,-38596
653329460021798405,-25324,-36149,-38322
653329460029225818,-24501,-35145,-37575
653329460036653231,-24770,-35138,-37572
653329460044080644,-24842,-35088,-37415
653329460051508057,-24723,-34798,-37255
653329460058935470,-23992,-34637,-36888
653329460066362883,-23895,-34306,-36582
653329460073790296,-23679,-33898,-36180
653329460081217709,-23421,-33635,-36018
653329460088645122,-23262,-33303,-35656
653329460096072535,-22689,-33013,-35364
653329460103499948,-22432,-32691,-34850
653329460110927361,-22133,-32483,-34605
653329460118354774,-21921,-32311,-34326
653329460125782187,-21382,-32015,-34066
653329460133209600,-21138,-31978,-33741
653329460140389448,-20758,-31835,-33788
653329460147831424,-20588,-31594,-33422
653329460155273400,-20277,-31490,-33116
653329460162715376,-19979,-31464,-32920
653329460170157352,-19852,-31422,-32840
653329460177599328,-19497,-31326,-32610
653329460185041304,-19228,-31210,-32276
653329460192483280,-19150,-31376,-32057
653329460199925256,-19020,-31373,-32048
653329460207367232,-18810,-31263,-31787
653329460214809208,-18535,-31223,-31637
653329460222251184,-18576,-31320,-31473
653329460229693160,-18369,-31342,-31481
653329460237135136,-18195,-31316,-31388
653329460244577112,-18015,-31407,-31220
653329460252019088,-17882,-31382,-31099
653329460259461064,-17860,-31760,-31212
653329460266903040,-17700,-31809,-31024
653329460274468809,-17686,-31650,-30603
653329460281903504,-17515,-31896,-30579
653329460289338199,-17404,-32237,-30533
653329460296772894,-17136,-32402,-30405
653329460304207589,-16956,-32497,-30329
653329460311642284,-16850,-32686,-30255
653329460319076979,-16851,-31563,-30163
653329460326511674,-16683,-32431,-30063
653329460333946369,-16513,-32781,-29961
653329460341381064,-16409,-33079,-29749
653329460348815759,-14835,-31987,-28070
653329460356250454,-15334,-33067,-28498
653329460363685149,-15354,-33664,-28511
653329460371119844,-15284,-34099,-28636
653329460378554539,-13482,-34598,-28409
653329460385989234,-13970,-34797,-28267
653329460393423929,-14137,-34958,-28164
653329460400858624,-14128,-35294,-27874
653329460408293321,-14322,-35216,-28114
653329460415728016,-14494,-35760,-28135
653329460423162711,-14859,-35898,-28181
653329460430597406,-15275,-36233,-28336
653329460438032101,-15668,-36451,-28320
653329460445466796,-15986,-36580,-28329
653329460452901491,-16218,-36913,-28440
653329460460336186,-16402,-37043,-28563
653329460467770881,-16559,-36977,-28184
653329460475205576,-16592,-37172,-28198
653329460482640271,-16741,-37439,-28329
653329460490074966,-17034,-37742,-28290
653329460497509661,-16912,-37559,-28045
653329460504944356,-17065,-37748,-28175
653329460512379051,-17174,-37993,-28186
653329460519813746,-17258,-38093,-28275
653329460527248441,-17006,-38202,-28313
653329460534683136,-17184,-38325,-28132
653329460542241627,-17385,-38414,-28358
653329460549669040,-17297,-38408,-28304
653329460557096453,-17148,-38340,-28078
653329460564523866,-17016,-38257,-27973
653329460571951279,-16606,-38267,-27934
653329460579378692,-16460,-38296,-27931
653329460586806105,-16239,-38025,-27729
653329460594233518,-15899,-37942,-27558
653329460601660931,-15591,-37882,-27430
653329460609088344,-15373,-37766,-27355
653329460616515757,-14987,-37536,-27163
653329460623943170,-14925,-37485,-27093
653329460631370583,-14820,-37333,-27150
