timestamp,ch1,ch2,ch3
653323611283611428,579875,482905,529096
653323611291051584,579966,483046,529390
653323611298491740,579991,483146,529307
653323611305931896,580097,483096,529420
653323611313372052,580177,483084,529437
653323611320812208,580145,483149,529442
653323611328252364,580120,483214,529374
653323611335692520,580147,483163,529463
653323611343132676,580058,482967,529263
653323611350572832,579943,482538,529289
653323611358012988,579828,482681,529275
653323611365453144,579700,482678,529204
653323611372893300,579609,482730,529190
653323611380333456,579553,482601,529008
653323611387773612,579426,482670,528739
653323611395213768,579425,482481,528703
653323611402653924,579316,482434,528590
653323611410094080,579194,482358,528502
653323611417627081,578931,482153,528230
653323611425061776,578839,482109,528171
653323611432496471,578769,482100,528148
653323611439931166,578687,481836,527902
653323611447365861,578491,481781,527851
653323611454800556,578482,481790,527881
653323611462235251,578352,481776,527832
653323611469669946,578147,481568,527513
653323611477104641,577999,481503,527429
653323611484539336,577831,481481,527404
653323611491974031,577717,481364,527184
653323611499408726,577561,481278,527148
653323611506843421,577400,481124,526897
653323611514278116,577475,481130,527003
653323611521712811,577405,480989,526844
653323611529147506,577202,480780,526794
653323611536582201,577207,480780,526639
653323611544016896,577315,480721,526618
653323611551420653,577343,480538,526264
653323611558857168,577233,480560,526456
653323611566293683,577051,480592,526507
653323611573730198,577156,480596,526548
653323611581166713,577044,480678,526506
653323611588603228,576958,480680,526567
653323611596039743,576936,480611,526417
653323611603476258,576941,480545,526312
653323611610912773,576965,480518,526328
653323611618349288,576919,480358,526309
653323611625785803,576871,480434,526323
653323611633222318,576846,480452,526259
653323611640658833,576834,480442,526266
653323611648095348,576837,480445,526270
653323611655531863,576755,480286,526130
653323611662968378,576726,480347,526141
653323611670404893,576811,480377,526095
653323611677841408,576671,480263,526044
653323611685216036,576338,479909,525847
653323611692656192,576428,480000,526014
653323611700096348,576518,480078,526090
653323611707536504,576462,480161,526077
653323611714976660,576432,480029,525987
653323611722416816,576333,480129,525970
653323611729856972,576454,480159,526074
653323611737297128,576436,480054,526143
653323611744737284,576618,480121,526116
653323611752177440,576576,480133,526064
653323611759617596,576554,480099,526058
653323611767057752,576480,480059,526076
653323611774497908,576417,480096,526046
653323611781938064,576459,480091,526114
653323611789378220,576536,480096,526208
653323611796818376,576596,480155,526238
653323611804258532,576532,480089,526122
653323611811698688,576641,480048,526220
653323611819200749,576880,480270,526218
653323611826637264,576844,480184,526334
653323611834073779,576785,480229,526348
653323611841510294,576861,480140,526270
653323611848946809,576864,480173,526391
653323611856383324,576804,480109,526404
653323611863819839,576908,480260,526477
653323611871256354,577024,480164,526588
653323611878692869,576940,480256,526608
653323611886129384,576987,480266,526623
653323611893565899,576904,480172,526623
653323611901002414,577125,480321,526661
653323611908438929,576986,480218,526702
653323611915875444,577116,480254,526727
653323611923311959,577137,480227,526821
653323611930748474,577197,480241,526806
653323611938184989,577185,480258,526866
653323611945621504,577195,480432,526938
653323611953027072,577239,480488,526945
653323611960465408,577436,480283,526858
653323611967903744,577399,480370,527066
653323611975342080,577591,480358,527141
653323611982780416,577606,480550,527242
653323611990218752,577704,480578,527271
653323611997657088,577700,480601,527306
653323612005095424,577741,480710,527338
653323612012533760,577702,480605,527253
653323612019972096,577838,480618,527339
653323612027410432,577924,480693,527330
653323612034848768,578023,480668,527456
653323612042287104,578159,480841,527597
653323612049725440,578204,480759,527629
653323612057163776,578160,480755,527632
653323612064602112,578248,480833,527718
653323612072040448,578318,480840,527859
653323612079478784,578325,480906,527954
653323612087009974,578557,480721,528001
653323612094442848,578524,480810,528064
653323612101875722,578309,480823,528026
653323612109308596,578307,480768,527885
653323612116741470,578381,480728,527943
653323612124174344,578331,480765,527988
653323612131607218,578145,480749,527786
653323612139040092,577951,480657,527664
653323612146472966,577875,480550,527527
653323612153905840,577549,480344,527379
653323612161338714,577450,480287,527174
653323612168771588,577357,480158,526989
653323612176204462,577101,479960,526865
653323612183637336,576815,479818,526454
653323612191070210,576661,479709,526534
653323612198503084,576502,479559,526248
653323612205935958,576309,479270,526090
653323612213368832,576007,479136,526009
653323612220677924,576071,478969,526105
653323612228118080,575671,478797,525755
653323612235558236,575324,478648,525486
653323612242998392,575185,478576,525422
653323612250438548,575097,478449,525196
653323612257878704,574775,478252,524910
653323612265318860,574623,478115,524827
653323612272759016,574299,478069,524662
653323612280199172,574089,478036,524573
653323612287639328,573932,477823,524367
653323612295079484,573775,477645,524268
653323612302519640,573563,477524,524152
653323612309959796,573377,477346,523999
653323612317399952,573249,477264,523861
653323612324840108,573114,477147,523686
653323612332280264,572978,477110,523683
653323612339720420,572937,476966,523521
653323612347160576,572779,476824,523381
653323612354600740,572687,476576,523006
653323612362040896,572638,476704,523177
653323612369481052,572491,476769,523177
653323612376921208,572487,476755,523108
653323612384361364,572400,476658,523176
653323612391801520,572151,476614,523138
653323612399241676,572111,476582,523106
653323612406681832,572131,476450,522901
653323612414121988,572065,476519,523016
653323612421562144,572064,476445,523048
653323612429002300,571945,476457,522911
653323612436442456,571953,476381,522819
653323612443882612,571849,476301,522897
653323612451322768,571675,476252,522838
653323612458762924,571608,476182,522767
653323612466203080,571601,476141,522639
653323612473643236,571644,476215,522730
653323612481083392,571480,475947,522702
653323612488616393,571107,476023,522348
653323612496051088,571232,475976,522382
653323612503485783,571250,475955,522550
653323612510920478,571275,475916,522545
653323612518355173,571283,475925,522590
653323612525789868,571361,475916,522611
653323612533224563,571368,475953,522722
653323612540659258,571384,475810,522749
653323612548093953,571436,475897,522677
653323612555528648,571378,475939,522680
653323612562963343,571428,475989,522654
653323612570398038,571532,475977,522827
653323612577832733,571511,475856,522735
653323612585267428,571542,475901,522769
653323612592702123,571577,475956,522934
653323612600136818,571545,476013,522941
653323612607571513,571696,476009,522997
653323612615006208,571589,475929,522941
653323612622409965,571577,475944,523308
653323612629846480,571682,475939,523198
653323612637282995,571644,475975,523103
653323612644719510,571570,476068,523075
653323612652156025,571735,475948,522987
653323612659592540,571842,476019,523241
653323612667029055,571832,476048,523140
653323612674465570,571829,476126,523206
653323612681902085,572020,476285,523330
653323612689338600,572124,476227,523437
653323612696775115,572057,476224,523501
653323612704211630,572123,476288,523525
653323612711648145,572255,476340,523633
653323612719084660,572412,476483,523649
653323612726521175,572387,476399,523667
653323612733957690,572366,476497,523763
653323612741394205,572358,476407,523789
653323612748830720,572560,476453,523896
653323612756205348,572859,476655,523634
653323612763645504,572686,476642,523914
653323612771085660,572658,476754,524004
653323612778525816,572660,476635,524089
653323612785965972,572742,476727,524161
653323612793406128,572798,476647,524236
653323612800846284,572964,476650,524384
653323612808286440,573027,476737,524487
653323612815726596,573086,476816,524320
653323612823166752,573024,476769,524440
653323612830606908,573250,476753,524549
653323612838047064,573205,476874,524681
653323612845487220,573314,476979,524760
653323612852927376,573306,476931,524867
653323612860367532,573531,477116,524854
653323612867807688,573509,477098,524929
653323612875247844,573803,477219,525024
6.53324E+17,573886,477196,525135
653323612890221001,574109,477268,525482
653323612897655696,574092,477324,525420
653323612905090391,574158,477296,525410
653323612912525086,573996,477289,525434
653323612919959781,574168,477256,525356
653323612927394476,574038,477360,525339
653323612934829171,574087,477350,525398
653323612942263866,574027,477163,525281
653323612949698561,573926,477098,525308
653323612957133256,573848,477041,525161
653323612964567951,573598,476892,525074
653323612972002646,573474,476736,524900
653323612979437341,573240,476485,524713
653323612986872036,572997,476464,524561
653323612994306731,573009,476376,524402
653323613001741426,572800,476224,524364
653323613009176121,572538,476183,524288
653323613016610816,572264,476022,524032
653323613024014573,571885,475662,524136
653323613031451088,571786,475611,523744
653323613038887603,571427,475763,523874
653323613046324118,571378,475483,523562
653323613053760633,571343,475349,523263
653323613061197148,571106,475167,523053
653323613068633663,571056,475023,522849
653323613076070178,570753,474809,522792
653323613083506693,570598,474633,522670
653323613090943208,570382,474523,522463
653323613098379723,570341,474508,522286
653323613105816238,569986,474220,522147
653323613113252753,569952,474211,522038
653323613120689268,569828,473985,521993
653323613128125783,569525,473941,521929
653323613135562298,569393,473969,521737
653323613142998813,569386,473947,521632
653323613150435328,569358,473919,521664
653323613157809956,569334,473652,521346
653323613165250112,569241,473679,521385
653323613172690268,569131,473805,521545
653323613180130424,569066,473769,521511
653323613187570580,569056,473707,521495
653323613195010736,568952,473720,521489
653323613202450892,568868,473735,521388
653323613209891048,568812,473711,521396
653323613217331204,568691,473549,521404
653323613224771360,568729,473430,521282
653323613232211516,568619,473413,521220
653323613239651672,568711,473508,521219
653323613247091828,568667,473386,521097
653323613254531984,568635,473382,521135
653323613261972140,568524,473302,521118
653323613269412296,568400,473251,521032
653323613276852452,568420,473273,521077
653323613284292608,568345,473236,521084
653323613291856566,568093,473008,521094
653323613299289440,568275,473167,521107
653323613306722314,568326,473089,521096
653323613314155188,568334,473180,520994
653323613321588062,568224,473300,521062
653323613329020936,568345,473233,521056
653323613336453810,568263,473121,521061
653323613343886684,568291,473155,520998
653323613351319558,568307,473154,521064
653323613358752432,568353,473184,521018
653323613366185306,568292,473232,521064
653323613373618180,568294,473360,521093
653323613381051054,568266,473272,521283
653323613388483928,568408,473258,521234
653323613395916802,568294,473287,521294
653323613403349676,568446,473303,521358
653323613410782550,568588,473422,521319
653323613418215424,568624,473434,521372
653323613425555456,568550,473320,521528
653323613432993792,568691,473379,521561
653323613440432128,568829,473417,521591
653323613447870464,568736,473366,521512
653323613455308800,568826,473511,521642
653323613462747136,569040,473548,521834
653323613470185472,568969,473612,521858
653323613477623808,568909,473650,521919
653323613485062144,569045,473802,522015
653323613492500480,569107,473791,522089
653323613499938816,569183,473695,522064
653323613507377152,569159,473797,522122
653323613514815488,569279,473923,522260
653323613522253824,569414,473972,522275
653323613529692160,569503,474040,522257
653323613537130496,569437,474057,522156
653323613544568832,569588,474011,522293
653323613552007168,569655,473989,522431
653323613559414564,569757,474294,522412
653323613566854720,569953,474278,522680
653323613574294876,569921,474308,522665
653323613581735032,569911,474300,522800
653323613589175188,570031,474346,522763
653323613596615344,570085,474169,522739
653323613604055500,570128,474403,522831
653323613611495656,570265,474468,522963
653323613618935812,570327,474482,522995
653323613626375968,570359,474551,523037
653323613633816124,570442,474622,523168
653323613641256280,570519,474624,523371
653323613648696436,570733,474738,523369
653323613656136592,570827,474706,523388
653323613663576748,570852,474779,523431
653323613671016904,570833,474834,523486
653323613678457060,570942,474832,523655
653323613685897216,570934,474859,523714
653323613693399277,571154,475230,524102
653323613700835792,571199,475132,523957
653323613708272307,571292,475115,524028
653323613715708822,571512,475194,524119
653323613723145337,571430,475236,524151
653323613730581852,571586,475267,524077
653323613738018367,571555,475339,524214
653323613745454882,571713,475210,524282
653323613752891397,571597,475128,524121
653323613760327912,571404,475092,523963
653323613767764427,571317,475077,523831
653323613775200942,571079,474855,523579
653323613782637457,570951,474850,523571
653323613790073972,570802,474581,523393
653323613797510487,570689,474485,523367
653323613804947002,570387,474393,523191
653323613812383517,570169,474282,523001
653323613819820032,569956,474057,522897
653323613827256557,569763,473729,522658
653323613834693072,569512,473604,522508
653323613842129587,569315,473606,522229
653323613849566102,569029,473510,522089
653323613857002617,568724,473230,521742
653323613864439132,568483,473099,521693
653323613871875647,568234,473026,521410
653323613879312162,568081,472970,521306
653323613886748677,567693,472790,521015
653323613894185192,567700,472739,521066
653323613901621707,567529,472708,520991
653323613909058222,567319,472530,520791
653323613916494737,567185,472487,520737
653323613923931252,566867,472228,520591
653323613931367767,566751,472372,520366
653323613938804282,566694,472274,520256
653323613946240797,566487,472090,520056
653323613953677312,566359,471965,520035
653323613961082880,566100,471854,519764
653323613968521216,566059,471842,519745
653323613975959552,566108,471719,519753
653323613983397888,566062,471795,519682
653323613990836224,566003,471614,519577
653323613998274560,565968,471656,519597
653323614005712896,565857,471705,519593
653323614013151232,565820,471688,519585
653323614020589568,565803,471676,519601
653323614028027904,565727,471715,519593
653323614035466240,565681,471514,519507
653323614042904576,565546,471520,519421
653323614050342912,565609,471648,519444
653323614057781248,565421,471561,519329
653323614065219584,565460,471489,519367
653323614072657920,565428,471570,519485
653323614080096256,565388,471591,519358
653323614087534592,565334,471546,519343
653323614095065782,565207,471663,519510
653323614102498656,565176,471565,519329
653323614109931530,565251,471490,519325
653323614117364404,565213,471458,519135
653323614124797278,565161,471509,519197
653323614132230152,565101,471390,519085
653323614139663026,565114,471464,519070
653323614147095900,565099,471439,519110
653323614154528774,565103,471431,519033
653323614161961648,565090,471524,519055
653323614169394522,565122,471542,519160
653323614176827396,565097,471485,519223
653323614184260270,565090,471527,519127
653323614191693144,565015,471562,519196
653323614199126018,565247,471639,519278
653323614206558892,565197,471582,519377
653323614213991766,565277,471621,519411
653323614221424640,565131,471534,519341
653323614228733732,564949,471791,519506
653323614236173888,565120,471768,519422
653323614243614044,565197,471815,519394
653323614251054200,565235,471775,519384
653323614258494356,565224,471750,519557
653323614265934512,565360,471836,519454
653323614273374668,565443,471873,519631
653323614280814824,565543,471819,519652
653323614288254980,565526,471887,519823
653323614295695136,565565,471891,519805
653323614303135292,565570,471878,519975
653323614310575448,565575,472115,519967
653323614318015604,565801,472160,519939
653323614325455760,565807,472103,519947
653323614332895916,565951,472235,520055
653323614340336072,566011,472329,520186
653323614347776228,566068,472301,520116
653323614355216384,566178,472317,520203
653323614362656548,566507,472251,520055
653323614370096704,566392,472353,520210
653323614377536860,566382,472432,520204
653323614384977016,566506,472283,520437
653323614392417172,566657,472540,520667
653323614399857328,566726,472654,520654
653323614407297484,566683,472575,520824
653323614414737640,566795,472740,520908
653323614422177796,566851,472865,520963
653323614429617952,567012,472964,520939
653323614437058108,567082,472921,521022
653323614444498264,567081,472980,520996
653323614451938420,567321,473065,521218
653323614459378576,567342,473075,521213
653323614466818732,567404,473154,521410
653323614474258888,567454,473174,521471
653323614481699044,567636,473315,521601
653323614489139200,567645,473360,521715
653323614496672201,567500,473438,521636
653323614504106896,567703,473441,521798
653323614511541591,567919,473550,521943
653323614518976286,568083,473545,521920
653323614526410981,568178,473635,522100
653323614533845676,568262,473697,522226
653323614541280371,568406,473742,522210
653323614548715066,568503,473803,522344
653323614556149761,568660,473930,522403
653323614563584456,568637,473956,522560
653323614571019151,568720,473821,522533
653323614578453846,568713,473946,522599
653323614585888541,568731,474003,522515
653323614593323236,568585,473893,522433
653323614600757931,568561,473932,522388
653323614608192626,568294,473702,522218
653323614615627321,568190,473627,522116
653323614623062016,568066,473539,521921
653323614630465773,567953,473598,521516
653323614637902288,567667,473337,521503
653323614645338803,567444,473144,521273
653323614652775318,567298,473062,521268
653323614660211833,567007,472910,521130
653323614667648348,566715,472598,520872
653323614675084863,566579,472377,520579
653323614682521378,566209,472246,520509
653323614689957893,566128,472279,520353
653323614697394408,565823,472190,520260
653323614704830923,565770,472108,520094
653323614712267438,565493,471859,519851
653323614719703953,565324,471757,519737
653323614727140468,565029,471584,519521
653323614734576983,564805,471484,519299
653323614742013498,564693,471341,519179
653323614749450013,564497,471284,518996
653323614756886528,564298,471109,518879
653323614764323053,564224,471141,518881
653323614771759568,564055,471036,518518
653323614779196083,563760,470880,518310
653323614786632598,563620,470799,518176
653323614794069113,563645,470755,518137
653323614801505628,563374,470819,518083
653323614808942143,563417,470756,517991
653323614816378658,563305,470686,517922
653323614823815173,563218,470609,517884
653323614831251688,563222,470646,518069
653323614838688203,563092,470564,517765
653323614846124718,563056,470516,517771
653323614853561233,562973,470501,517754
653323614860997748,562977,470455,517597
653323614868434263,562903,470359,517629
653323614875870778,562914,470594,517592
653323614883307293,562838,470496,517456
653323614890743808,562973,470479,517495
653323614898118436,562899,470330,517431
653323614905558592,562757,470425,517584
653323614912998748,562777,470534,517426
653323614920438904,562681,470477,517559
653323614927879060,562713,470425,517512
653323614935319216,562666,470527,517528
653323614942759372,562643,470657,517489
653323614950199528,562635,470631,517636
653323614957639684,562648,470735,517585
653323614965079840,562608,470581,517507
653323614972519996,562828,470726,517688
653323614979960152,562735,470629,517689
653323614987400308,562780,470729,517637
653323614994840464,562862,470644,517654
653323615002280620,562917,470704,517795
653323615009720776,562947,470653,517831
653323615017160932,563046,470791,517884
653323615024601088,563155,470820,517832
653323615032134089,563235,470873,518036
653323615039568784,563203,470929,518042
653323615047003479,563260,470803,517844
653323615054438174,563301,470962,518070
653323615061872869,563347,471096,518116
653323615069307564,563482,471013,518165
653323615076742259,563484,471133,518249
653323615084176954,563496,471049,518307
653323615091611649,563616,471207,518393
653323615099046344,563784,471308,518543
653323615106481039,563874,471300,518583
653323615113915734,563933,471325,518728
653323615121350429,563950,471281,518700
653323615128785124,564264,471576,518878
653323615136219819,564316,471611,518908
653323615143654514,564419,471450,518953
653323615151089209,564532,471626,519070
653323615158523904,564579,471736,519130
653323615165865764,564926,471926,519472
653323615173305920,564886,471923,519427
653323615180746076,564970,471848,519335
653323615188186232,564962,471921,519473
653323615195626388,565157,471915,519595
653323615203066544,565181,472051,519685
653323615210506700,565387,472111,519717
653323615217946856,565353,472001,519624
653323615225387012,565358,471978,519729
653323615232827168,565390,472131,519757
653323615240267324,565509,472153,519788
653323615247707480,565441,472179,519816
653323615255147636,565543,472202,519779
653323615262587792,565624,472251,520027
653323615270027948,565930,472452,520210
653323615277468104,565939,472494,520212
653323615284908260,565924,472574,520207
653323615292348416,565846,472492,520310
653323615299850477,565805,472629,520415
653323615307286992,566039,472726,520475
653323615314723507,566083,472794,520559
653323615322160022,566172,472892,520718
653323615329596537,566339,472932,520771
653323615337033052,566472,473050,520802
653323615344469567,566659,473126,520800
653323615351906082,566780,473170,520930
653323615359342597,566861,473264,521108
653323615366779112,566874,473336,521178
653323615374215627,567030,473393,521276
653323615381652142,567184,473407,521374
653323615389088657,567302,473497,521472
653323615396525172,567469,473736,521628
653323615403961687,567555,473719,521748
653323615411398202,567711,473830,521801
653323615418834717,567809,473855,521925
653323615426271232,567881,473968,521958
653323615433707757,568069,474132,521754
653323615441144272,568102,473975,521900
653323615448580787,568061,473984,522016
653323615456017302,567986,473938,522059
653323615463453817,567871,473855,521981
653323615470890332,567673,473723,521924
653323615478326847,567597,473694,521759
653323615485763362,567495,473535,521596
653323615493199877,567338,473315,521607
653323615500636392,567265,473145,521383
653323615508072907,567079,473131,521212
653323615515509422,566821,473110,521078
653323615522945937,566645,472976,520887
653323615530382452,566515,472913,520764
653323615537818967,566117,472795,520570
653323615545255482,566084,472740,520499
653323615552691997,565849,472522,520174
653323615560128512,565619,472422,520050
653323615567534080,565321,472398,520195
653323615574972416,565225,472240,519921
653323615582410752,565115,472116,519680
653323615589849088,565000,472009,519467
653323615597287424,564785,471972,519121
653323615604725760,564520,471728,519034
653323615612164096,564390,471618,518860
653323615619602432,564248,471598,518748
653323615627040768,564052,471301,518540
653323615634479104,564035,471388,518526
653323615641917440,563854,471399,518376
653323615649355776,563587,471290,518235
653323615656794112,563546,471344,518276
653323615664232448,563568,471358,518226
653323615671670784,563566,471251,518107
653323615679109120,563463,471200,518020
653323615686547456,563394,471194,518066
653323615693985792,563447,471293,518129
653323615701455085,563173,471115,517878
653323615708891600,563328,471112,518006
653323615716328115,563380,471190,517986
653323615723764630,563399,471123,517932
653323615731201145,563365,471317,517977
653323615738637660,563389,471386,518004
653323615746074175,563332,471260,517989
653323615753510690,563315,471184,518070
653323615760947205,563452,471160,517951
653323615768383720,563378,471280,517958
653323615775820235,563426,471241,518046
653323615783256750,563465,471356,518110
653323615790693265,563507,471297,518011
653323615798129780,563513,471301,518046
653323615805566295,563476,471295,517937
653323615813002810,563457,471244,517980
653323615820439325,563414,471334,518130
653323615827875840,563417,471364,518048
653323615835312365,563633,471571,518279
653323615842748880,563629,471575,518184
653323615850185395,563511,471497,518250
653323615857621910,563617,471473,518136
653323615865058425,563574,471535,518257
653323615872494940,563771,471557,518266
653323615879931455,563848,471649,518377
653323615887367970,563905,471695,518478
653323615894804485,563819,471697,518413
6.53324E+17,563996,471668,518444
653323615909677515,564110,471918,518476
653323615917114030,564020,471821,518577
653323615924550545,564090,471824,518543
653323615931987060,564257,471970,518695
653323615939423575,564278,472018,518788
653323615946860090,564447,472088,518928
653323615954296605,564454,472155,518921
653323615961733120,564514,472242,519041
653323615969138688,564966,472337,519259
653323615976577024,564874,472316,519199
653323615984015360,565071,472354,519393
653323615991453696,564957,472469,519508
653323615998892032,565086,472606,519380
653323616006330368,565046,472553,519473
653323616013768704,565324,472587,519554
653323616021207040,565337,472765,519666
653323616028645376,565530,472837,519682
653323616036083712,565607,472794,519744
653323616043522048,565735,472899,519849
653323616050960384,565717,472982,519975
653323616058398720,565848,472890,519980
653323616065837056,565943,473106,520126
653323616073275392,566069,473171,520311
653323616080713728,565994,473169,520385
653323616088152064,566175,473302,520485
653323616095590400,566431,473268,520572
653323616103121590,566313,473219,520307
653323616110554464,566546,473521,520578
653323616117987338,566715,473552,520771
653323616125420212,566768,473501,520905
653323616132853086,566885,473710,521050
653323616140285960,567133,473948,521204
653323616147718834,567265,473925,521256
653323616155151708,567450,473900,521424
653323616162584582,567491,474129,521449
653323616170017456,567556,474059,521530
653323616177450330,567693,474160,521560
653323616184883204,568015,474206,521794
653323616192316078,568173,474347,521981
653323616199748952,568247,474392,522061
653323616207181826,568403,474547,522297
653323616214614700,568483,474737,522295
653323616222047574,568715,474712,522351
653323616229480448,568880,474773,522457
653323616236851437,569008,474996,522649
653323616244287952,568988,475016,522705
653323616251724467,569149,474953,522635
653323616259160982,569332,474962,522768
653323616266597497,569268,475049,522900
653323616274034012,569378,474982,522937
653323616281470527,569300,474966,522852
653323616288907042,569314,474992,522841
653323616296343557,569310,474816,522895
653323616303780072,569167,474843,522682
653323616311216587,569064,474743,522511
653323616318653102,568918,474647,522323
653323616326089617,568750,474619,522341
653323616333526132,568646,474553,522245
653323616340962647,568526,474389,522124
653323616348399162,568362,474425,521967
653323616355835677,568281,474403,521931
653323616363272192,568013,474355,521757
653323616370646820,567912,474035,521791
653323616378086976,567778,473988,521629
653323616385527132,567479,473925,521365
653323616392967288,567419,473683,521255
653323616400407444,567286,473719,521158
653323616407847600,567124,473761,520940
653323616415287756,566949,473529,520688
653323616422727912,566792,473494,520548
653323616430168068,566687,473419,520498
653323616437608224,566545,473393,520321
653323616445048380,566296,473362,520182
653323616452488536,566379,473133,520122
653323616459928692,566212,473153,519862
653323616467368848,566059,473086,519731
653323616474809004,565930,473063,519784
653323616482249160,565863,473000,519711
653323616489689316,565818,472940,519652
653323616497129472,565777,472892,519648
653323616504662473,565822,472860,519425
653323616512097168,565633,472863,519527
653323616519531863,565719,472914,519524
653323616526966558,565663,472953,519374
653323616534401253,565579,473006,519564
653323616541835948,565544,472938,519488
653323616549270643,565583,472945,519412
653323616556705338,565545,472918,519378
653323616564140033,565412,472929,519359
653323616571574728,565456,472771,519257
653323616579009423,565565,472929,519306
653323616586444118,565746,472919,519512
653323616593878813,565601,472997,519488
653323616601313508,565577,472907,519448
653323616608748203,565577,472859,519342
653323616616182898,565431,472755,519367
653323616623617593,565455,472843,519425
653323616631052288,565537,472948,519412
653323616638394148,565441,472947,519793
653323616645834304,565621,472960,519767
653323616653274460,565667,472964,519719
653323616660714616,565751,473023,519653
653323616668154772,565687,473033,519596
653323616675594928,565708,473114,519596
653323616683035084,565741,473161,519692
653323616690475240,565653,473153,519542
653323616697915396,565768,473104,519513
653323616705355552,565843,473192,519694
653323616712795708,566063,473320,519837
653323616720235864,566140,473370,519975
653323616727676020,566267,473564,520028
653323616735116176,566340,473562,520054
653323616742556332,566249,473536,520174
653323616749996488,566309,473549,520233
653323616757436644,566363,473539,520207
653323616764876800,566463,473576,520247
653323616772440758,566858,473755,520243
653323616779873632,566895,473764,520492
653323616787306506,566782,473740,520563
653323616794739380,566896,473873,520614
653323616802172254,566972,473924,520751
653323616809605128,567069,473924,520810
653323616817038002,567138,474055,520866
653323616824470876,567175,474138,520898
653323616831903750,567260,474192,521023
653323616839336624,567442,474225,521083
653323616846769498,567539,474283,521110
653323616854202372,567646,474283,521239
653323616861635246,567785,474393,521247
653323616869068120,567793,474466,521372
653323616876500994,567960,474397,521456
653323616883933868,567929,474517,521571
653323616891366742,568076,474629,521677
653323616898799616,568178,474594,521651
653323616906108708,568277,474649,521806
653323616913548864,568388,474801,521812
653323616920989020,568454,474913,521953
653323616928429176,568580,474940,522089
653323616935869332,568655,474851,521993
653323616943309488,568721,474959,522080
653323616950749644,568959,475071,522233
653323616958189800,568903,475029,522236
653323616965629956,569082,475086,522351
653323616973070112,569136,475298,522434
653323616980510268,569232,475316,522491
653323616987950424,569330,475311,522635
653323616995390580,569467,475342,522723
653323617002830736,569495,475538,522898
653323617010270892,569617,475580,522889
653323617017711048,569794,475567,523035
653323617025151204,569978,475759,523148
653323617032591360,570085,475805,523148
653323617040124361,570354,475619,523423
653323617047559056,570272,475730,523461
653323617054993751,570368,475985,523541
653323617062428446,570382,475890,523592
653323617069863141,570436,476141,523598
653323617077297836,570488,476027,523504
653323617084732531,570387,475935,523553
653323617092167226,570427,475781,523514
653323617099601921,570340,475815,523601
653323617107036616,570401,475898,523481
653323617114471311,570271,475839,523422
653323617121906006,569993,475604,523162
653323617129340701,569906,475669,523181
653323617136775396,569736,475556,522959
653323617144210091,569642,475444,522777
653323617151644786,569561,475490,522789
653323617159079481,569375,475221,522680
653323617166514176,569283,475170,522494
653323617173917933,568884,474891,522109
653323617181354448,568974,475000,522193
653323617188790963,568902,475110,522221
653323617196227478,568681,474915,522163
653323617203663993,568545,474905,521955
653323617211100508,568434,474717,521635
653323617218537023,568176,474805,521686
653323617225973538,568187,474755,521566
653323617233410053,568102,474573,521306
653323617240846568,568115,474586,521422
653323617248283083,567982,474589,521233
653323617255719598,567843,474488,521083
653323617263156113,567805,474511,521105
653323617270592628,567695,474471,521056
653323617278029143,567590,474309,521061
653323617285465658,567576,474356,521013
653323617292902173,567516,474249,520783
653323617300338688,567441,474239,520976
653323617307775213,567512,474067,520679
653323617315211728,567579,474085,520757
653323617322648243,567545,474291,520711
653323617330084758,567490,474392,520782
653323617337521273,567366,474413,520927
653323617344957788,567414,474426,520803
653323617352394303,567377,474607,520723
653323617359830818,567402,474400,520701
653323617367267333,567372,474383,520815
653323617374703848,567482,474311,520762
653323617382140363,567502,474395,520727
653323617389576878,567440,474372,520752
653323617397013393,567466,474373,520894
653323617404449908,567513,474360,520924
653323617411886423,567475,474361,520881
653323617419322938,567610,474326,520903
653323617426759453,567522,474263,520771
653323617434195968,567567,474274,520747
653323617441632493,567613,474245,520885
653323617449069008,567460,474339,520873
653323617456505523,567456,474269,520667
653323617463942038,567436,474380,520803
653323617471378553,567550,474277,520877
653323617478815068,567606,474381,520935
653323617486251583,567595,474422,520866
653323617493688098,567624,474512,520879
653323617501124613,567648,474488,520999
653323617508561128,567667,474560,520946
653323617515997643,567592,474577,521008
653323617523434158,567703,474622,520945
653323617530870673,567879,474777,521150
653323617538307188,567956,474821,521220
653323617545743703,567858,474779,521084
653323617553180218,567880,474737,521178
653323617560616733,568021,474837,521261
653323617568053248,568067,474913,521400
653323617575427876,568045,474917,521555
653323617582868032,568036,474897,521538
653323617590308188,568292,474999,521381
653323617597748344,568332,475030,521416
653323617605188500,568431,475118,521550
653323617612628656,568597,475199,521665
653323617620068812,568575,475147,521802
653323617627508968,568650,475225,521809
653323617634949124,568776,475237,521835
653323617642389280,568891,475351,521945
653323617649829436,569055,475335,522073
653323617657269592,569079,475440,522091
653323617664709748,569076,475413,521966
653323617672149904,569280,475596,522132
653323617679590060,569358,475621,522132
653323617687030216,569406,475624,522221
653323617694470372,569338,475620,522250
653323617701910528,569497,475785,522381
653323617709505426,569430,475679,522496
653323617716936480,569483,475768,522635
653323617724367534,569559,475806,522645
653323617731798588,569774,475915,522718
653323617739229642,569890,476057,522735
653323617746660696,569898,476127,522853
653323617754091750,570007,476033,522765
653323617761522804,570146,476095,522956
653323617768953858,570172,476064,523027
653323617776384912,570213,476232,523121
653323617783815966,570414,476367,523213
653323617791247020,570402,476412,523330
653323617798678074,570487,476501,523369
653323617806109128,570635,476563,523382
653323617813540182,570737,476616,523457
653323617820971236,570687,476649,523436
653323617828402290,570782,476504,523489
653323617835833344,570785,476524,523582
653323617843078728,570681,476491,523913
653323617850520704,570686,476586,523661
653323617857962680,570680,476446,523522
653323617865404656,570646,476425,523228
653323617872846632,570582,476364,523235
653323617880288608,570440,476277,523136
653323617887730584,570405,476085,522976
653323617895172560,570150,476116,522861
653323617902614536,569902,475935,522662
653323617910056512,569723,475830,522587
653323617917498488,569509,475812,522351
653323617924940464,569304,475697,522155
653323617932382440,569217,475597,522042
653323617939824416,569094,475500,521756
653323617947266392,568907,475420,521630
653323617954708368,568648,475181,521543
653323617962150344,568681,475279,521538
653323617969592320,568478,475093,521334
653323617977219986,568542,475282,520775
653323617984651040,568322,475204,520864
653323617992082094,568037,475010,520805
653323617999513148,567861,474866,520820
653323618006944202,567811,474620,520601
653323618014375256,567704,474748,520526
653323618021806310,567658,474719,520419
653323618029237364,567490,474548,520314
653323618036668418,567334,474516,520145
653323618044099472,567268,474456,520036
653323618051530526,567150,474338,519935
653323618058961580,567098,474236,520067
653323618066392634,567070,474350,519951
653323618073823688,567126,474380,519767
653323618081254742,566885,474382,519837
653323618088685796,567032,474323,519879
653323618096116850,566938,474263,519832
653323618103547904,566787,474296,519752
653323618110855168,566852,474110,519610
653323618118293504,566875,474264,519631
653323618125731840,566785,474332,519663
653323618133170176,566727,474228,519685
653323618140608512,566756,474255,519584
653323618148046848,566713,474137,519400
653323618155485184,566564,474161,519342
653323618162923520,566674,474181,519525
653323618170361856,566497,474228,519542
653323618177800192,566514,474254,519512
653323618185238528,566467,474197,519521
653323618192676864,566560,474323,519570
653323618200115200,566556,474257,519492
653323618207553536,566392,474151,519252
653323618214991872,566416,474253,519416
653323618222430208,566499,474119,519240
653323618229868544,566552,474185,519359
653323618237306880,566527,474095,519363
653323618244683336,566327,474432,519305
653323618252125312,566338,474310,519379
653323618259567288,566396,474235,519222
653323618267009264,566472,474282,519360
653323618274451240,566548,474279,519332
653323618281893216,566513,474328,519590
653323618289335192,566470,474494,519596
653323618296777168,566619,474445,519572
653323618304219144,566674,474480,519456
653323618311661120,566647,474394,519594
653323618319103096,566731,474509,519656
653323618326545072,566793,474428,519660
653323618333987048,566853,474511,519750
653323618341429024,566916,474548,519835
6.53324E+17,566878,474584,519766
653323618356312976,567080,474572,519793
653323618363754952,567280,474666,519864
653323618371196928,567195,474644,519873
653323618378824594,567386,474927,520102
653323618386255648,567358,474910,520142
653323618393686702,567440,474953,520154
653323618401117756,567466,475153,520295
653323618408548810,567558,475069,520145
653323618415979864,567650,475030,520293
653323618423410918,567611,475086,520506
653323618430841972,567798,475106,520503
653323618438273026,567797,475222,520607
653323618445704080,567926,475276,520467
653323618453135134,568011,475302,520618
653323618460566188,568066,475298,520720
653323618467997242,568150,475388,520853
653323618475428296,568176,475373,520815
653323618482859350,568373,475505,520948
653323618490290404,568421,475506,521008
653323618497721458,568544,475580,520974
653323618505152512,568617,475611,521066
653323618512459776,568695,475828,521217
653323618519898112,568682,475787,521274
653323618527336448,568883,475826,521457
653323618534774784,568886,475839,521512
653323618542213120,569017,475846,521543
653323618549651456,569113,475941,521596
653323618557089792,569117,475914,521642
653323618564528128,569138,475958,521741
653323618571966464,569370,476136,521734
653323618579404800,569320,476174,521916
653323618586843136,569244,476187,521924
653323618594281472,569199,476136,521776
653323618601719808,569117,476049,521691
653323618609158144,569168,475896,521632
653323618616596480,568988,475920,521503
653323618624034816,568863,475941,521346
653323618631473152,568615,475689,521231
653323618638911488,568451,475614,520975
653323618646349824,568317,475485,520535
653323618653788160,568160,475320,520628
653323618661226496,568029,475288,520362
653323618668664832,567706,475265,520277
653323618676103168,567556,475200,520188
653323618683541504,567306,475017,520058
653323618690979840,567227,474915,519897
653323618698418176,567043,474689,519621
653323618705856512,566906,474672,519583
653323618713294848,566643,474487,519239
653323618720733184,566540,474456,519196
653323618728171520,566358,474390,519076
653323618735609856,566266,474440,518929
653323618743048192,566137,474333,518795
653323618750486528,565978,474145,518659
653323618757924864,565873,474175,518658
653323618765363200,565674,474108,518369
653323618772801536,565590,474014,518211
653323618780301769,565540,474037,518203
653323618787736464,565435,474035,518184
653323618795171159,565314,473938,518070
653323618802605854,565144,473871,518014
653323618810040549,565094,473771,517935
653323618817475244,565087,473828,517824
653323618824909939,564970,473844,517842
653323618832344634,564953,473757,517745
653323618839779329,564985,473785,517745
653323618847214024,564916,473787,517678
653323618854648719,564772,473796,517681
653323618862083414,564844,473768,517642
653323618869518109,564860,473667,517608
653323618876952804,564703,473629,517648
653323618884387499,564790,473727,517550
653323618891822194,564820,473770,517498
653323618899256889,564834,473709,517441
653323618906691584,564813,473736,517514
653323618914064384,564958,473646,517639
653323618921502720,564788,473643,517567
653323618928941056,564787,473620,517383
653323618936379392,564735,473649,517421
653323618943817728,564656,473718,517484
653323618951256064,564640,473669,517371
653323618958694400,564678,473700,517434
653323618966132736,564656,473625,517445
653323618973571072,564789,473755,517481
653323618981009408,564721,473765,517429
653323618988447744,564747,473629,517289
653323618995886080,564674,473576,517337
653323619003324416,564658,473595,517434
653323619010762752,564726,473740,517372
653323619018201088,564749,473826,517387
653323619025639424,564897,473805,517494
653323619033077760,564991,473792,517562
653323619040516096,564990,473891,517679
653323619048016329,564930,473732,517592
653323619055451024,564998,473992,517724
653323619062885719,565089,473928,517649
653323619070320414,565282,473992,517775
653323619077755109,565156,474109,517884
653323619085189804,565391,474164,517871
653323619092624499,565432,474216,517904
653323619100059194,565435,474193,518017
653323619107493889,565476,474288,518040
653323619114928584,565454,474408,518063
653323619122363279,565469,474406,518143
653323619129797974,565583,474321,518247
653323619137232669,565824,474462,518336
653323619144667364,565898,474463,518407
653323619152102059,565948,474573,518444
653323619159536754,566090,474668,518583
653323619166971449,566153,474610,518635
653323619174406144,566251,474631,518604
653323619181840841,566296,474591,518569
653323619189275536,566394,474566,518615
653323619196710231,566420,474683,518734
653323619204144926,566330,474844,518805
653323619211579621,566544,474873,518875
653323619219014316,566716,474867,519051
653323619226449011,566743,475012,519126
653323619233883706,566775,474991,519261
653323619241318401,566942,475148,519281
653323619248753096,566970,475178,519350
653323619256187791,566964,475067,519297
653323619263622486,567068,475195,519427
653323619271057181,567219,475338,519558
653323619278491876,567265,475368,519632
653323619285926571,567390,475341,519591
653323619293361266,567561,475528,519810
653323619300795961,567597,475674,519871
653323619308230656,567604,475569,519932
653323619315541576,567672,475766,520254
653323619322983552,567590,475683,520205
653323619330425528,567595,475538,520159
653323619337867504,567573,475482,519826
653323619345309480,567459,475470,519852
653323619352751456,567321,475506,519501
653323619360193432,567227,475312,519411
653323619367635408,567049,475169,519404
653323619375077384,566942,475089,519272
653323619382519360,566878,475023,519214
653323619389961336,566658,474937,518910
653323619397403312,566463,474827,518842
653323619404845288,566249,474766,518619
653323619412287264,565998,474676,518464
653323619419729240,565819,474563,518271
653323619427171216,565790,474533,518122
653323619434613192,565465,474379,517804
653323619442055168,565281,474173,517716
653323619449620937,565386,474250,517787
653323619457055632,565120,474138,517631
653323619464490327,565008,474098,517442
653323619471925022,564816,474050,517335
653323619479359717,564672,474017,517247
653323619486794412,564487,473816,516948
653323619494229107,564281,473652,516853
653323619501663802,564193,473527,516768
653323619509098497,564015,473578,516637
653323619516533192,564032,473561,516594
653323619523967887,563935,473507,516498
653323619531402582,563866,473407,516275
653323619538837277,563780,473445,516295
653323619546271972,563650,473377,516199
653323619553706667,563612,473377,516134
653323619561141362,563498,473188,516081
653323619568576057,563531,473260,516087
653323619576010752,563509,473094,515955
653323619583445449,563518,473126,516141
653323619590880144,563395,473245,516060
653323619598314839,563479,473103,515988
653323619605749534,563439,473251,516010
653323619613184229,563494,473256,515962
653323619620618924,563357,473272,516024
653323619628053619,563276,473262,515961
653323619635488314,563444,473315,515995
653323619642923009,563343,473291,515985
653323619650357704,563261,473182,515949
653323619657792399,563275,473194,515888
653323619665227094,563307,473305,515889
653323619672661789,563322,473262,515797
653323619680096484,563168,473288,515841
653323619687531179,562888,473219,515919
653323619694965874,563026,473344,515948
653323619702400569,563170,473509,515944
653323619709835264,563128,473368,515911
653323619717208064,563041,473606,516256
653323619724646400,563255,473469,516034
653323619732084736,563241,473373,516063
653323619739523072,563298,473320,516016
653323619746961408,563389,473340,516001
653323619754399744,563325,473345,515987
653323619761838080,563400,473498,516141
653323619769276416,563553,473538,516110
653323619776714752,563598,473513,516144
653323619784153088,563715,473469,516252
653323619791591424,563786,473478,516147
653323619799029760,563797,473665,516198
653323619806468096,563793,473682,516340
653323619813906432,563779,473519,516314
653323619821344768,563940,473686,516449
653323619828783104,563859,473730,516358
653323619836221440,563966,473820,516491
653323619843659776,564115,473806,516571
653323619851098112,564319,474095,516722
653323619858536448,564275,473932,516793
653323619865974784,564228,474019,516784
653323619873413120,564220,473979,516820
653323619880851456,564420,473987,516781
653323619888289792,564419,473955,517028
653323619895728128,564487,473963,517010
653323619903166464,564656,474011,517082
653323619910604800,564779,474128,517151
653323619918043136,564769,474172,517262
653323619925481472,564932,474149,517212
653323619932919808,564912,474314,517320
653323619940358144,564984,474392,517496
653323619947796480,565104,474496,517654
653323619955234816,565105,474468,517559
653323619962673152,565261,474544,517767
653323619970111488,565413,474538,517708
653323619977549824,565500,474619,517890
653323619985050057,565831,474651,518213
653323619992484752,565855,474678,518197
653323619999919447,565814,474813,518210
653323620007354142,565854,474872,518264
653323620014788837,565870,474903,518278
653323620022223532,566062,474972,518276
653323620029658227,566062,475024,518433
653323620037092922,566020,474905,518453
653323620044527617,565982,474813,518361
653323620051962312,565919,474824,518262
653323620059397007,565816,474821,518210
653323620066831702,565677,474686,517958
653323620074266397,565565,474684,517943
653323620081701092,565358,474548,517784
653323620089135787,565223,474465,517457
653323620096570482,565052,474369,517495
653323620104005177,564886,474259,517260
653323620111439872,564619,474139,517073
653323620118874569,564254,473991,516960
653323620126309264,564232,473928,516716
653323620133743959,564129,473842,516509
653323620141178654,564048,473759,516424
653323620148613349,563871,473593,516206
653323620156048044,563627,473521,516040
653323620163482739,563352,473341,515877
653323620170917434,563151,473274,515783
653323620178352129,563056,473262,515476
653323620185786824,562866,473080,515374
653323620193221519,562823,473144,515199
653323620200656214,562542,472984,515145
653323620208090909,562499,473042,515075
653323620215525604,562285,472925,515014
653323620222960299,562257,472874,514937
653323620230394994,562044,472819,514755
653323620237829689,561937,472744,514715
653323620245264384,561856,472633,514609
653323620252637184,561948,472421,514870
653323620260075520,561834,472461,514614
653323620267513856,561744,472555,514543
653323620274952192,561574,472581,514425
653323620282390528,561706,472530,514457
653323620289828864,561704,472513,514474
653323620297267200,561668,472555,514447
653323620304705536,561557,472453,514477
653323620312143872,561654,472533,514369
653323620319582208,561671,472465,514414
653323620327020544,561586,472363,514308
653323620334458880,561547,472410,514196
653323620341897216,561462,472327,514297
653323620349335552,561520,472368,514191
653323620356773888,561495,472458,514268
653323620364212224,561484,472517,514307
653323620371650560,561506,472429,514264
653323620379088896,561462,472443,514349
653323620386527232,561753,472532,514221
653323620393965568,561652,472559,514000
653323620401403904,561547,472519,514215
653323620408842240,561379,472422,514207
653323620416280576,561532,472330,514097
653323620423718912,561523,472489,514298
653323620431157248,561523,472636,514339
653323620438595584,561641,472644,514370
653323620446033920,561738,472616,514410
653323620453472256,561705,472644,514425
653323620460910592,561751,472624,514458
653323620468348928,561757,472612,514487
653323620475787264,561733,472583,514545
653323620483225600,561741,472669,514601
653323620490663936,561802,472764,514643
653323620498102272,561848,472782,514702
653323620505540608,561965,472790,514748
653323620512978944,561946,472768,514801
653323620520479177,562248,473016,514902
653323620527913872,562194,473003,514773
653323620535348567,562227,472923,514966
653323620542783262,562262,472941,515059
653323620550217957,562472,472960,515162
653323620557652652,562555,473018,515179
653323620565087347,562569,473001,515284
653323620572522042,562642,473048,515421
653323620579956737,562836,473199,515468
653323620587391432,562838,473290,515481
653323620594826127,562929,473366,515581
653323620602260822,563083,473420,515691
653323620609695517,562998,473377,515704
653323620617130212,563172,473406,515906
653323620624564907,563259,473498,515959
653323620631999602,563342,473529,516057
653323620639434297,563298,473480,516051
653323620646868992,563449,473614,516175
653323620654303689,563595,473869,516482
653323620661738384,563776,473834,516499
653323620669173079,563898,473822,516459
653323620676607774,563985,473867,516579
653323620684042469,564126,473899,516689
653323620691477164,564143,473985,516755
653323620698911859,564381,473992,516782
653323620706346554,564355,474075,516928
653323620713781249,564538,474130,516981
653323620721215944,564581,474156,517039
653323620728650639,564508,474118,517027
653323620736085334,564570,474193,517117
653323620743520029,564564,474129,517065
653323620750954724,564505,474031,516991
653323620758389419,564410,474033,516949
653323620765824114,564386,473900,516791
653323620773258809,564186,473953,516647
653323620780693504,563974,473772,516563
653323620788004424,563905,473490,516336
653323620795446400,563710,473417,516149
653323620802888376,563589,473368,516203
653323620810330352,563288,473316,516056
653323620817772328,563189,473290,515920
653323620825214304,562978,473071,515690
653323620832656280,562841,473095,515658
653323620840098256,562592,472916,515573
653323620847540232,562459,472827,515256
653323620854982208,562300,472700,515268
653323620862424184,562199,472589,515094
653323620869866160,561927,472513,514965
653323620877308136,561828,472376,514812
653323620884750112,561805,472385,514707
653323620892192088,561725,472345,514674
653323620899634064,561677,472303,514525
653323620907076040,561387,472032,514414
653323620914518016,561255,472108,514197
653323620922145682,560861,471899,513993
653323620929576736,561066,471980,514082
653323620937007790,560983,472014,514052
653323620944438844,560967,471955,514131
653323620951869898,561047,471953,514035
653323620959300952,561093,471978,514079
653323620966732006,561057,471943,514032
653323620974163060,561073,471973,513948
653323620981594114,561182,471887,514146
653323620989025168,561171,471873,514137
653323620996456222,561126,471922,514046
653323621003887276,561188,471888,514100
653323621011318330,561141,471952,514076
653323621018749384,561305,471822,514139
653323621026180438,561142,471839,513963
653323621033611492,561130,471765,514036
653323621041042546,561203,471855,514174
653323621048473600,561141,471898,514164
653323621055718984,560892,471965,513910
653323621063160960,561054,471950,514025
653323621070602936,561255,472009,514134
653323621078044912,561214,471901,514274
653323621085486888,561264,471974,514369
653323621092928864,561452,471936,514383
653323621100370840,561402,471941,514325
653323621107812816,561384,471934,514428
653323621115254792,561413,472020,514408
653323621122696768,561464,471938,514353
653323621130138744,561494,472000,514466
653323621137580720,561598,471991,514474
653323621145022696,561513,471967,514520
653323621152464672,561731,472161,514585
653323621159906648,561816,472166,514639
653323621167348624,561821,472209,514616
653323621174790600,561862,472180,514754
653323621182232576,561929,472116,514924
653323621189860242,562179,472189,515095
653323621197291296,562167,472319,515073
653323621204722350,562151,472371,515164
653323621212153404,562267,472415,515246
653323621219584458,562320,472492,515279
653323621227015512,562444,472538,515380
653323621234446566,562556,472608,515433
653323621241877620,562728,472623,515566
653323621249308674,562776,472677,515656
653323621256739728,562870,472780,515628
653323621264170782,562972,472807,515669
653323621271601836,563056,472882,515776
653323621279032890,563160,472901,515896
653323621286463944,563132,472928,516013
653323621293894998,563245,472944,515891
653323621301326052,563298,473003,515977
653323621308757106,563440,472991,516175
653323621316188160,563630,473031,516340
653323621323495424,563751,472872,516433
653323621330933760,563882,473172,516518
653323621338372096,563969,473189,516610
653323621345810432,564062,473242,516715
653323621353248768,564374,473434,516867
653323621360687104,564329,473526,516923
653323621368125440,564428,473495,516998
653323621375563776,564400,473498,517066
653323621383002112,564473,473503,517047
653323621390440448,564619,473679,517352
653323621397878784,564624,473677,517443
653323621405317120,564678,473731,517451
653323621412755456,564822,473728,517386
653323621420193792,564856,473719,517483
653323621427632128,564934,473716,517489
653323621435070464,564821,473627,517457
653323621442508800,564796,473621,517376
653323621449947136,564742,473560,517456
653323621457447369,564583,473589,516978
653323621464882064,564359,473450,516949
653323621472316759,564308,473396,516867
653323621479751454,564199,473170,516852
653323621487186149,564004,473086,516623
653323621494620844,563644,473077,516314
653323621502055539,563605,473021,516323
653323621509490234,563469,472821,516203
653323621516924929,563335,472696,516098
653323621524359624,563131,472464,515935
653323621531794319,562938,472549,515783
653323621539229014,562865,472516,515739
653323621546663709,562767,472281,515557
653323621554098404,562609,472309,515493
653323621561533099,562426,472337,515359
653323621568967794,562335,472114,515200
653323621576402489,562168,471995,515117
653323621583837184,562039,472025,515124
653323621591209984,562121,471671,514934
653323621598648320,562015,471695,514738
653323621606086656,561927,471699,514611
653323621613524992,561776,471736,514600
653323621620963328,561803,471689,514539
653323621628401664,561811,471693,514488
6.53324E+17,561695,471652,514559
653323621643278336,561580,471438,514403
653323621650716672,561652,471554,514418
653323621658155008,561524,471535,514471
653323621665593344,561516,471579,514487
653323621673031680,561501,471592,514493
653323621680470016,561499,471653,514601
653323621687908352,561569,471630,514515
653323621695346688,561464,471651,514454
653323621702785024,561484,471637,514615
653323621710223360,561414,471591,514546
653323621717661696,561494,471595,514514
653323621725100032,561516,471719,514692
653323621732538368,561460,471731,514643
653323621739976704,561547,471806,514529
653323621747415040,561464,471560,514425
653323621754853376,561490,471559,514405
653323621762291712,561461,471531,514452
653323621769730048,561476,471550,514551
653323621777168384,561453,471451,514509
653323621784606720,561686,471622,514509
653323621792045056,561608,471596,514625
653323621799483392,561538,471551,514547
653323621806921728,561568,471704,514606
653323621814360064,561719,471723,514630
653323621821798400,561576,471547,514726
653323621829236736,561627,471581,514664
653323621836675072,561758,471688,514720
653323621844113408,561811,471702,514778
653323621851551744,561855,471745,514773
653323621859051977,561943,471413,514566
653323621866486672,561927,471654,514777
653323621873921367,562076,471770,514967
653323621881356062,562097,471861,515021
653323621888790757,562181,471846,515014
653323621896225452,562311,471908,515091
653323621903660147,562247,471966,515102
653323621911094842,562318,471965,515090
653323621918529537,562477,472083,515273
653323621925964232,562578,472116,515384
653323621933398927,562599,472144,515455
653323621940833622,562706,472205,515583
653323621948268317,562721,472257,515488
653323621955703012,562917,472276,515506
653323621963137707,562903,472279,515622
653323621970572402,563056,472407,515853
653323621978007097,563063,472343,515779
653323621985441792,563225,472320,515778
653323621992876489,563468,472657,515885
653323622000311184,563390,472706,516026
653323622007745879,563432,472677,516082
653323622015180574,563516,472669,516258
653323622022615269,563669,472631,516375
653323622030049964,563688,472656,516403
653323622037484659,563787,472729,516474
653323622044919354,563757,472976,516639
653323622052354049,563898,473025,516731
653323622059788744,563956,472992,516622
653323622067223439,564180,473129,516764
653323622074658134,564251,473113,516875
653323622082092829,564285,473033,516848
653323622089527524,564394,473203,516980
653323622096962219,564369,473130,516857
653323622104396914,564436,473164,516813
653323622111831609,564288,472926,516782
653323622119266304,564250,472945,516756
653323622126639104,563885,472597,516274
653323622134077440,563835,472582,516248
653323622141515776,563659,472588,516187
653323622148954112,563517,472637,516123
653323622156392448,563265,472388,515980
653323622163830784,563002,472230,515749
653323622171269120,562930,472153,515656
653323622178707456,562705,472064,515487
653323622186145792,562482,472056,515329
653323622193584128,562376,471953,515105
653323622201022464,562050,471754,514875
653323622208460800,561927,471547,514694
653323622215899136,561813,471578,514651
653323622223337472,561683,471592,514523
653323622230775808,561481,471372,514219
653323622238214144,561328,471374,514136
653323622245652480,561176,471003,513841
653323622253090816,561026,471112,513830
653323622260529152,560561,470810,513465
653323622267967488,560607,470768,513399
653323622275405824,560555,470740,513318
653323622282844160,560555,470808,513305
653323622290282496,560373,470555,513173
653323622297720832,560273,470455,513120
653323622305159168,560141,470547,513092
653323622312597504,560036,470516,513004
653323622320035840,560125,470559,513024
653323622327474176,560001,470416,513018
653323622334912512,559869,470422,512903
653323622342350848,560042,470500,513028
653323622349789184,560078,470478,512938
653323622357227520,560015,470493,512957
653323622364665856,560045,470542,513045
653323622372104192,559963,470533,513065
653323622379542528,559937,470487,513031
653323622386980864,559894,470297,513074
653323622394481097,559812,470341,512968
653323622401915792,559929,470371,513022
653323622409350487,559933,470287,513044
653323622416785182,559986,470352,512987
653323622424219877,559889,470410,512909
653323622431654572,559831,470541,512970
653323622439089267,559859,470397,512859
653323622446523962,559923,470406,512847
653323622453958657,560003,470512,512764
653323622461393352,559965,470474,512867
653323622468828047,560146,470396,512806
653323622476262742,560069,470320,512773
653323622483697437,560093,470367,512856
653323622491132132,560182,470433,512968
653323622498566827,560249,470495,513044
653323622506001522,560083,470498,513031
653323622513436217,560057,470365,513138
653323622520870912,560248,470525,513188
653323622528243712,560593,470823,513438
653323622535682048,560544,470699,513302
653323622543120384,560489,470701,513271
653323622550558720,560489,470672,513365
653323622557997056,560517,470704,513263
653323622565435392,560596,470740,513474
653323622572873728,560682,470776,513481
653323622580312064,560769,470747,513646
653323622587750400,560889,470869,513695
653323622595188736,560798,471008,513818
653323622602627072,561027,471105,513792
653323622610065408,561056,471058,513910
653323622617503744,561226,471165,513950
653323622624942080,561391,471170,513999
653323622632380416,561297,471122,513970
653323622639818752,561413,471225,514112
653323622647257088,561483,471293,514239
653323622654695424,561553,471377,514295
653323622662257554,561954,471592,514291
653323622669688608,561834,471532,514486
653323622677119662,561909,471489,514503
653323622684550716,561971,471498,514481
653323622691981770,562004,471505,514661
653323622699412824,562203,471664,514944
653323622706843878,562302,471580,514833
653323622714274932,562380,471776,515069
653323622721705986,562546,471868,515157
653323622729137040,562697,471952,515118
653323622736568094,562697,471925,515194
653323622743999148,562627,471990,515223
653323622751430202,562678,472002,515341
653323622758861256,562818,471943,515556
653323622766292310,562985,472048,515648
653323622773723364,563138,472301,515757
653323622781154418,563192,472219,515775
653323622788585472,563356,472199,515895
653323622795830856,563597,472232,515997
653323622803272832,563526,472324,515947
653323622810714808,563547,472319,515992
653323622818156784,563447,472187,515826
653323622825598760,563375,472148,515779
653323622833040736,563209,472075,515729
653323622840482712,563118,472053,515526
653323622847924688,562916,471988,515488
653323622855366664,562802,471803,515299
653323622862808640,562643,471655,515197
653323622870250616,562388,471556,515008
653323622877692592,562203,471596,514719
653323622885134568,562004,471358,514536
653323622892576544,561843,471236,514414
653323622900018520,561648,471195,514323
653323622907460496,561454,471011,514214
653323622914902472,561369,470910,514044
653323622922344448,561188,470805,513849
653323622929848320,561229,471005,513474
653323622937286656,560889,470693,513395
653323622944724992,560634,470456,513272
653323622952163328,560492,470280,513141
653323622959601664,560358,470290,513027
6.53324E+17,560188,470244,512943
653323622974478336,560060,470099,512811
653323622981916672,559947,470089,512676
653323622989355008,559779,470011,512660
653323622996793344,559727,469751,512388
653323623004231680,559650,469769,512281
653323623011670016,559511,469596,512335
653323623019108352,559473,469726,512315
653323623026546688,559373,469759,512286
653323623033985024,559381,469635,512277
653323623041423360,559392,469701,512293
653323623048861696,559320,469611,512160
653323623056300032,559304,469689,512093
653323623063862162,559381,469674,512064
653323623071293216,559453,469659,512199
653323623078724270,559466,469708,512296
653323623086155324,559370,469662,512269
653323623093586378,559241,469683,512270
653323623101017432,559373,469710,512347
653323623108448486,559443,469673,512229
653323623115879540,559368,469579,512179
653323623123310594,559471,469498,512210
653323623130741648,559317,469655,512138
653323623138172702,559403,469512,511984
653323623145603756,559525,469637,512263
653323623153034810,559516,469637,512260
653323623160465864,559523,469648,512304
653323623167896918,559528,469602,512439
653323623175327972,559458,469572,512427
653323623182759026,559511,469656,512362
653323623190190080,559635,469701,512311
653323623197435464,559517,469680,512526
653323623204877440,559554,469769,512523
653323623212319416,559714,469703,512600
653323623219761392,559710,469840,512597
653323623227203368,559726,469904,512665
653323623234645344,559872,469927,512676
653323623242087320,559898,469923,512818
653323623249529296,560067,470032,512819
653323623256971272,560159,469971,512808
653323623264413248,560137,470000,512805
653323623271855224,560198,470034,512900
653323623279297200,560329,470097,513036
653323623286739176,560332,470273,513114
653323623294181152,560438,470155,513147
653323623301623128,560571,470254,513159
653323623309065104,560478,470324,513245
653323623316507080,560685,470455,513399
653323623323949056,560805,470297,513519
653323623331576722,560701,470493,513593
653323623339007776,560873,470474,513680
653323623346438830,561067,470647,513618
653323623353869884,561200,470703,513746
653323623361300938,561402,470686,513876
653323623368731992,561551,470818,514019
653323623376163046,561582,470886,514136
653323623383594100,561719,470978,514210
653323623391025154,561775,470960,514311
653323623398456208,561805,471007,514370
653323623405887262,561915,471062,514544
653323623413318316,562091,471135,514512
653323623420749370,562286,471189,514699
653323623428180424,562368,471285,514762
653323623435611478,562442,471325,514871
653323623443042532,562315,471364,514856
653323623450473586,562522,471347,514988
653323623457904640,562677,471516,515120
653323623465211904,562599,471738,515170
653323623472650240,562668,471731,515237
653323623480088576,562975,471778,515435
653323623487526912,563048,471730,515462
653323623494965248,563169,471833,515602
653323623502403584,563282,471863,515750
653323623509841920,563443,471957,515765
653323623517280256,563483,471909,515743
653323623524718592,563643,472057,515972
653323623532156928,563701,472157,515984
653323623539595264,563804,472137,515964
653323623547033600,563793,472115,516100
653323623554471936,563758,472110,516053
653323623561910272,563687,472002,515925
653323623569348608,563509,471996,515903
653323623576786944,563494,471939,515834
653323623584225280,563366,471751,515804
653323623591663616,563322,471672,515657
653323623599040072,562980,471523,515648
653323623606482048,562792,471472,515408
653323623613924024,562633,471297,515204
6.53324E+17,562480,471262,514974
653323623628807976,562503,471150,514839
653323623636249952,562300,471142,514725
653323623643691928,562127,471047,514515
653323623651133904,561972,470878,514271
653323623658575880,561876,470738,514184
653323623666017856,561674,470718,514036
653323623673459832,561516,470486,514015
653323623680901808,561363,470426,513862
653323623688343784,561312,470374,513661
653323623695785760,561068,470201,513520
653323623703227736,561046,470349,513424
653323623710669712,560812,470133,513295
653323623718111688,560789,470007,513236
653323623725553664,560633,469913,513082
653323623733181330,560867,469970,513260
653323623740612384,560474,469835,513058
653323623748043438,560378,469782,512916
653323623755474492,560302,469798,512738
653323623762905546,560279,469791,512707
653323623770336600,560318,469700,512724
653323623777767654,560338,469793,512814
653323623785198708,560249,469740,512843
653323623792629762,560181,469537,512732
653323623800060816,560223,469742,512751
653323623807491870,560266,469622,512747
653323623814922924,560216,469706,512716
653323623822353978,560189,469679,512682
653323623829785032,560068,469607,512731
653323623837216086,560188,469775,512715
653323623844647140,560039,469760,512708
653323623852078194,560183,469826,512688
653323623859509248,560282,469672,512743
653323623866816512,560267,469504,512777
653323623874254848,560196,469562,512653
653323623881693184,560264,469667,512735
653323623889131520,560202,469700,512665
653323623896569856,560345,469648,512629
653323623904008192,560337,469742,512782
653323623911446528,560318,469838,512764
653323623918884864,560345,469847,512785
653323623926323200,560355,469824,512811
653323623933761536,560350,469723,512668
653323623941199872,560490,469671,512751
653323623948638208,560369,469898,512923
653323623956076544,560548,469892,512919
653323623963514880,560582,469962,512995
653323623970953216,560613,469919,513046
653323623978391552,560752,470071,513155
653323623985829888,560746,470007,513156
653323623993268224,560787,470129,513162
653323624000706560,561200,470345,513018
653323624008144896,561124,470306,513269
653323624015583232,561186,470233,513408
653323624023021568,561234,470245,513520
653323624030459904,561223,470313,513454
653323624037898240,561401,470438,513642
653323624045336576,561428,470515,513761
653323624052774912,561489,470493,513918
653323624060213248,561571,470673,513948
653323624067651584,561604,470612,514077
653323624075089920,561774,470664,514077
653323624082528256,561860,470661,514257
653323624089966592,562002,470836,514333
653323624097404928,562102,470805,514402
653323624104843264,562161,470873,514489
653323624112281600,562322,471058,514580
653323624119719936,562536,471006,514653
653323624127158272,562521,471099,514744
653323624134658505,562793,471415,514647
653323624142093200,562731,471270,514896
653323624149527895,562827,471297,515073
653323624156962590,562875,471247,515048
653323624164397285,562964,471364,515253
653323624171831980,563036,471479,515246
653323624179266675,563322,471652,515446
653323624186701370,563277,471679,515473
653323624194136065,563492,471673,515584
653323624201570760,563610,471653,515715
653323624209005455,563632,471694,515754
653323624216440150,563706,471910,515939
653323624223874845,563886,471934,515985
653323624231309540,564007,471983,516154
653323624238744235,564121,471997,516079
653323624246178930,564178,472087,516312
653323624253613625,564323,472295,516438
653323624261048320,564498,472253,516544
653323624268359240,564287,472153,516516
653323624275801216,564690,472423,516607
653323624283243192,564794,472396,516797
653323624290685168,565005,472605,516914
653323624298127144,565089,472628,517090
653323624305569120,565208,472728,517138
653323624313011096,565263,472752,517221
653323624320453072,565386,472694,517354
653323624327895048,565475,472799,517411
653323624335337024,565630,472848,517435
6.53324E+17,565592,472822,517239
653323624350220976,565123,472815,517294
653323624357662952,565148,472640,517153
653323624365104928,565097,472603,517249
653323624372546904,565050,472496,517029
653323624379988880,564837,472397,516899
653323624387430856,564830,472434,516792
653323624394872832,564533,472148,516440
653323624402438601,564369,472189,516586
653323624409873296,564395,472142,516372
653323624417307991,564397,471978,516184
653323624424742686,564220,471949,516077
653323624432177381,564129,471898,516055
653323624439612076,563974,471769,515809
653323624447046771,563645,471727,515756
653323624454481466,563454,471512,515561
653323624461916161,563502,471379,515574
653323624469350856,563383,471348,515517
653323624476785551,563411,471400,515493
653323624484220246,563350,471254,515319
653323624491654941,563196,471208,515042
653323624499089636,563049,471047,514955
653323624506524331,562833,470980,514875
653323624513959026,562820,471025,514854
653323624521393721,562778,471000,514833
653323624528828416,562715,470835,514687
653323624536263113,562943,470590,514439
653323624543697808,562732,470653,514555
653323624551132503,562701,470687,514497
653323624558567198,562631,470608,514363
653323624566001893,562710,470752,514619
653323624573436588,562657,470867,514641
653323624580871283,562696,470835,514607
653323624588305978,562763,470897,514708
653323624595740673,562718,470900,514678
653323624603175368,562734,470910,514750
653323624610610063,562769,470915,514737
653323624618044758,562811,470873,514654
653323624625479453,562809,470920,514726
653323624632914148,562829,470863,514652
653323624640348843,562803,470897,514803
653323624647783538,562791,470851,514789
653323624655218233,562854,470897,514861
653323624662652928,562846,470913,514887
653323624670025728,562809,471027,514803
653323624677464064,562833,470968,514822
653323624684902400,562927,470996,514865
653323624692340736,562980,470972,515050
653323624699779072,563074,470916,515001
653323624707217408,563043,471001,515015
653323624714655744,563029,471085,515054
653323624722094080,563230,471136,515032
653323624729532416,563438,471175,515194
653323624736970752,563401,471238,515225
653323624744409088,563481,471224,515168
653323624751847424,563482,471230,515359
653323624759285760,563521,471225,515421
653323624766724096,563664,471266,515380
653323624774162432,563657,471209,515505
653323624781600768,563819,471371,515645
653323624789039104,563938,471481,515772
653323624796477440,563904,471422,515808
653323624803977673,564067,471151,516078
653323624811412368,564222,471430,516114
653323624818847063,564130,471603,516114
653323624826281758,564198,471740,516216
653323624833716453,564380,471775,516236
653323624841151148,564421,471848,516398
653323624848585843,564510,471976,516467
653323624856020538,564629,472036,516521
653323624863455233,564754,472042,516512
653323624870889928,564876,472144,516453
653323624878324623,564982,472193,516743
653323624885759318,565138,472197,516885
653323624893194013,565285,472317,517044
653323624900628708,565504,472369,517110
653323624908063403,565463,472333,517119
653323624915498098,565525,472444,517219
653323624922932793,565651,472481,517336
653323624930367488,565849,472474,517483
653323624937678408,566055,472737,517384
653323624945120384,566083,472890,517561
653323624952562360,566172,472791,517592
653323624960004336,566305,472883,517829
653323624967446312,566338,472807,517868
653323624974888288,566522,472925,517991
653323624982330264,566626,473044,518100
653323624989772240,566749,473043,518119
653323624997214216,566807,472946,518280
653323625004656192,566870,473154,518431
653323625012098168,567065,473251,518411
653323625019540144,567111,473294,518610
653323625026982120,567126,473289,518722
653323625034424096,567281,473435,518826
653323625041866072,567405,473430,518980
653323625049308048,567577,473603,519081
653323625056750024,567635,473593,519147
6.53324E+17,567840,473685,519282
653323625071819666,568059,474075,519543
653323625079250720,568066,473964,519426
653323625086681774,568192,473999,519585
653323625094112828,568382,474111,519725
653323625101543882,568449,474184,519866
653323625108974936,568472,474198,519919
653323625116405990,568559,474218,519863
653323625123837044,568641,474047,519873
653323625131268098,568620,474119,519899
653323625138699152,568415,474091,519831
653323625146130206,568421,474006,519718
653323625153561260,568336,474004,519749
653323625160992314,568345,473897,519611
653323625168423368,568033,473642,519547
653323625175854422,567950,473701,519391
653323625183285476,567723,473470,519225
653323625190716530,567625,473514,519071
653323625198147584,567673,473422,518985
653323625205454848,567625,473162,518769
653323625212893184,567427,473150,518727
653323625220331520,567214,473078,518604
653323625227769856,567060,473014,518424
653323625235208192,566959,472924,518324
653323625242646528,566766,472891,518186
653323625250084864,566787,472790,518068
653323625257523200,566727,472844,517981
653323625264961536,566580,472731,517843
653323625272399872,566363,472743,517800
653323625279838208,566365,472746,517684
653323625287276544,566239,472487,517461
653323625294714880,566069,472505,517347
653323625302153216,566088,472411,517307
653323625309591552,565959,472401,517365
653323625317029888,565831,472317,517358
653323625324468224,565840,472248,517235
653323625331906560,565765,472396,517247
653323625339406793,565627,472242,517184
653323625346841488,565727,472238,517186
653323625354276183,565828,472032,517286
653323625361710878,565855,472268,517273
653323625369145573,565719,472310,517233
653323625376580268,565814,472392,517209
653323625384014963,565834,472450,517104
653323625391449658,565720,472473,517050
653323625398884353,565627,472512,517082
653323625406319048,565856,472499,517196
653323625413753743,565803,472447,517243
653323625421188438,565764,472447,517176
653323625428623133,565895,472416,517136
653323625436057828,565751,472396,517016
653323625443492523,565890,472373,516982
653323625450927218,565682,472284,517091
653323625458361913,565769,472406,517113
653323625465796608,565729,472456,516942
653323625473169408,565904,472450,516940
653323625480607744,565905,472490,517084
653323625488046080,565896,472412,517033
653323625495484416,565901,472432,517006
653323625502922752,565933,472584,517141
653323625510361088,565969,472560,517267
653323625517799424,565917,472528,517220
653323625525237760,565805,472563,517170
653323625532676096,565887,472605,517272
653323625540114432,565974,472576,517313
653323625547552768,565976,472650,517290
653323625554991104,566070,472638,517236
653323625562429440,565942,472485,517242
653323625569867776,566019,472728,517492
653323625577306112,566026,472775,517587
653323625584744448,566249,472941,517434
653323625592182784,566225,472947,517576
653323625599621120,566361,473046,517548
653323625607121353,566581,473228,517806
653323625614556048,566613,473030,517832
653323625621990743,566595,473036,517747
653323625629425438,566531,472946,517810
653323625636860133,566670,473057,517856
653323625644294828,566677,473058,517898
653323625651729523,566748,473109,518056
653323625659164218,566857,473066,517963
653323625666598913,567009,473184,518112
653323625674033608,567101,473301,518156
653323625681468303,567032,473525,518250
653323625688902998,567237,473571,518367
653323625696337693,567178,473498,518472
653323625703772388,567257,473581,518592
653323625711207083,567482,473583,518702
653323625718641778,567541,473660,518661
653323625726076473,567688,473754,518705
653323625733511168,567741,473811,518830
653323625740883968,567608,473891,518663
653323625748322304,567833,473949,518888
653323625755760640,567901,474086,519013
653323625763198976,567862,474070,519118
653323625770637312,568134,474240,519305
653323625778075648,568259,474225,519299
653323625785513984,568327,474202,519217
653323625792952320,568339,474194,519456
653323625800390656,568490,474274,519546
653323625807828992,568479,474250,519661
653323625815267328,568575,474346,519691
653323625822705664,568579,474407,519698
6.53324E+17,568758,474555,519771
653323625837582336,568713,474651,519826
653323625845020672,568964,474669,519953
653323625852459008,568959,474697,520021
653323625859897344,569198,474655,520126
653323625867335680,569266,474822,520247
653323625874774016,569605,474988,520291
653323625882212352,569658,475022,520415
653323625889650688,569625,474943,520517
653323625897089024,569689,474990,520383
653323625904527360,569514,475050,520451
653323625911965696,569421,475067,520476
653323625919404032,569487,475010,520463
653323625926842368,569446,474955,520403
653323625934280704,569248,474674,520368
653323625941719040,569145,474672,520290
653323625949157376,569042,474565,520100
653323625956595712,568979,474554,519962
653323625964034048,568871,474519,519754
653323625971472384,568628,474348,519656
653323625978910720,568525,474275,519486
653323625986349056,568287,474073,519218
653323625993787392,568028,473907,518967
653323626001225728,567974,473870,518990
653323626008664064,567894,473734,518993
653323626016102400,567711,473736,518810
653323626023540736,567550,473652,518605
653323626030979072,567424,473576,518347
653323626038417408,567184,473496,518220
653323626045855744,566946,473467,518109
653323626053294080,566856,473358,517964
653323626060732416,566876,473204,517768
653323626068170752,566651,473266,517628
653323626075609088,566454,473017,517618
653323626083047424,566315,473028,517469
653323626090485760,566146,472936,517415
653323626097924096,566020,472849,517099
653323626105362432,566073,472781,517035
653323626112800768,565914,472741,516990
653323626120239104,565916,472727,516877
653323626127677440,565787,472615,516765
653323626135115776,565767,472635,516847
653323626142616009,565476,472358,516745
653323626150050704,565509,472594,516845
653323626157485399,565596,472653,516916
653323626164920094,565708,472655,516923
653323626172354789,565609,472656,516825
653323626179789484,565626,472608,516900
653323626187224179,565554,472517,516781
653323626194658874,565571,472569,516721
653323626202093569,565462,472576,516765
653323626209528264,565499,472595,516728
653323626216962959,565456,472500,516686
653323626224397654,565424,472597,516707
653323626231832349,565478,472694,516732
653323626239267044,565417,472606,516599
653323626246701739,565527,472707,516696
653323626254136434,565414,472661,516629
653323626261571129,565572,472646,516750
653323626269005824,565517,472557,516666
653323626276440521,565344,472428,516843
653323626283875216,565290,472519,516725
653323626291309911,565331,472506,516711
653323626298744606,565455,472468,516671
653323626306179301,565452,472655,516771
653323626313613996,565473,472657,516709
653323626321048691,565546,472808,516847
653323626328483386,565581,472773,516845
653323626335918081,565686,472842,516951
653323626343352776,565710,472994,516954
653323626350787471,566049,473058,516692
653323626358222166,565886,472891,516904
653323626365656861,565837,472955,516908
653323626373091556,565901,472901,516942
653323626380526251,565906,473200,517169
653323626387960946,565986,473024,517108
653323626395395641,565915,473078,517215
653323626402830336,566075,473097,517347
653323626410203136,565922,473152,517352
653323626417641472,566151,473147,517412
653323626425079808,566237,473282,517405
653323626432518144,566292,473141,517590
653323626439956480,566471,473310,517676
653323626447394816,566436,473422,517478
653323626454833152,566620,473275,517603
653323626462271488,566608,473402,517841
653323626469709824,566779,473516,517945
653323626477148160,566891,473425,517867
653323626484586496,566956,473567,518077
653323626492024832,567010,473714,518158
653323626499463168,567074,473802,518355
653323626506901504,567354,473956,518402
653323626514339840,567278,473905,518524
653323626521778176,567418,474081,518564
653323626529216512,567425,474041,518633
653323626536654848,567545,474061,518627
653323626544093184,567295,473860,518521
653323626551531520,567598,474036,518683
653323626558969856,567746,474082,518793
653323626566408192,567897,474263,518964
653323626573846528,567963,474241,519083
653323626581284864,567940,474382,519238
653323626588723200,568058,474403,519231
653323626596161536,568178,474415,519390
653323626603599872,568324,474415,519257
653323626611038208,568502,474533,519456
653323626618476544,568626,474691,519599
653323626625914880,568672,474702,519525
653323626633353216,568703,474861,519631
653323626640791552,568961,474893,519778
653323626648229888,569104,474944,519905
653323626655668224,569177,474992,520007
653323626663106560,569242,475024,520006
653323626670544896,569180,475120,520114
653323626678045129,569381,475305,520243
653323626685479824,569375,475251,520324
653323626692914519,569443,475063,520350
653323626700349214,569488,475061,520368
653323626707783909,569504,475144,520434
653323626715218604,569342,475069,520373
653323626722653299,569160,475004,520214
653323626730087994,569015,475021,520230
653323626737522689,568829,475035,519892
653323626744957384,568897,474940,519878
653323626752392079,568775,474743,519715
653323626759826774,568431,474547,519587
653323626767261469,568329,474446,519358
653323626774696164,568209,474352,519182
653323626782130859,568061,474283,518943
653323626789565554,568028,474146,518808
653323626797000249,567764,474115,518753
653323626804434944,567422,473918,518529
653323626811869641,567062,474091,518422
653323626819304336,567032,473830,518142
653323626826739031,566875,473656,518010
653323626834173726,566757,473599,517838
653323626841608421,566594,473504,517603
653323626849043116,566415,473247,517519
653323626856477811,566299,473203,517437
653323626863912506,566154,473030,517269
653323626871347201,566078,473053,517147
653323626878781896,565849,472856,517106
653323626886216591,565830,472901,516884
653323626893651286,565781,472854,516833
653323626901085981,565543,472761,516711
653323626908520676,565548,472824,516611
653323626915955371,565449,472611,516575
653323626923390066,565436,472786,516439
653323626930824761,565371,472683,516467
653323626938259456,565289,472642,516502
653323626945632256,565476,472855,516756
653323626953070592,565263,472538,516551
653323626960508928,565159,472570,516432
653323626967947264,565175,472607,516300
653323626975385600,565140,472529,516256
653323626982823936,565180,472474,516307
653323626990262272,565131,472506,516285
653323626997700608,565099,472478,516350
653323627005138944,565084,472533,516314
653323627012577280,565086,472452,516268
653323627020015616,565041,472394,516273
653323627027453952,565037,472499,516290
653323627034892288,564915,472472,516275
653323627042330624,564958,472591,516147
653323627049768960,564896,472508,516195
653323627057207296,564866,472463,516187
653323627064645632,564928,472473,516237
653323627072083968,564816,472418,516225
653323627079522304,564862,472697,516502
653323627086960640,564841,472639,516363
653323627094398976,564799,472545,516233
653323627101837312,564920,472538,516185
653323627109275648,564884,472517,516208
653323627116713984,564936,472563,516301
653323627124152320,565037,472531,516346
653323627131590656,565083,472559,516319
653323627139028992,565122,472590,516471
653323627146467328,565248,472524,516357
653323627153905664,565183,472674,516370
6.53324E+17,565277,472609,516534
653323627168782336,565342,472736,516561
653323627176220672,565342,472739,516655
653323627183659008,565309,472667,516604
653323627191097344,565457,472771,516765
653323627198535680,565627,472902,516789
653323627205974016,565583,472865,516779
653323627213474249,565881,472741,516492
653323627220908944,565784,472924,516795
653323627228343639,565828,472970,516982
653323627235778334,565786,472926,516858
653323627243213029,565936,473052,517036
653323627250647724,566019,473214,517117
653323627258082419,565994,473323,517255
653323627265517114,566052,473304,517357
653323627272951809,566105,473292,517437
653323627280386504,566278,473453,517584
653323627287821199,566232,473479,517584
653323627295255894,566372,473461,517647
653323627302690589,566457,473453,517654
653323627310125284,566598,473576,517693
653323627317559979,566708,473637,517773
653323627324994674,566639,473604,517919
653323627332429369,566745,473776,517994
653323627339864064,566835,473743,517956
653323627347298761,567141,473670,518313
653323627354733456,567104,473881,518200
653323627362168151,567211,473979,518334
653323627369602846,567248,474017,518446
653323627377037541,567266,473900,518419
653323627384472236,567283,474082,518544
653323627391906931,567364,474055,518479
653323627399341626,567415,474190,518583
653323627406776321,567690,474322,518656
653323627414211016,567720,474338,518719
653323627421645711,567863,474220,518808
653323627429080406,567888,474267,518885
653323627436515101,567910,474278,518952
653323627443949796,568118,474491,519118
653323627451384491,568136,474552,519254
653323627458819186,568206,474659,519290
653323627466253881,568394,474607,519311
653323627473688576,568352,474670,519284
653323627481061376,568345,474520,519187
653323627488499712,568319,474622,519224
653323627495938048,568196,474547,519277
653323627503376384,568142,474475,519194
653323627510814720,568134,474535,519152
653323627518253056,567901,474374,519070
653323627525691392,567754,474232,518878
653323627533129728,567442,474098,518646
653323627540568064,567366,474100,518580
653323627548006400,567276,473984,518396
653323627555444736,567112,473837,518163
653323627562883072,566845,473637,517889
653323627570321408,566650,473558,517787
653323627577759744,566459,473470,517688
653323627585198080,566315,473428,517444
653323627592636416,566094,473225,517330
653323627600074752,565936,473195,517216
653323627607513088,565648,473026,516987
653323627615013321,565363,472980,516944
653323627622448016,565323,472676,516596
653323627629882711,565139,472617,516460
653323627637317406,565011,472418,516240
653323627644752101,564828,472448,516131
653323627652186796,564745,472445,515981
653323627659621491,564516,472307,515876
653323627667056186,564396,472199,515818
653323627674490881,564239,471992,515670
653323627681925576,564069,471970,515653
653323627689360271,563992,471932,515528
653323627696794966,563827,471809,515349
653323627704229661,563807,471807,515214
653323627711664356,563911,471890,515281
653323627719099051,563753,471739,515183
653323627726533746,563734,471696,515074
653323627733968441,563606,471658,515114
653323627741403136,563566,471683,515094
653323627748714056,563707,471852,514804
653323627756156032,563608,471666,514884
653323627763598008,563504,471658,514998
653323627771039984,563543,471680,515055
653323627778481960,563597,471582,514959
653323627785923936,563521,471563,514936
653323627793365912,563391,471632,514937
653323627800807888,563358,471564,514959
653323627808249864,563434,471698,514892
653323627815691840,563274,471547,514931
653323627823133816,563370,471533,514879
653323627830575792,563301,471495,514968
653323627838017768,563355,471489,515016
653323627845459744,563350,471437,514963
653323627852901720,563326,471399,515004
653323627860343696,563367,471529,514976
653323627867785672,563290,471570,515160
653323627875227648,563439,471561,515086
653323627882793417,563541,471260,514951
653323627890228112,563400,471528,515046
653323627897662807,563369,471495,514932
653323627905097502,563409,471564,514938
653323627912532197,563357,471621,515037
653323627919966892,563425,471653,515157
653323627927401587,563476,471797,515242
653323627934836282,563577,471682,515263
653323627942270977,563622,471658,515282
653323627949705672,563606,471710,515300
653323627957140367,563666,471837,515362
653323627964575062,563799,471779,515357
653323627972009757,563934,471889,515490
653323627979444452,563988,471977,515563
653323627986879147,563988,471970,515638
653323627994313842,563991,472005,515645
653323628001748537,564004,472060,515743
653323628009183232,564161,472126,515860
653323628016617929,564449,472294,516186
653323628024052624,564199,472125,516030
653323628031487319,564343,472080,516052
653323628038922014,564533,472229,516264
653323628046356709,564506,472273,516226
653323628053791404,564595,472244,516398
653323628061226099,564783,472367,516557
653323628068660794,564778,472396,516538
653323628076095489,564865,472376,516534
653323628083530184,564970,472478,516696
653323628090964879,565121,472585,516621
653323628098399574,565304,472635,516835
653323628105834269,565423,472801,516929
653323628113268964,565435,472688,516932
653323628120703659,565590,472801,517164
653323628128138354,565728,472895,517304
653323628135573049,565804,472940,517300
653323628143007744,565853,472986,517440
653323628150442441,565771,473201,517302
653323628157877136,565895,473183,517485
653323628165311831,566138,473217,517733
653323628172746526,566335,473277,517858
653323628180181221,566529,473334,518003
653323628187615916,566501,473434,518030
653323628195050611,566590,473563,518156
653323628202485306,566614,473530,518197
653323628209920001,566928,473665,518429
653323628217354696,567063,473737,518486
653323628224789391,567138,473733,518594
653323628232224086,567397,473931,518833
653323628239658781,567345,473852,518908
653323628247093476,567375,473910,519016
653323628254528171,567559,474010,519067
653323628261962866,567447,473921,518943
653323628269397561,567467,473997,519022
653323628276832256,567672,473971,519028
653323628284205056,567586,473620,519069
653323628291643392,567508,473651,519079
653323628299081728,567382,473591,518827
653323628306520064,567261,473595,518695
653323628313958400,567050,473635,518550
653323628321396736,566878,473423,518402
653323628328835072,566738,473317,518360
653323628336273408,566606,473183,518174
653323628343711744,566344,473072,518003
653323628351150080,566289,473000,517881
653323628358588416,566192,472863,517805
653323628366026752,565901,472816,517531
653323628373465088,565756,472768,517406
653323628380903424,565460,472742,517235
653323628388341760,565370,472578,517106
653323628395780096,565170,472296,516950
653323628403218432,565098,472165,516759
653323628410656768,564958,472081,516757
653323628418095104,564626,472088,516586
653323628425533440,564625,472007,516544
653323628432971776,564526,471934,516299
653323628440410112,564371,471813,516289
653323628447848448,564469,471793,516231
653323628455286784,564349,471703,516099
653323628462725120,564225,471618,516101
653323628470163456,564072,471578,515920
653323628477601792,564041,471412,515859
653323628485040128,563902,471378,515818
653323628492478464,563844,471456,515862
653323628499916800,563932,471493,515863
653323628507355136,563905,471464,515852
653323628514793472,563828,471451,515683
653323628522231808,563851,471457,515773
653323628529670144,563862,471416,515715
653323628537108480,563850,471267,515653
653323628544546816,563815,471352,515686
653323628552047049,563668,471490,515885
653323628559481744,563873,471288,515759
653323628566916439,563966,471323,515855
653323628574351134,563928,471285,515701
653323628581785829,563909,471328,515731
653323628589220524,563942,471434,515725
653323628596655219,563794,471256,515835
653323628604089914,563885,471318,515701
653323628611524609,563970,471227,515744
653323628618959304,563986,471180,515873
653323628626393999,563963,471271,515835
653323628633828694,563935,471311,515838
653323628641263389,563981,471373,515902
653323628648698084,564000,471359,515962
653323628656132779,563954,471285,515907
653323628663567474,564122,471245,516040
653323628671002169,563983,471455,516048
653323628678436864,564094,471506,516024
653323628685809664,564159,471290,516129
6.53324E+17,564244,471550,516325
653323628700686336,564415,471533,516385
653323628708124672,564383,471427,516311
653323628715563008,564413,471403,516220
653323628723001344,564482,471395,516334
653323628730439680,564604,471566,516482
653323628737878016,564615,471518,516527
653323628745316352,564583,471702,516607
653323628752754688,564640,471714,516611
653323628760193024,564628,471566,516610
653323628767631360,564813,471678,516687
653323628775069696,564871,471684,516667
653323628782508032,565012,471818,516821
653323628789946368,565157,471826,516817
653323628797384704,565192,471706,516931
653323628804823040,565226,471963,516996
653323628812261376,565324,472097,517115
653323628819637832,565510,472191,516860
653323628827079808,565543,472096,517140
653323628834521784,565573,472136,517196
653323628841963760,565572,472209,517426
653323628849405736,565633,472251,517452
653323628856847712,565721,472242,517623
653323628864289688,565832,472259,517542
653323628871731664,565920,472328,517803
653323628879173640,566058,472402,517889
653323628886615616,566229,472501,517912
653323628894057592,566350,472543,518047
653323628901499568,566383,472587,518162
653323628908941544,566563,472653,518251
653323628916383520,566595,472718,518362
653323628923825496,566613,472636,518396
653323628931267472,566663,472729,518423
653323628938709448,566823,472842,518635
653323628946151424,566852,472837,518725
653323628953655296,567080,473368,518896
653323628961093632,567127,473131,518878
653323628968531968,567219,473213,518923
653323628975970304,567379,473198,519042
653323628983408640,567558,473253,518982
653323628990846976,567571,473344,519092
653323628998285312,567690,473345,519168
653323629005723648,567733,473349,519200
653323629013161984,567771,473333,519235
653323629020600320,567731,473323,519209
653323629028038656,567674,473275,519208
653323629035476992,567572,473218,519019
653323629042915328,567364,473213,518955
653323629050353664,567322,472949,518834
6.53324E+17,567201,472959,518817
653323629065230336,566851,472748,518616
653323629072668672,566700,472614,518382
653323629080107008,566605,472461,518261
653323629087669138,566529,472330,518139
653323629095100192,566284,472338,517911
653323629102531246,566070,472199,517863
653323629109962300,565813,472080,517680
653323629117393354,565708,471962,517533
653323629124824408,565456,471721,517295
653323629132255462,565341,471764,517135
653323629139686516,565154,471637,517111
653323629147117570,564905,471638,516777
653323629154548624,564690,471482,516712
653323629161979678,564482,471439,516660
653323629169410732,564488,471237,516552
653323629176841786,564196,471079,516343
653323629184272840,564146,471028,516192
653323629191703894,564090,470902,516068
653323629199134948,563893,470850,515972
653323629206566002,563702,470761,515981
653323629213997056,563702,470826,515898
653323629221242440,563313,470774,515701
653323629228684416,563381,470706,515726
653323629236126392,563448,470519,515594
653323629243568368,563451,470487,515669
653323629251010344,563486,470630,515709
653323629258452320,563411,470544,515693
653323629265894296,563392,470607,515602
653323629273336272,563279,470525,515529
653323629280778248,563265,470519,515399
653323629288220224,563357,470573,515493
653323629295662200,563181,470510,515533
653323629303104176,563254,470444,515562
653323629310546152,563189,470486,515480
653323629317988128,563213,470491,515476
653323629325430104,563121,470459,515486
653323629332872080,563005,470386,515420
653323629340314056,563023,470448,515408
653323629347756032,563021,470511,515496
653323629355259904,562770,470572,515238
653323629362698240,562947,470354,515207
653323629370136576,562920,470337,515274
653323629377574912,562902,470337,515424
653323629385013248,562970,470277,515345
653323629392451584,562991,470317,515489
653323629399889920,562971,470390,515318
653323629407328256,562960,470271,515301
653323629414766592,562939,470336,515330
653323629422204928,562970,470330,515321
653323629429643264,562828,470276,515432
653323629437081600,562989,470442,515249
653323629444519936,563069,470494,515336
653323629451958272,563130,470550,515461
653323629459396608,563034,470397,515501
653323629466834944,563083,470527,515526
653323629474273280,563093,470498,515567
653323629481711616,563141,470564,515514
653323629489273746,563457,470595,515690
653323629496704800,563397,470606,515690
653323629504135854,563464,470507,515656
653323629511566908,563417,470697,515805
653323629518997962,563489,470746,515793
653323629526429016,563542,470831,515875
653323629533860070,563580,470751,515802
653323629541291124,563533,470732,515963
653323629548722178,563631,470806,516010
653323629556153232,563671,470830,516117
653323629563584286,563733,470945,516040
653323629571015340,563691,471053,516143
653323629578446394,563835,471066,516097
653323629585877448,563886,471019,516137
653323629593308502,563987,471140,516260
653323629600739556,564025,471252,516266
653323629608170610,564181,471072,516473
653323629615601664,564128,471217,516478
653323629622847048,563955,471455,516528
653323629630289024,564178,471332,516580
6.53324E+17,564249,471283,516695
653323629645172976,564376,471311,516635
653323629652614952,564363,471408,516741
653323629660056928,564551,471437,516848
653323629667498904,564586,471493,516930
653323629674940880,564615,471574,516947
653323629682382856,564817,471641,517013
653323629689824832,564883,471716,517098
653323629697266808,565045,471844,517315
653323629704708784,564949,471876,517353
653323629712150760,565094,471911,517350
653323629719592736,565174,471881,517490
653323629727034712,565285,472057,517512
653323629734476688,565310,472026,517569
653323629741918664,565363,472002,517563
653323629749360640,565350,471995,517628
653323629756926409,565344,471704,517437
653323629764361104,565255,471719,517508
653323629771795799,565036,471711,517358
653323629779230494,564864,471630,517135
653323629786665189,564727,471509,517069
653323629794099884,564592,471386,516819
653323629801534579,564246,471274,516756
653323629808969274,563971,471131,516478
653323629816403969,563797,471029,516296
653323629823838664,563524,470852,516163
653323629831273359,563335,470538,515797
653323629838708054,563202,470508,515722
653323629846142749,562857,470329,515505
653323629853577444,562668,470074,515291
653323629861012139,562321,470134,515137
653323629868446834,562047,470033,514922
653323629875881529,561799,469963,514772
653323629883316224,561615,469687,514539
653323629890689024,561251,469730,514265
653323629898127360,561166,469505,514190
653323629905565696,560953,469250,513985
653323629913004032,560668,469309,513822
653323629920442368,560612,469122,513700
653323629927880704,560486,468974,513612
653323629935319040,560409,468983,513528
653323629942757376,560128,468905,513345
653323629950195712,559937,468773,513086
653323629957634048,559860,468646,512959
653323629965072384,559885,468602,512993
653323629972510720,559745,468607,512893
653323629979949056,559595,468447,512729
653323629987387392,559509,468540,512748
653323629994825728,559446,468412,512706
653323630002264064,559398,468458,512726
653323630009702400,559405,468406,512806
653323630017140736,559344,468324,512751
653323630024640969,559365,468472,512600
653323630032075664,559396,468425,512652
653323630039510359,559260,468479,512563
653323630046945054,559279,468403,512513
653323630054379749,559072,468419,512544
653323630061814444,559251,468302,512569
653323630069249139,559009,468291,512569
653323630076683834,558894,468243,512411
653323630084118529,558976,468249,512433
653323630091553224,558963,468359,512410
653323630098987919,558907,468255,512286
653323630106422614,558992,468397,512457
653323630113857309,558823,468240,512360
653323630121292004,558843,468123,512302
653323630128726699,558800,468174,512165
653323630136161394,558843,468117,512248
653323630143596089,558877,468202,512361
653323630151030784,558784,468212,512335
653323630158465481,558521,467974,512088
653323630165900176,558726,468181,512189
653323630173334871,558764,468210,512447
653323630180769566,558939,468275,512473
653323630188204261,558929,468385,512326
653323630195638956,558852,468325,512422
653323630203073651,558973,468212,512410
653323630210508346,558995,468331,512388
653323630217943041,558914,468300,512430
653323630225377736,558956,468271,512481
653323630232812431,559096,468392,512532
653323630240247126,559112,468396,512538
653323630247681821,559259,468426,512719
653323630255116516,559204,468453,512707
653323630262551211,559262,468450,512828
653323630269985906,559311,468544,512874
653323630277420601,559238,468773,512932
653323630284855296,559437,468779,513080
653323630292166216,559787,469116,513344
653323630299608192,559810,468974,513284
653323630307050168,559761,468860,513293
653323630314492144,559679,468906,513214
653323630321934120,559875,469022,513282
653323630329376096,559835,469002,513422
653323630336818072,560072,469168,513484
653323630344260048,560071,469086,513522
653323630351702024,560179,469193,513610
6.53324E+17,560084,469242,513726
653323630366585976,560294,469029,513895
653323630374027952,560273,469271,513983
653323630381469928,560397,469345,513892
653323630388911904,560401,469278,514018
653323630396353880,560466,469412,514114
653323630403795856,560674,469414,514264
653323630411237832,560759,469529,514350
653323630418679808,560749,469700,514247
653323630426183680,560730,469827,514674
653323630433622016,560876,469781,514613
653323630441060352,561034,469789,514629
653323630448498688,561195,469835,514686
653323630455937024,561211,469884,514720
653323630463375360,561402,470015,514852
653323630470813696,561663,470065,514994
653323630478252032,561627,470117,515033
653323630485690368,561714,470106,515118
653323630493128704,561684,470127,515205
653323630500567040,561775,470078,515097
653323630508005376,561610,470081,515023
653323630515443712,561606,470024,515106
653323630522882048,561459,470038,514896
653323630530320384,561340,469942,514874
653323630537758720,561165,469715,514660
653323630545197056,560933,469670,514463
653323630552635392,560732,469514,514363
653323630560073728,560767,469655,513939
653323630567512064,560401,469357,513907
653323630574950400,560016,469141,513629
653323630582388736,559835,468973,513533
653323630589827072,559568,468822,513421
653323630597265408,559382,468664,513183
653323630604703744,559183,468549,512956
653323630612142080,558779,468473,512802
653323630619580416,558680,468348,512633
653323630627018752,558521,468199,512452
653323630634457088,558230,468165,512261
653323630641895424,558034,467967,512170
653323630649333760,557847,467870,512019
653323630656772096,557569,467749,511762
653323630664210432,557417,467687,511582
653323630671648768,557363,467587,511551
653323630679087104,557234,467407,511338
653323630686525440,556982,467260,511216
653323630694025673,556487,467132,511252
653323630701460368,556613,467064,511062
653323630708895063,556459,467015,510911
653323630716329758,556461,466974,510750
653323630723764453,556426,466976,510729
653323630731199148,556184,466963,510597
653323630738633843,556211,466976,510453
653323630746068538,556072,466795,510476
653323630753503233,556047,466728,510374
653323630760937928,556060,466702,510512
653323630768372623,556032,466950,510453
653323630775807318,556018,466876,510413
653323630783242013,555961,466916,510448
653323630790676708,555982,466735,510356
653323630798111403,556040,466749,510407
653323630805546098,555813,466674,510244
653323630812980793,556009,466737,510224
653323630820415488,555893,466781,510271
653323630827788288,555544,466697,510354
653323630835226624,555683,466733,510403
653323630842664960,555665,466822,510358
653323630850103296,555777,466594,510242
653323630857541632,555767,466700,510219
653323630864979968,555728,466684,510194
653323630872418304,555695,466772,510247
653323630879856640,555749,466780,510222
653323630887294976,555777,466591,510297
653323630894733312,555903,466768,510352
653323630902171648,555911,466818,510299
653323630909609984,555859,466775,510182
653323630917048320,555931,466830,510252
653323630924486656,555949,466771,510400
653323630931924992,556046,466802,510443
653323630939363328,556045,466932,510455
653323630946801664,555870,466964,510587
6.53324E+17,555898,466974,510569
653323630961678336,556213,467019,510802
653323630969116672,556262,467061,510788
653323630976555008,556245,467133,510853
653323630983993344,556336,467188,510811
653323630991431680,556359,467174,510765
653323630998870016,556447,467206,510951
653323631006308352,556319,467248,511024
653323631013746688,556364,467210,510965
653323631021185024,556530,467248,511042
653323631028623360,556740,467331,511205
653323631036061696,556712,467346,511283
653323631043500032,556679,467389,511336
653323631050938368,556828,467487,511404
653323631058376704,557019,467595,511450
653323631065815040,556989,467606,511501
653323631073253376,557113,467718,511494
653323631080691712,557223,467729,511523
653323631088130048,557183,467799,511609
653323631095630281,557214,467910,511955
653323631103064976,557433,467954,511970
653323631110499671,557506,467884,511967
653323631117934366,557585,468018,512107
653323631125369061,557754,468075,512207
653323631132803756,557936,468130,512196
653323631140238451,557922,468270,512304
653323631147673146,558066,468350,512286
653323631155107841,558155,468373,512386
653323631162542536,558104,468275,512455
653323631169977231,558277,468371,512533
653323631177411926,558429,468463,512581
653323631184846621,558512,468371,512867
653323631192281316,558545,468659,512843
653323631199716011,558675,468669,512869
653323631207150706,558713,468745,513084
653323631214585401,558863,468643,513114
653323631222020096,558954,468728,513162
653323631229392896,558824,468753,513131
653323631236831232,559067,468809,513365
653323631244269568,559243,469070,513508
653323631251707904,559348,469117,513540
653323631259146240,559490,469213,513681
653323631266584576,559650,469159,513826
653323631274022912,559586,469298,513910
653323631281461248,559687,469376,513863
653323631288899584,559759,469274,513969
653323631296337920,559640,469269,513922
653323631303776256,559606,469192,513757
653323631311214592,559507,469141,513710
653323631318652928,559280,469017,513493
653323631326091264,559100,468922,513493
653323631333529600,558800,468712,513202
653323631340967936,558682,468624,513061
653323631348406272,558602,468548,512892
653323631355844608,558217,468412,512649
653323631363282944,557846,468178,512578
653323631370721280,557787,468072,512298
653323631378159616,557497,467963,512189
653323631385597952,557473,468118,511941
653323631393036288,557150,467778,511749
653323631400474624,557010,467776,511602
653323631407912960,556840,467516,511427
653323631415351296,556733,467490,511254
653323631422789632,556457,467454,511076
653323631430227968,556346,467243,510954
653323631437666304,556084,466978,510876
653323631445104640,555990,467041,510715
653323631452542976,555719,466927,510549
653323631459981312,555814,466961,510531
653323631467419648,555575,466789,510289
653323631474857984,555372,466625,510220
653323631482296320,555179,466596,509994
653323631489734656,554993,466369,509807
653323631497234889,554828,466769,510005
653323631504669584,554807,466579,509823
653323631512104279,554757,466478,509715
653323631519538974,554741,466354,509710
653323631526973669,554575,466370,509632
653323631534408364,554657,466425,509611
653323631541843059,554605,466384,509572
653323631549277754,554554,466337,509566
653323631556712449,554508,466397,509494
653323631564147144,554482,466346,509576
653323631571581839,554498,466428,509567
653323631579016534,554525,466428,509537
653323631586451229,554482,466383,509458
653323631593885924,554539,466427,509554
653323631601320619,554504,466378,509577
653323631608755314,554419,466407,509484
653323631616190009,554438,466418,509351
653323631623624704,554402,466530,509492
653323631630997504,554521,466543,509646
653323631638435840,554537,466460,509573
653323631645874176,554478,466443,509518
653323631653312512,554490,466392,509443
653323631660750848,554465,466486,509445
653323631668189184,554480,466440,509566
653323631675627520,554544,466541,509456
653323631683065856,554508,466433,509459
653323631690504192,554488,466421,509406
653323631697942528,554508,466509,509438
653323631705380864,554482,466454,509462
653323631712819200,554651,466620,509557
653323631720257536,554697,466519,509575
653323631727695872,554726,466674,509704
653323631735134208,554746,466558,509646
653323631742572544,554766,466765,509819
653323631750010880,554911,466799,509846
653323631757449216,554972,466803,509924
653323631764949449,554997,466767,509539
653323631772384144,554986,466848,509875
653323631779818839,555173,466806,509909
653323631787253534,555191,466970,510097
653323631794688229,555404,467045,510243
653323631802122924,555353,467062,510333
653323631809557619,555394,467072,510402
653323631816992314,555538,467257,510438
653323631824427009,555693,467343,510482
653323631831861704,555700,467257,510588
653323631839296399,555858,467353,510615
653323631846731094,555850,467384,510707
653323631854165789,555874,467386,510600
653323631861600484,555977,467406,510714
653323631869035179,556070,467437,510701
653323631876469874,556225,467448,510961
653323631883904569,556309,467658,511068
653323631891339264,556384,467693,511209
653323631898712064,556588,467636,511059
653323631906150400,556621,467743,511261
653323631913588736,556827,467788,511216
653323631921027072,556932,467793,511534
653323631928465408,556955,467927,511395
653323631935903744,557132,467997,511520
653323631943342080,557233,468275,511722
653323631950780416,557250,468266,511783
653323631958218752,557374,468247,511933
653323631965657088,557308,468333,512094
653323631973095424,557455,468503,512171
653323631980533760,557706,468530,512364
653323631987972096,557839,468651,512455
653323631995410432,557910,468629,512491
653323632002848768,558007,468664,512611
653323632010287104,558168,468810,512746
653323632017725440,558221,468958,512831
653323632025163776,558347,468822,512831
653323632032602112,558672,469089,513135
653323632040040448,558652,469120,513179
653323632047478784,558741,469136,513217
653323632054917120,558757,469212,513399
653323632062355456,558834,469189,513418
653323632069793792,559012,469343,513485
653323632077232128,559047,469449,513551
653323632084670464,559250,469582,513674
653323632092108800,559391,469522,513752
653323632099547136,559466,469503,513878
653323632106985472,559552,469677,513914
653323632114423808,559506,469667,513827
653323632121862144,559476,469538,513778
653323632129300480,559424,469588,513797
653323632136738816,559313,469478,513703
653323632144177152,559090,469329,513570
653323632151615488,559063,469273,513486
653323632159053824,558816,469103,513351
653323632166554057,558687,468980,513266
653323632173988752,558534,468847,513134
653323632181423447,558299,468721,512843
653323632188858142,558121,468589,512678
653323632196292837,557902,468560,512494
653323632203727532,557821,468452,512371
653323632211162227,557680,468401,512207
653323632218596922,557475,468312,512057
653323632226031617,557225,468349,511881
653323632233466312,557028,468221,511773
653323632240901007,556879,468160,511637
653323632248335702,556684,468027,511562
653323632255770397,556503,467891,511424
653323632263205092,556371,467830,511204
653323632270639787,556206,467751,511108
653323632278074482,556188,467689,510877
653323632285509177,556056,467536,510771
653323632292943872,555823,467402,510756
653323632300316672,555619,467197,510604
653323632307755008,555642,467278,510506
653323632315193344,555517,467315,510463
653323632322631680,555466,467137,510293
653323632330070016,555389,467121,510267
653323632337508352,555327,467124,510222
653323632344946688,555125,467188,510363
653323632352385024,555482,467236,510452
653323632359823360,555394,467365,510370
653323632367261696,555299,467285,510325
653323632374700032,555309,467305,510219
653323632382138368,555355,467321,510159
653323632389576704,555367,467292,510224
653323632397015040,555416,467275,510070
653323632404453376,555311,467284,510170
653323632411891712,555224,467259,510224
653323632419330048,555292,467299,510306
653323632426768384,555422,467261,510280
653323632434206720,555215,467525,510533
653323632441645056,555310,467156,510552
653323632449083392,555414,467315,510291
653323632456521728,555428,467416,510351
653323632463960064,555362,467440,510366
653323632471398400,555344,467336,510408
653323632478836736,555314,467277,510517
653323632486275072,555423,467414,510575
653323632493713408,555335,467377,510413
653323632501151744,555521,467459,510468
653323632508590080,555583,467555,510647
653323632516028416,555687,467614,510685
653323632523466752,555737,467608,510773
653323632530905088,555882,467700,510769
653323632538343424,555937,467728,510749
653323632545781760,556089,467735,510922
653323632553220096,556133,467828,511041
653323632560658432,556188,467824,510982
653323632568158665,556431,468134,511269
653323632575593360,556252,468063,511275
653323632583028055,556417,468107,511442
653323632590462750,556561,468094,511463
653323632597897445,556661,468154,511510
653323632605332140,556701,468156,511540
653323632612766835,556784,468222,511639
653323632620201530,556896,468366,511789
653323632627636225,557002,468353,511790
653323632635070920,557031,468257,511920
653323632642505615,557257,468376,512053
653323632649940310,557320,468514,512118
653323632657375005,557407,468498,512189
653323632664809700,557532,468596,512281
653323632672244395,557734,468715,512484
653323632679679090,557833,468884,512499
653323632687113785,557904,468916,512521
653323632694548480,558027,468964,512683
653323632701921280,558444,469056,512626
653323632709359616,558506,469057,512887
653323632716797952,558558,469182,512986
653323632724236288,558708,469342,513180
653323632731674624,558706,469323,513269
653323632739112960,558868,469338,513330
653323632746551296,559020,469464,513516
653323632753989632,559082,469514,513532
653323632761427968,559228,469550,513649
653323632768866304,559377,469550,513830
653323632776304640,559446,469683,513800
653323632783742976,559518,469728,513875
653323632791181312,559690,469836,514038
653323632798619648,559849,469887,514142
653323632806057984,559933,469961,514263
653323632813496320,559934,469962,514270
653323632820934656,560132,470149,514531
653323632828372992,560237,470203,514567
653323632835811328,560544,470146,514772
653323632843249664,560635,470392,514943
6.53324E+17,560734,470317,514883
653323632858126336,560921,470470,515055
653323632865564672,560931,470462,515123
653323632873003008,561055,470679,515295
653323632880441344,561270,470756,515413
653323632887879680,561426,470739,515492
653323632895318016,561631,470939,515726
653323632902756352,561667,471042,515822
653323632910194688,561786,471054,515995
653323632917633024,561920,471126,516058
653323632925071360,561963,471136,516120
653323632932509696,562232,471186,516233
653323632939948032,562388,471287,516406
653323632947386368,562376,471341,516461
653323632954824704,562438,471343,516538
653323632962263040,562364,471311,516540
653323632969763273,562638,471596,516406
653323632977197968,562412,471428,516511
653323632984632663,562352,471287,516485
653323632992067358,562248,471226,516280
653323632999502053,562194,471064,516090
653323633006936748,562029,470998,516035
653323633014371443,561859,470979,515828
653323633021806138,561642,470990,515792
653323633029240833,561421,470819,515677
653323633036675528,561324,470629,515455
653323633044110223,561279,470486,515290
653323633051544918,561020,470434,515191
653323633058979613,560863,470362,515131
653323633066414308,560666,470294,514958
653323633073849003,560389,470247,514785
653323633081283698,560419,470204,514698
653323633088718393,560244,470120,514575
653323633096153088,560104,469926,514393
653323633103587785,560034,469698,514164
653323633111022480,559905,469694,514085
653323633118457175,559898,469776,514081
653323633125891870,559724,469738,514008
653323633133326565,559513,469703,513963
653323633140761260,559451,469663,513862
653323633148195955,559283,469657,513718
653323633155630650,559139,469663,513559
653323633163065345,559139,469621,513647
653323633170500040,559098,469535,513595
653323633177934735,559054,469347,513501
653323633185369430,558989,469416,513236
653323633192804125,559012,469397,513414
653323633200238820,559099,469495,513474
653323633207673515,559138,469417,513435
653323633215108210,559135,469432,513467
653323633222542905,559195,469479,513519
653323633229977600,559164,469477,513458
653323633237350400,559217,469298,513261
653323633244788736,559096,469434,513305
653323633252227072,559077,469461,513381
653323633259665408,558953,469376,513319
653323633267103744,558885,469489,513397
653323633274542080,559089,469479,513518
653323633281980416,559110,469529,513530
653323633289418752,558883,469436,513423
653323633296857088,558973,469617,513493
653323633304295424,558959,469587,513493
653323633311733760,559025,469708,513538
653323633319172096,559089,469693,513482
653323633326610432,558998,469630,513453
653323633334048768,559038,469707,513574
653323633341487104,559193,469700,513491
653323633348925440,559148,469707,513574
653323633356363776,559170,469778,513601
653323633363802112,559285,469727,513616
653323633371240448,559505,469995,513769
653323633378678784,559345,469957,513885
653323633386117120,559496,469836,513909
653323633393555456,559382,469818,513737
653323633400993792,559470,469808,513799
653323633408432128,559543,469973,513773
653323633415870464,559667,470040,513812
653323633423308800,559518,469989,513889
653323633430747136,559690,470107,513964
653323633438185472,559770,470112,513945
653323633445623808,559910,470198,514096
653323633453062144,559951,470068,514069
653323633460500480,559899,470214,514169
653323633467938816,560127,470328,514224
653323633475377152,560196,470257,514247
653323633482815488,560138,470387,514415
653323633490253824,560259,470489,514407
653323633497692160,560311,470509,514230
653323633505192393,560623,470777,514532
653323633512627088,560627,470734,514640
653323633520061783,560623,470782,514755
653323633527496478,560598,470721,514824
653323633534931173,560685,470783,514853
653323633542365868,560858,470932,514895
653323633549800563,560779,470946,514897
653323633557235258,561055,470938,515002
653323633564669953,561101,471004,515080
653323633572104648,561128,471069,515120
653323633579539343,561209,471101,515203
653323633586974038,561229,471015,515146
653323633594408733,561350,471156,515287
653323633601843428,561427,471289,515480
