timestamp,ch1,ch2,ch3
653323453953165769,565237,475307,517964
653323453960600464,565314,475287,517927
653323453968035159,565352,475438,518047
653323453975469854,565445,475453,518107
653323453982904549,565563,475491,518197
653323453990339244,565441,475549,518143
653323453997773939,565553,475475,518249
653323454005208634,565457,475554,518484
653323454012643329,565575,475664,518569
653323454020078024,565711,475770,518517
653323454027512719,565795,475781,518602
653323454034947414,565826,475917,518728
653323454042382109,565971,475828,518724
653323454049816804,566015,475881,518858
653323454057251499,566222,475902,518915
653323454064686194,566444,476031,519084
653323454072120889,566477,475994,519098
653323454079555584,566425,476062,519177
653323454086897444,566364,476301,519328
653323454094337600,566629,476223,519399
653323454101777756,566754,476293,519434
653323454109217912,566929,476380,519650
653323454116658068,567006,476397,519733
653323454124098224,567187,476459,519833
653323454131538380,567169,476436,519835
653323454138978536,567410,476436,520042
653323454146418692,567544,476562,520088
653323454153858848,567691,476852,520244
653323454161299004,567764,476685,520222
653323454168739160,567800,476767,520425
653323454176179316,567909,476935,520466
653323454183619472,567946,476851,520374
653323454191059628,567834,476867,520547
653323454198499784,567871,476771,520444
653323454205939940,567832,476785,520409
653323454213380096,567799,476698,520266
653323454220882157,567456,476774,520262
653323454228318672,567356,476512,519935
653323454235755187,567146,476444,519786
653323454243191702,566885,476241,519472
653323454250628217,566596,475987,519235
653323454258064732,566414,475795,519208
653323454265501247,566195,475746,518949
653323454272937762,566004,475596,518880
653323454280374277,565783,475519,518684
653323454287810792,565660,475330,518487
653323454295247307,565322,475287,518192
653323454302683822,565254,475209,518044
653323454310120337,564912,474892,517847
653323454317556852,564748,474889,517780
653323454324993367,564640,474768,517476
653323454332429882,564505,474747,517272
653323454339866397,564158,474515,516952
653323454347302912,563901,474428,516906
653323454354739437,563420,474186,516723
653323454362175952,563490,474128,516552
653323454369612467,563228,474133,516232
653323454377048982,563096,474054,516194
653323454384485497,562992,473996,516050
653323454391922012,562945,473752,515857
653323454399358527,562653,473543,515651
653323454406795042,562533,473606,515649
653323454414231557,562343,473624,515580
653323454421668072,562306,473450,515494
653323454429104587,562305,473506,515319
653323454436541102,562381,473418,515323
653323454443977617,562160,473253,515159
653323454451414132,562107,473327,515165
653323454458850647,561991,473394,515079
653323454466287162,562060,473390,515137
653323454473723677,562025,473335,514965
653323454481160192,561777,473163,514802
653323454488565760,561448,472842,514624
653323454496004096,561547,473047,514694
653323454503442432,561456,473079,514572
653323454510880768,561371,472934,514543
653323454518319104,561392,472949,514483
653323454525757440,561398,473000,514623
653323454533195776,561375,473012,514457
653323454540634112,561390,473110,514494
653323454548072448,561271,473076,514477
653323454555510784,561308,472961,514469
653323454562949120,561369,472913,514443
653323454570387456,561349,472938,514462
653323454577825792,561383,472978,514405
653323454585264128,561186,472895,514418
653323454592702464,561135,472985,514463
653323454600140800,561179,473034,514469
653323454607579136,561180,472996,514508
653323454615017472,561219,473089,514479
653323454622455808,561384,473215,514297
653323454629894144,561392,473200,514456
653323454637332480,561584,473169,514498
653323454644770816,561585,473237,514732
653323454652209152,561637,473161,514602
653323454659647488,561688,473031,514728
653323454667085824,561616,473146,514705
653323454674524160,561766,473332,514995
653323454681962496,561760,473401,514990
653323454689400832,561939,473482,515015
653323454696839168,562083,473504,515187
653323454704277504,562092,473435,515152
653323454711715840,562051,473350,515108
653323454719154176,562087,473465,515166
653323454726592512,562248,473498,515350
653323454734030848,562228,473490,515376
653323454741469184,562384,473686,515481
653323454748907520,562491,473542,515597
653323454756407753,562656,473703,515620
653323454763842448,562742,473659,515740
653323454771277143,562797,473639,515638
653323454778711838,562913,473634,515821
653323454786146533,562986,473887,515862
653323454793581228,562943,473974,515898
653323454801015923,563060,473869,515880
653323454808450618,563252,474017,516130
653323454815885313,563171,473977,516200
653323454823320008,563323,474067,516217
653323454830754703,563423,474159,516254
653323454838189398,563448,474254,516305
653323454845624093,563680,474333,516346
653323454853058788,563782,474383,516523
653323454860493483,563875,474372,516555
653323454867928178,563957,474322,516628
653323454875362873,564048,474498,516763
653323454882797568,564234,474537,516831
653323454890232265,564335,474510,516650
653323454897666960,564419,474661,517004
653323454905101655,564397,474679,517118
653323454912536350,564583,474851,517242
653323454919971045,564677,474955,517273
653323454927405740,564770,474964,517330
653323454934840435,564751,475149,517451
653323454942275130,564786,475152,517527
653323454949709825,564825,475207,517541
653323454957144520,564831,475032,517492
653323454964579215,564875,474990,517502
653323454972013910,564779,475000,517422
653323454979448605,564618,474871,517258
653323454986883300,564506,474805,517213
653323454994317995,564368,474786,517031
653323455001752690,564325,474542,516895
653323455009187385,564261,474376,516589
653323455016622080,563876,474221,516435
653323455023963940,563480,474243,516509
653323455031404096,563440,474103,516128
653323455038844252,563274,473977,515837
653323455046284408,563257,473900,515794
653323455053724564,563091,473838,515613
653323455061164720,562895,473672,515414
653323455068604876,562716,473632,515273
653323455076045032,562560,473536,515131
653323455083485188,562482,473506,515048
653323455090925344,562136,473378,514814
653323455098365500,562076,473219,514639
653323455105805656,561996,473156,514680
653323455113245812,561793,473054,514449
653323455120685968,561711,473061,514345
653323455128126124,561603,473034,514181
653323455135566280,561554,472798,514096
653323455143006436,561323,472774,513948
653323455150446592,561289,472825,513849
653323455157948653,560992,472827,513778
653323455165385168,560973,472626,513670
653323455172821683,560799,472638,513535
653323455180258198,560901,472571,513489
653323455187694713,560831,472583,513410
653323455195131228,560876,472523,513428
653323455202567743,560833,472521,513422
653323455210004258,560844,472522,513368
653323455217440773,560859,472471,513387
653323455224877288,560818,472354,513350
653323455232313803,560922,472339,513351
653323455239750318,560786,472571,513330
653323455247186833,560791,472616,513305
653323455254623348,560671,472694,513331
653323455262059863,560742,472586,513323
653323455269496378,560830,472683,513338
653323455276932893,560813,472519,513388
653323455284369408,560834,472602,513336
653323455291805933,560970,472814,513395
653323455299242448,560993,472679,513475
653323455306678963,560917,472657,513338
653323455314115478,560940,472581,513312
653323455321551993,560786,472688,513493
653323455328988508,560790,472619,513527
653323455336425023,561007,472668,513496
653323455343861538,561098,472721,513612
653323455351298053,561094,472711,513537
653323455358734568,561161,472845,513627
653323455366171083,561128,472913,513583
653323455373607598,561237,472956,513635
653323455381044113,561251,472813,513621
653323455388480628,561343,472787,513701
653323455395917143,561347,472895,513712
653323455403353658,561366,472907,513835
653323455410790173,561486,472893,513936
653323455418226688,561483,472882,513899
653323455425663213,561692,472772,513760
653323455433099728,561633,473047,513947
653323455440536243,561746,473150,514061
653323455447972758,561897,473200,514227
653323455455409273,561964,473218,514227
653323455462845788,561977,473231,514280
653323455470282303,562178,473317,514398
653323455477718818,562141,473400,514347
653323455485155333,562270,473420,514487
653323455492591848,562385,473416,514667
653323455500028363,562324,473417,514625
653323455507464878,562468,473433,514707
653323455514901393,562704,473442,514767
653323455522337908,562642,473652,514858
653323455529774423,562691,473772,514930
653323455537210938,562853,473865,515084
653323455544647453,562883,473846,515094
653323455552083968,563051,473836,515171
653323455559489536,563331,474175,515398
653323455566927872,563308,474157,515477
653323455574366208,563462,474174,515603
653323455581804544,563463,474223,515671
653323455589242880,563640,474166,515739
653323455596681216,563632,474175,515860
653323455604119552,563749,474235,515995
653323455611557888,563976,474341,516155
653323455618996224,563995,474431,516070
653323455626434560,564115,474487,516236
653323455633872896,564219,474713,516270
653323455641311232,564254,474693,516287
653323455648749568,564276,474735,516443
653323455656187904,564370,474790,516501
653323455663626240,564418,474894,516588
653323455671064576,564571,474918,516655
653323455678502912,564700,474923,516798
653323455685941248,564966,474940,517011
653323455693441481,564876,475271,516895
653323455700876176,564970,475163,517032
653323455708310871,565240,475131,517067
653323455715745566,565315,475258,517287
653323455723180261,565314,475241,517207
653323455730614956,565401,475231,517377
653323455738049651,565410,475233,517306
653323455745484346,565408,475300,517420
653323455752919041,565395,475235,517353
653323455760353736,565098,475199,517178
653323455767788431,565004,475097,516960
653323455775223126,564868,475027,516914
653323455782657821,564851,474992,516799
653323455790092516,564658,474927,516652
653323455797527211,564548,474929,516576
653323455804961906,564261,474751,516396
653323455812396601,564084,474696,516267
653323455819831296,563916,474555,516141
653323455827204096,564083,474352,515827
653323455834642432,564013,474283,515642
653323455842080768,563866,474305,515584
653323455849519104,563720,474305,515596
653323455856957440,563502,474246,515477
653323455864395776,563323,474120,515325
653323455871834112,563203,474024,515239
653323455879272448,563051,474022,515101
653323455886710784,563072,473915,514997
653323455894149120,563035,473862,514961
653323455901587456,563070,473845,514821
653323455909025792,562870,473921,514773
653323455916464128,562834,473830,514688
653323455923902464,562702,473684,514555
653323455931340800,562601,473683,514477
653323455938779136,562510,473692,514457
653323455946217472,562545,473593,514411
653323455953655808,562370,473634,514449
653323455961156041,562553,473855,514681
653323455968590736,562503,473697,514494
653323455976025431,562545,473595,514411
653323455983460126,562576,473684,514503
653323455990894821,562683,473622,514329
653323455998329516,562721,473707,514407
653323456005764211,562640,473717,514516
653323456013198906,562726,473764,514584
653323456020633601,562785,473736,514556
653323456028068296,562757,473796,514628
653323456035502991,562708,473718,514628
653323456042937686,562722,473779,514564
653323456050372381,562745,473891,514592
653323456057807076,562742,473816,514545
653323456065241771,562865,473876,514635
653323456072676466,562847,473912,514675
653323456080111161,562820,473921,514690
653323456087545856,562880,473997,514750
653323456094887716,562797,474057,514853
653323456102327872,562878,473972,514882
653323456109768028,563026,474005,514763
653323456117208184,563050,474092,514821
653323456124648340,562977,474118,514761
653323456132088496,563111,474085,514888
653323456139528652,562995,474094,514975
653323456146968808,563179,474161,514952
653323456154408964,563543,474178,515014
653323456161849120,563386,474263,515059
653323456169289276,563341,474324,515070
653323456176729432,563415,474307,515111
653323456184169588,563373,474532,515283
653323456191609744,563717,474539,515345
653323456199049900,563636,474458,515384
653323456206490056,563866,474596,515500
653323456213930212,563945,474475,515460
653323456221370368,563979,474607,515700
653323456228872429,564212,474371,515885
653323456236308944,564248,474611,515940
653323456243745459,564227,474636,515876
653323456251181974,564220,474742,516049
653323456258618489,564388,474791,516095
653323456266055004,564444,474914,516163
653323456273491519,564433,474953,516150
653323456280928034,564529,474911,516234
653323456288364549,564794,474960,516215
653323456295801064,564804,475074,516367
653323456303237579,564948,475101,516519
653323456310674094,564963,475310,516625
653323456318110609,565180,475151,516680
653323456325547124,565351,475198,516767
653323456332983639,565530,475264,516841
653323456340420154,565487,475275,517013
653323456347856669,565442,475359,517040
653323456355293184,565491,475464,516999
653323456362729709,565925,475332,517383
653323456370166224,565954,475519,517416
653323456377602739,565968,475592,517322
653323456385039254,566134,475522,517488
653323456392475769,566241,475799,517543
653323456399912284,566398,475965,517699
653323456407348799,566280,476154,517805
653323456414785314,566369,476082,517906
653323456422221829,566503,476048,518006
653323456429658344,566488,476245,518077
653323456437094859,566694,476165,518211
653323456444531374,566762,476240,518320
653323456451967889,566908,476286,518389
653323456459404404,567045,476355,518465
653323456466840919,567192,476464,518519
653323456474277434,567128,476548,518465
653323456481713949,567222,476564,518623
653323456489150464,567319,476495,518599
653323456496556032,566972,476321,518564
653323456503994368,567109,476342,518560
653323456511432704,567118,476306,518450
653323456518871040,567050,476350,518462
653323456526309376,567072,476309,518295
653323456533747712,566808,476265,518240
653323456541186048,566674,476151,518163
653323456548624384,566523,476174,518104
653323456556062720,566400,476084,518014
653323456563501056,566298,475997,517986
653323456570939392,566125,475862,517780
653323456578377728,566109,475839,517698
653323456585816064,566043,475710,517459
653323456593254400,566077,475732,517439
653323456600692736,565987,475620,517378
653323456608131072,565976,475597,517244
653323456615569408,565775,475598,517084
653323456623007744,565777,475569,517033
653323456630477037,565752,475607,516863
653323456637913552,565667,475610,516939
653323456645350067,565545,475579,516849
653323456652786582,565367,475482,516802
653323456660223097,565307,475423,516739
653323456667659612,565174,475502,516654
653323456675096127,565345,475559,516682
653323456682532642,565253,475545,516537
653323456689969157,565200,475460,516435
653323456697405672,565222,475427,516538
653323456704842187,565166,475416,516528
653323456712278702,565157,475321,516445
653323456719715217,565125,475431,516426
653323456727151732,565174,475553,516461
653323456734588247,565104,475600,516530
653323456742024762,565251,475519,516542
653323456749461277,565321,475608,516585
653323456756897792,565457,475476,516563
653323456764334317,565127,475741,516383
653323456771770832,565310,475580,516531
653323456779207347,565366,475577,516550
653323456786643862,565394,475571,516622
653323456794080377,565447,475594,516629
653323456801516892,565454,475566,516699
653323456808953407,565400,475750,516693
653323456816389922,565460,475692,516867
653323456823826437,565680,475611,516824
653323456831262952,565615,475773,516794
653323456838699467,565659,475686,516895
653323456846135982,565571,475754,516915
653323456853572497,565688,475795,516916
653323456861009012,565614,475807,516917
653323456868445527,565561,475851,517002
653323456875882042,565625,475929,517001
653323456883318557,565819,475893,517039
653323456890755072,565783,475935,517182
653323456898253494,565722,475982,517270
653323456905686368,565894,476081,517378
653323456913119242,566138,476115,517308
653323456920552116,566270,476104,517300
653323456927984990,566261,476069,517343
653323456935417864,566154,476184,517375
653323456942850738,566321,476231,517502
653323456950283612,566492,476178,517509
653323456957716486,566395,476355,517631
653323456965149360,566523,476541,517682
653323456972582234,566643,476404,517693
653323456980015108,566734,476544,517932
653323456987447982,566848,476466,518034
653323456994880856,567047,476598,518102
653323457002313730,567033,476589,518083
653323457009746604,567081,476632,518269
653323457017179478,567183,476804,518451
653323457024612352,567256,476876,518447
653323457031921444,567718,477190,518506
653323457039361600,567568,476993,518465
653323457046801756,567597,476954,518627
653323457054241912,567772,477142,518771
653323457061682068,567698,477156,518888
653323457069122224,567876,477252,518950
653323457076562380,568058,477268,519116
653323457084002536,568158,477217,519293
653323457091442692,568233,477286,519349
653323457098882848,568292,477461,519396
653323457106323004,568251,477580,519542
653323457113763160,568332,477727,519582
653323457121203316,568441,477720,519712
653323457128643472,568565,477776,519741
653323457136083628,568768,477827,519852
653323457143523784,568898,477840,519967
653323457150963940,568821,477878,520050
653323457158404096,569171,478006,520231
653323457165875200,568980,478193,520080
653323457173313536,569232,478253,520297
653323457180751872,569404,478227,520461
653323457188190208,569585,478354,520637
653323457195628544,569772,478287,520707
653323457203066880,569823,478345,520870
653323457210505216,569941,478477,520966
653323457217943552,570044,478321,521027
653323457225381888,570099,478436,521026
653323457232820224,570237,478575,521283
653323457240258560,570211,478760,521299
653323457247696896,570408,478816,521473
653323457255135232,570486,478865,521567
653323457262573568,570560,478961,521646
653323457270011904,570625,478895,521578
653323457277450240,570709,478927,521657
653323457284888576,570632,478969,521632
653323457292326912,570607,478956,521571
653323457299796205,570392,478954,521626
653323457307232720,570311,478866,521459
653323457314669235,570216,478699,521341
653323457322105750,570218,478817,521237
653323457329542265,570115,478620,521134
653323457336978780,569875,478459,521032
653323457344415295,569906,478378,520853
653323457351851810,569747,478341,520793
653323457359288325,569561,478328,520620
653323457366724840,569438,478358,520378
653323457374161355,569489,478354,520457
653323457381597870,569288,478081,520254
653323457389034385,569432,478063,520131
653323457396470900,569138,478044,519912
653323457403907415,569014,477907,519904
653323457411343930,568929,477825,519839
653323457418780445,568752,477736,519608
653323457426216960,568580,477785,519678
653323457433653485,568581,477805,519504
6.53323E+17,568531,477779,519473
653323457448526515,568318,477736,519426
653323457455963030,568240,477730,519321
653323457463399545,568338,477737,519360
653323457470836060,568172,477597,519299
653323457478272575,568220,477489,519192
653323457485709090,568083,477519,519115
653323457493145605,567978,477540,519113
653323457500582120,567918,477486,519185
653323457508018635,567896,477507,519051
653323457515455150,567947,477610,518962
653323457522891665,567974,477649,519122
653323457530328180,568063,477487,519077
653323457537764695,567892,477496,519037
653323457545201210,567859,477571,519107
653323457552637725,568002,477528,519041
653323457560074240,568033,477547,519065
653323457567510765,568250,477370,518870
653323457574947280,568145,477428,519031
653323457582383795,568006,477545,519160
653323457589820310,568130,477670,519165
653323457597256825,568109,477641,519149
653323457604693340,568209,477656,519038
653323457612129855,568135,477711,519131
653323457619566370,568042,477750,519213
653323457627002885,568042,477711,519178
653323457634439400,568245,477765,519275
653323457641875915,568226,477685,519145
653323457649312430,568281,477642,519118
653323457656748945,568166,477798,519234
653323457664185460,568159,477887,519363
653323457671621975,568272,477933,519464
653323457679058490,568306,477927,519457
653323457686495005,568429,477842,519476
653323457693931520,568501,477899,519428
653323457701368045,568294,478119,519346
653323457708804560,568329,478005,519516
653323457716241075,568567,478083,519677
653323457723677590,568550,478122,519733
653323457731114105,568764,478094,519769
653323457738550620,568687,478044,519768
653323457745987135,568816,478087,519840
653323457753423650,568972,478063,519886
653323457760860165,569028,478111,519970
653323457768296680,568998,478156,520056
653323457775733195,569082,478222,520105
653323457783169710,569113,478087,520109
653323457790606225,569269,478283,520199
653323457798042740,569230,478452,520380
653323457805479255,569346,478549,520460
653323457812915770,569405,478497,520522
653323457820352285,569468,478566,520457
653323457827788800,569703,478622,520703
653323457835194368,570081,478777,520805
653323457842632704,569955,478792,520913
653323457850071040,569979,478801,521017
653323457857509376,570012,478826,521035
653323457864947712,570031,478898,521050
653323457872386048,570019,479003,521201
653323457879824384,570141,479068,521367
653323457887262720,570289,479173,521519
653323457894701056,570301,479152,521435
653323457902139392,570437,479136,521512
653323457909577728,570655,479281,521636
653323457917016064,570803,479323,521725
653323457924454400,570899,479388,521800
653323457931892736,570986,479427,521964
653323457939331072,570959,479405,521989
653323457946769408,571071,479597,522085
653323457954207744,571143,479597,522169
653323457961646080,571227,479569,522300
653323457969146313,571247,479410,522304
653323457976581008,571338,479672,522483
653323457984015703,571457,479755,522475
653323457991450398,571619,479837,522716
653323457998885093,571691,479902,522719
653323458006319788,571792,479952,522705
653323458013754483,571915,480055,522908
653323458021189178,572100,480146,523095
653323458028623873,572012,480079,523149
653323458036058568,572079,480209,523229
653323458043493263,572268,480297,523188
653323458050927958,572508,480417,523381
653323458058362653,572567,480487,523545
653323458065797348,572779,480450,523669
653323458073232043,572814,480468,523638
653323458080666738,572850,480454,523652
653323458088101433,572847,480391,523653
653323458095536128,572833,480302,523727
653323458102970825,572721,480230,523683
653323458110405520,572540,480204,523508
653323458117840215,572369,480265,523443
653323458125274910,572134,480256,523273
653323458132709605,572078,480184,523143
653323458140144300,571907,480027,522990
653323458147578995,571773,479897,522868
653323458155013690,571702,479850,522775
653323458162448385,571501,479730,522709
653323458169883080,571314,479735,522653
653323458177317775,571151,479697,522415
653323458184752470,571044,479535,522446
653323458192187165,570848,479476,522264
653323458199621860,570767,479450,522151
653323458207056555,570766,479266,522021
653323458214491250,570594,479304,521942
653323458221925945,570488,479247,521742
653323458229360640,570271,479115,521640
653323458236702500,569776,479198,521538
653323458244142656,569774,479099,521422
653323458251582812,569814,478930,521315
653323458259022968,569806,478805,521240
653323458266463124,569652,478746,521146
653323458273903280,569601,478639,521105
653323458281343436,569416,478625,521073
653323458288783592,569319,478625,520880
653323458296223748,569128,478614,520852
653323458303663904,569117,478578,520766
653323458311104060,569034,478495,520795
653323458318544216,569112,478572,520832
653323458325984372,569040,478519,520847
653323458333424528,569191,478508,520804
653323458340864684,569170,478450,520719
653323458348304840,569074,478364,520725
653323458355744996,569051,478304,520606
653323458363185152,568937,478379,520834
653323458370718153,568741,478612,520459
653323458378152848,568941,478625,520411
653323458385587543,568876,478536,520513
653323458393022238,568996,478430,520686
653323458400456933,569112,478526,520700
653323458407891628,568953,478440,520721
653323458415326323,569064,478407,520705
653323458422761018,568963,478401,520580
653323458430195713,568891,478339,520605
653323458437630408,569034,478415,520707
653323458445065103,568935,478426,520553
653323458452499798,569012,478424,520664
653323458459934493,568972,478478,520664
653323458467369188,568964,478451,520755
653323458474803883,568899,478382,520656
653323458482238578,568904,478561,520784
653323458489673273,568905,478470,520859
653323458497107968,569141,478509,520874
653323458504511725,569189,478328,520589
653323458511948240,569184,478401,520869
653323458519384755,569149,478621,520901
653323458526821270,569172,478601,520884
653323458534257785,569174,478519,521052
653323458541694300,569106,478559,521137
653323458549130815,569142,478723,521081
653323458556567330,569314,478829,521203
653323458564003845,569348,478698,521168
653323458571440360,569488,478757,521301
653323458578876875,569580,478901,521347
653323458586313390,569611,478842,521355
653323458593749905,569597,478736,521444
653323458601186420,569651,478927,521622
653323458608622935,569810,479026,521617
653323458616059450,569888,478934,521832
653323458623495965,570020,479098,521881
653323458630932480,569919,479055,521945
653323458638399945,570368,479298,521834
653323458645834640,570167,479327,521881
653323458653269335,570320,479410,522076
653323458660704030,570292,479393,522214
653323458668138725,570386,479422,522198
653323458675573420,570457,479491,522256
653323458683008115,570576,479400,522357
653323458690442810,570610,479495,522406
653323458697877505,570573,479454,522496
653323458705312200,570687,479536,522610
653323458712746895,570780,479690,522734
653323458720181590,570848,479786,522803
653323458727616285,570968,479935,522908
653323458735050980,571068,479952,522918
653323458742485675,571178,480059,523004
653323458749920370,571310,480080,523064
653323458757355065,571359,479968,523218
653323458764789760,571447,479947,523280
653323458772131620,571659,480268,523140
653323458779571776,571611,480150,523286
653323458787011932,571582,480363,523501
653323458794452088,571652,480404,523650
653323458801892244,571753,480423,523628
653323458809332400,571816,480415,523700
653323458816772556,572041,480467,523866
653323458824212712,572130,480626,524145
653323458831652868,572293,480699,524172
653323458839093024,572350,480728,524212
653323458846533180,572349,480930,524355
653323458853973336,572438,480980,524498
653323458861413492,572686,481004,524549
653323458868853648,572774,480997,524685
653323458876293804,572822,480991,524762
653323458883733960,572983,481070,524914
653323458891174116,573098,481080,524994
653323458898614272,573119,481193,525140
653323458906147273,573223,481446,525019
653323458913581968,573301,481357,525225
653323458921016663,573351,481273,525344
653323458928451358,573394,481408,525332
653323458935886053,573326,481333,525259
653323458943320748,573322,481295,525208
653323458950755443,573186,481168,525193
653323458958190138,572965,480993,525002
653323458965624833,572877,481046,524958
653323458973059528,572797,480863,524792
653323458980494223,572679,480745,524677
653323458987928918,572367,480724,524491
653323458995363613,572096,480538,524308
653323459002798308,572073,480467,524188
653323459010233003,571801,480279,524103
653323459017667698,571578,480266,523925
653323459025102393,571329,480061,523712
653323459032537088,571392,480138,523632
653323459039909888,571026,479649,523437
653323459047348224,570915,479715,523428
653323459054786560,570789,479558,523150
653323459062224896,570628,479505,523044
653323459069663232,570413,479558,522955
653323459077101568,570394,479426,522875
653323459084539904,570301,479372,522688
653323459091978240,569998,479188,522718
653323459099416576,569849,479119,522456
653323459106854912,569691,479002,522289
653323459114293248,569722,478964,522177
653323459121731584,569541,478798,522170
653323459129169920,569416,478710,521961
653323459136608256,569325,478607,522059
653323459144046592,569199,478604,521950
653323459151484928,569210,478517,522057
653323459158923264,569115,478484,521793
653323459166361600,569085,478393,521630
653323459173830893,569224,478476,521572
653323459181267408,569099,478438,521515
653323459188703923,569029,478338,521637
653323459196140438,569049,478422,521682
653323459203576953,568944,478315,521637
653323459211013468,568898,478362,521767
653323459218449983,568815,478420,521612
653323459225886498,568809,478261,521559
653323459233323013,568858,478364,521540
653323459240759528,568898,478297,521592
653323459248196043,568804,478265,521592
653323459255632558,568738,478296,521560
653323459263069073,568771,478297,521475
653323459270505588,568776,478219,521509
653323459277942103,568815,478246,521507
653323459285378618,568654,478154,521351
653323459292815133,568622,478220,521364
653323459300251648,568448,478215,521460
653323459307688173,568343,477989,521363
653323459315124688,568559,478053,521355
653323459322561203,568584,478122,521416
653323459329997718,568605,478177,521445
653323459337434233,568591,478024,521484
653323459344870748,568724,478035,521561
653323459352307263,568679,478080,521459
653323459359743778,568744,478285,521494
653323459367180293,568832,478171,521554
653323459374616808,568895,478261,521578
653323459382053323,568867,478355,521757
653323459389489838,568967,478198,521695
653323459396926353,568881,478178,521786
653323459404362868,569023,478302,521823
653323459411799383,569111,478420,521803
653323459419235898,569148,478432,521950
653323459426672413,569109,478452,522056
653323459434108928,569124,478440,522048
653323459441545453,569022,478303,522160
653323459448981968,569144,478467,522156
653323459456418483,569418,478484,522088
653323459463854998,569334,478583,522235
653323459471291513,569513,478523,522251
653323459478728028,569694,478597,522382
653323459486164543,569769,478583,522368
653323459493601058,569873,478765,522523
653323459501037573,569827,478954,522608
653323459508474088,569929,478917,522684
653323459515910603,569907,478899,522577
653323459523347118,570068,479058,522641
653323459530783633,570185,479056,522935
653323459538220148,570303,478976,522922
653323459545656663,570400,479037,522961
653323459553093178,570498,479102,523003
653323459560529693,570498,479031,523052
653323459567966208,570630,479187,523219
653323459575402733,570881,478915,523428
653323459582839248,570816,479156,523443
653323459590275763,570775,479212,523541
653323459597712278,570840,479168,523518
653323459605148793,570871,479229,523584
653323459612585308,570966,479286,523537
653323459620021823,571095,479238,523645
653323459627458338,571065,479447,523650
653323459634894853,571194,479504,523816
653323459642331368,571215,479502,524036
653323459649767883,571343,479621,523928
653323459657204398,571447,479568,524003
653323459664640913,571569,479706,523991
653323459672077428,571633,479896,524184
653323459679513943,571606,479949,524297
653323459686950458,571761,479818,524372
653323459694386973,571954,479906,524441
653323459701823488,572044,479957,524578
653323459709260013,572209,479850,524339
653323459716696528,572134,479964,524451
653323459724133043,572205,480023,524578
653323459731569558,572171,480121,524720
653323459739006073,572124,479909,524713
653323459746442588,571997,480048,524792
653323459753879103,572035,479978,524686
653323459761315618,571825,479863,524575
653323459768752133,571582,479829,524422
653323459776188648,571434,479597,524255
653323459783625163,571202,479477,524023
653323459791061678,570955,479327,523819
653323459798498193,570732,479252,523605
653323459805934708,570631,479146,523680
653323459813371223,570459,478853,523450
653323459820807738,570209,478852,523431
653323459828244253,569975,478758,523221
653323459835680768,569830,478750,523060
653323459843179190,569656,478230,522926
653323459850612064,569506,478026,522556
653323459858044938,569209,477968,522424
653323459865477812,569132,477806,522314
653323459872910686,568983,477786,522132
653323459880343560,568906,477753,522084
653323459887776434,568581,477545,521840
653323459895209308,568433,477464,521717
653323459902642182,568279,477463,521613
653323459910075056,568244,477401,521613
653323459917507930,568088,477209,521441
653323459924940804,568139,477226,521327
653323459932373678,567973,477053,521276
653323459939806552,567798,476873,521194
653323459947239426,567774,476898,521195
653323459954672300,567690,476853,521069
653323459962105174,567664,476823,521105
653323459969538048,567644,476830,521046
653323459976847140,567234,476780,520823
653323459984287296,567262,476748,520870
653323459991727452,567369,476794,520964
653323459999167608,567349,476699,520856
653323460006607764,567352,476681,520990
653323460014047920,567281,476612,520962
653323460021488076,567342,476791,520973
653323460028928232,567219,476739,520932
653323460036368388,567218,476690,520770
653323460043808544,567159,476619,520757
653323460051248700,567087,476665,520820
653323460058688856,567024,476464,520669
653323460066129012,567070,476535,520649
653323460073569168,567068,476578,520714
653323460081009324,567121,476576,520716
653323460088449480,567183,476510,520702
653323460095889636,567131,476478,520672
653323460103329792,566988,476309,520588
653323460110862793,567201,476572,520771
653323460118297488,567187,476589,520684
653323460125732183,567035,476445,520650
653323460133166878,567072,476437,520769
653323460140601573,566957,476376,520682
653323460148036268,567138,476487,520757
653323460155470963,567188,476411,520635
653323460162905658,567208,476532,520667
653323460170340353,567261,476455,520928
653323460177775048,567180,476522,520948
653323460185209743,567160,476609,520898
653323460192644438,567367,476675,520959
653323460200079133,567300,476641,520944
653323460207513828,567382,476823,520955
653323460214948523,567441,476784,521105
653323460222383218,567581,476721,521260
653323460229817913,567641,476831,521286
653323460237252608,567766,476771,521403
653323460244625408,567940,477075,521638
653323460252063744,567922,477027,521427
653323460259502080,567909,476910,521414
653323460266940416,568088,476961,521591
653323460274378752,567967,477056,521613
653323460281817088,568067,477048,521673
653323460289255424,568216,477072,521816
653323460296693760,568137,477170,521686
653323460304132096,568386,477314,521740
653323460311570432,568310,477367,521875
653323460319008768,568328,477242,521791
653323460326447104,568383,477343,521914
653323460333885440,568503,477495,521978
653323460341323776,568678,477471,522157
653323460348762112,568797,477530,522292
653323460356200448,568731,477466,522131
653323460363638784,568876,477488,522297
653323460371077120,568929,477597,522393
653323460378546413,569282,477887,522510
653323460385982928,569244,477633,522585
653323460393419443,569317,477781,522701
653323460400855958,569364,477704,522781
653323460408292473,569475,477562,522809
653323460415728988,569607,477844,522939
653323460423165503,569655,477874,522940
653323460430602018,569704,478027,523047
653323460438038533,569780,478142,523191
653323460445475048,569848,478174,523131
653323460452911563,569970,478339,523261
653323460460348078,569982,478172,523291
653323460467784593,570179,478238,523417
653323460475221108,570248,478331,523509
653323460482657623,570292,478337,523580
653323460490094138,570435,478474,523740
653323460497530653,570596,478408,523809
653323460504967168,570753,478576,523883
653323460512372736,570795,478693,524010
653323460519811072,570805,478681,524162
653323460527249408,570981,478729,524118
653323460534687744,571003,478710,524164
653323460542126080,571023,478784,524175
653323460549564416,571025,478635,524127
653323460557002752,570886,478553,524112
653323460564441088,570860,478540,524116
653323460571879424,570707,478454,524112
653323460579317760,570685,478299,523890
653323460586756096,570488,478117,523740
653323460594194432,570345,477958,523585
653323460601632768,569992,477866,523356
653323460609071104,569740,477666,523061
653323460616509440,569518,477513,522956
653323460623947776,569285,477440,522660
653323460631386112,569130,477245,522497
653323460638824448,568877,477173,522221
653323460646324681,568918,476942,522256
653323460653759376,568549,476898,522095
653323460661194071,568257,476802,521854
653323460668628766,568142,476755,521777
653323460676063461,567800,476552,521495
653323460683498156,567656,476389,521405
653323460690932851,567515,476276,521183
653323460698367546,567208,476041,520990
653323460705802241,566937,475960,520873
653323460713236936,566688,475877,520727
653323460720671631,566484,475639,520491
653323460728106326,566407,475627,520258
653323460735541021,566317,475556,520199
653323460742975716,566187,475347,520097
653323460750410411,566073,475281,519971
653323460757845106,565839,475166,519885
653323460765279801,565840,475035,519732
653323460772714496,565794,474854,519623
653323460780087296,565417,474785,519462
653323460787525632,565400,474710,519337
653323460794963968,565368,474675,519312
653323460802402304,565419,474681,519362
653323460809840640,565458,474771,519378
653323460817278976,565439,474784,519377
653323460824717312,565321,474603,519333
653323460832155648,565341,474760,519248
653323460839593984,565314,474631,519188
653323460847032320,565226,474531,519302
653323460854470656,565311,474574,519228
653323460861908992,565139,474625,519233
653323460869347328,565251,474788,519246
653323460876785664,565217,474612,519173
6.53323E+17,565340,474727,519242
653323460891662336,565306,474496,519196
653323460899100672,565161,474612,519187
653323460906539008,565062,474503,519087
653323460914039241,565155,474678,519190
653323460921473936,565150,474668,519157
653323460928908631,565098,474675,519033
653323460936343326,565087,474445,518908
653323460943778021,565105,474511,518975
653323460951212716,565082,474467,518874
653323460958647411,565102,474345,518895
653323460966082106,565176,474465,519043
653323460973516801,565094,474463,519115
653323460980951496,565105,474618,519233
653323460988386191,565131,474679,519140
653323460995820886,565250,474696,519270
653323461003255581,565292,474637,519307
653323461010690276,565299,474656,519250
653323461018124971,565351,474843,519220
653323461025559666,565463,474767,519212
653323461032994361,565650,474836,519354
653323461040429056,565628,474810,519370
653323461047770916,565703,474942,519677
653323461055211072,565711,474868,519650
653323461062651228,565709,474898,519471
653323461070091384,565761,474931,519604
653323461077531540,565782,474943,519718
653323461084971696,565874,475171,519717
653323461092411852,566070,475083,519767
653323461099852008,566126,475113,519856
653323461107292164,566169,475095,519873
653323461114732320,566267,475132,520018
653323461122172476,566349,475142,519923
653323461129612632,566404,475231,520083
653323461137052788,566324,475248,520177
653323461144492944,566510,475469,520271
653323461151933100,566817,475333,520374
653323461159373256,566845,475460,520341
653323461166813412,566809,475441,520316
653323461174253568,566905,475492,520398
653323461181755629,566928,475758,520700
653323461189192144,566981,475864,520812
653323461196628659,567015,475849,520773
653323461204065174,567168,475843,521067
653323461211501689,567330,475873,520938
653323461218938204,567417,475912,520964
653323461226374719,567508,475883,521012
653323461233811234,567529,476013,521043
653323461241247749,567641,476077,521185
653323461248684264,567852,476098,521353
653323461256120779,567967,476105,521400
653323461263557294,568152,476222,521575
653323461270993809,568157,476316,521628
653323461278430324,568136,476343,521720
653323461285866839,568070,476500,521693
653323461293303354,568309,476532,521814
653323461300739869,568552,476458,521952
653323461308176384,568653,476462,522084
653323461315643849,568537,476561,522020
653323461323078544,568750,476750,522237
653323461330513239,568895,476814,522325
653323461337947934,568979,476937,522414
653323461345382629,569046,477103,522524
653323461352817324,569282,477050,522581
653323461360252019,569333,477007,522580
653323461367686714,569104,476925,522524
653323461375121409,569116,476966,522448
653323461382556104,568878,476730,522370
653323461389990799,568779,476624,522244
653323461397425494,568427,476472,522015
653323461404860189,568201,476407,521801
653323461412294884,568075,476319,521666
653323461419729579,567915,476062,521440
653323461427164274,567768,475941,521366
653323461434598969,567417,475730,521184
653323461442033664,567178,475608,520928
653323461449375524,566741,475290,520816
653323461456815680,566706,475193,520615
653323461464255836,566470,475021,520326
653323461471695992,566280,475094,520238
653323461479136148,566163,474901,520009
653323461486576304,565990,474862,519834
653323461494016460,565813,474607,519553
653323461501456616,565566,474555,519439
653323461508896772,565456,474282,519225
653323461516336928,565343,474042,519035
653323461523777084,565106,474034,518921
653323461531217240,564936,473891,518635
653323461538657396,564799,473828,518550
653323461546097552,564604,473685,518424
653323461553537708,564308,473578,518351
653323461560977864,564367,473522,518194
653323461568418020,564333,473395,518132
653323461575858176,563865,473713,517927
653323461583360237,564074,473650,517640
653323461590796752,563962,473328,517621
653323461598233267,563935,473271,517738
653323461605669782,563940,473259,517752
653323461613106297,563811,473185,517729
653323461620542812,563787,473156,517687
653323461627979327,563758,473160,517627
653323461635415842,563727,473143,517568
653323461642852357,563756,473119,517615
653323461650288872,563684,473096,517583
653323461657725387,563683,473083,517630
653323461665161902,563629,473133,517609
653323461672598417,563662,473008,517495
653323461680034932,563622,473036,517529
653323461687471447,563648,473052,517569
653323461694907962,563740,472956,517537
653323461702344477,563724,473032,517510
653323461709780992,563706,473083,517373
653323461717186560,563813,473343,517511
653323461724624896,563661,473225,517432
653323461732063232,563642,473161,517394
653323461739501568,563567,473169,517455
653323461746939904,563583,472972,517405
653323461754378240,563533,473161,517451
653323461761816576,563549,473100,517508
653323461769254912,563629,473082,517497
653323461776693248,563719,473120,517553
653323461784131584,563639,473156,517494
653323461791569920,563568,473217,517457
653323461799008256,563823,473219,517651
653323461806446592,563870,473370,517623
653323461813884928,563908,473417,517716
653323461821323264,563996,473386,517648
653323461828761600,563974,473405,517677
653323461836199936,564062,473362,517721
653323461843638272,564043,473373,517852
653323461851138505,564356,473539,517548
653323461858573200,564390,473498,517873
653323461866007895,564385,473642,517872
653323461873442590,564433,473721,518089
653323461880877285,564515,473581,518064
653323461888311980,564633,473635,518216
653323461895746675,564730,473658,518222
653323461903181370,564652,473647,518263
653323461910616065,564746,473717,518180
653323461918050760,564871,473782,518472
653323461925485455,564978,473763,518447
653323461932920150,565096,473843,518620
653323461940354845,565176,473886,518608
653323461947789540,565337,473942,518690
653323461955224235,565536,474041,518905
653323461962658930,565463,474096,519013
653323461970093625,565472,474229,519059
653323461977528320,565568,474275,519158
653323461984870180,565522,474229,518924
653323461992310336,565755,474434,519181
653323461999750492,565840,474334,519186
653323462007190648,565805,474453,519247
653323462014630804,566106,474589,519400
653323462022070960,566253,474752,519546
653323462029511116,566232,474692,519579
653323462036951272,566421,474816,519701
653323462044391428,566561,474885,519863
653323462051831584,566558,474918,519903
653323462059271740,566681,474989,520090
653323462066711896,566864,474921,520004
653323462074152052,566923,475109,520140
653323462081592208,567114,475047,520310
653323462089032364,567124,475263,520373
653323462096472520,567162,475217,520370
653323462103912676,567367,475418,520463
653323462111352832,567274,475374,520576
653323462118885833,567716,475500,520773
653323462126320528,567730,475524,520777
653323462133755223,567767,475673,520872
653323462141189918,567809,475848,520998
653323462148624613,567945,475713,520975
653323462156059308,568004,475868,521181
653323462163494003,568079,475952,521213
653323462170928698,568121,475927,521310
653323462178363393,568164,475917,521280
653323462185798088,568194,475890,521380
653323462193232783,568084,475860,521272
653323462200667478,567959,475694,521215
653323462208102173,567925,475713,521025
653323462215536868,567758,475412,520784
653323462222971563,567451,475313,520663
653323462230406258,567091,475168,520363
653323462237840953,566983,475014,520191
653323462245275648,566718,474849,520030
653323462252617508,566777,474892,520062
653323462260057664,566487,474647,519652
653323462267497820,566276,474554,519419
653323462274937976,565965,474300,519357
653323462282378132,565662,474074,519158
653323462289818288,565537,474107,518991
653323462297258444,565414,473946,518771
653323462304698600,565275,473817,518611
653323462312138756,565034,473717,518409
653323462319578912,564833,473611,518227
653323462327019068,564756,473535,518027
653323462334459224,564582,473286,518039
653323462341899380,564403,473373,517855
653323462349339536,564335,473337,517745
653323462356779692,564121,473248,517636
653323462364219848,564115,473152,517619
653323462371660004,564223,472934,517455
653323462379100160,563998,472955,517409
653323462386602221,564074,472908,517552
653323462394038736,563729,472883,517191
653323462401475251,563603,472890,517127
653323462408911766,563458,472797,517045
653323462416348281,563497,472806,516878
653323462423784796,563494,472744,516968
653323462431221311,563503,472759,516948
653323462438657826,563511,472658,516818
653323462446094341,563435,472711,516860
653323462453530856,563485,472693,516882
653323462460967371,563552,472615,516791
653323462468403886,563386,472618,516964
653323462475840401,563381,472659,516795
653323462483276916,563566,472594,516824
653323462490713431,563388,472539,516744
653323462498149946,563529,472699,516818
653323462505586461,563472,472736,516827
653323462513022976,563379,472539,516726
653323462520428544,563190,472836,516901
653323462527866880,563298,472750,516828
653323462535305216,563397,472780,516895
653323462542743552,563362,472814,516829
653323462550181888,563424,472836,516927
653323462557620224,563448,472845,516931
653323462565058560,563409,472846,516825
653323462572496896,563498,472756,516831
653323462579935232,563467,472720,516863
653323462587373568,563461,472689,516859
653323462594811904,563667,472769,516942
653323462602250240,563646,472859,516913
653323462609688576,563621,472795,516871
653323462617126912,563628,472818,516887
653323462624565248,563685,472899,516965
653323462632003584,563828,472745,517065
653323462639441920,563922,472757,517144
653323462646880256,564007,472931,517207
653323462654349549,563893,473297,517191
653323462661786064,563947,473151,517336
653323462669222579,563891,473158,517321
653323462676659094,564199,473281,517417
653323462684095609,564138,473287,517448
653323462691532124,564134,473255,517541
653323462698968639,564275,473366,517705
653323462706405154,564370,473353,517669
653323462713841669,564587,473458,517834
653323462721278184,564785,473614,517989
653323462728714699,564753,473616,517940
653323462736151214,564927,473608,518028
653323462743587729,565035,473578,518112
653323462751024244,564966,473604,518220
653323462758460759,565148,473659,518362
653323462765897274,565229,473708,518356
653323462773333789,565298,473690,518389
653323462780770304,565528,473747,518490
653323462788175872,565625,473714,518394
653323462795614208,565566,473877,518575
653323462803052544,565605,473933,518594
653323462810490880,565786,474172,518916
653323462817929216,565977,474168,519028
653323462825367552,566002,474257,518987
653323462832805888,566062,474296,518987
653323462840244224,566158,474435,519127
653323462847682560,566265,474398,519087
653323462855120896,566394,474509,519195
653323462862559232,566512,474696,519278
653323462869997568,566660,474615,519593
653323462877435904,566717,474655,519691
653323462884874240,566766,474786,519826
653323462892312576,566853,474953,519853
653323462899750912,566852,475016,519950
653323462907189248,567031,475112,519979
653323462914627584,567218,475217,520125
653323462922127817,567556,474982,520274
653323462929562512,567645,475287,520348
653323462936997207,567662,475307,520415
653323462944431902,567666,475439,520573
653323462951866597,567683,475499,520654
653323462959301292,567868,475609,520735
653323462966735987,568010,475635,520836
653323462974170682,567981,475711,520998
653323462981605377,568040,475835,520984
653323462989040072,568135,475897,520941
653323462996474767,568157,475798,520975
653323463003909462,568155,475609,520960
653323463011344157,568005,475598,520802
653323463018778852,567867,475593,520838
653323463026213547,567653,475347,520602
653323463033648242,567426,475325,520470
653323463041082937,567255,475238,520245
653323463048517632,567179,475149,520111
653323463055890432,566901,474479,520356
653323463063328768,566696,474655,519991
653323463070767104,566549,474669,519684
653323463078205440,566425,474470,519469
653323463085643776,566134,474327,519253
653323463093082112,566008,474286,519084
653323463100520448,565756,474103,518890
653323463107958784,565598,473949,518641
653323463115397120,565572,473969,518597
653323463122835456,565236,473810,518338
653323463130273792,565076,473696,518150
653323463137712128,564971,473635,517908
653323463145150464,564876,473549,517991
653323463152588800,564709,473498,517867
653323463160027136,564624,473471,517763
653323463167465472,564571,473274,517644
653323463174903808,564410,473071,517506
653323463182342144,564240,473094,517490
653323463189780480,564242,473173,517068
653323463197218816,564059,473023,517212
653323463204657152,564033,472985,517154
653323463212095488,564027,472836,517017
653323463219533824,563952,472893,517074
653323463226972160,563811,472768,516986
653323463234410496,563868,472871,517024
653323463241848832,563876,472838,517017
653323463249287168,563879,472896,517015
653323463256725504,563861,472912,516978
653323463264163840,563933,473001,517031
653323463271602176,563798,472896,517058
653323463279040512,563750,472870,516835
653323463286478848,563775,472859,516878
653323463293917184,563887,472891,516909
653323463301355520,563857,472833,516965
653323463308793856,563723,472779,516872
653323463316232192,563889,472856,516928
653323463323670528,563925,472928,516922
653323463331108864,563850,472927,516876
653323463338547200,563794,472840,516815
653323463345985536,563664,472710,516845
653323463353423872,563768,472779,516810
653323463360862208,563845,472807,516865
653323463368300544,563699,472793,516835
653323463375738880,563782,472838,516758
653323463383177216,563858,473017,516875
653323463390615552,563822,472864,516949
653323463398053888,563815,472863,517021
653323463405492224,563910,472776,516938
653323463412930560,563961,472824,517102
653323463420368896,564035,472878,517189
653323463427807232,564145,472991,517203
653323463435245568,564202,472961,517217
653323463442683904,564236,473020,517159
653323463450122240,564191,473155,517247
653323463457560576,564640,473411,517347
653323463464998912,564467,473281,517348
653323463472437248,564448,473186,517327
653323463479875584,564574,473188,517352
653323463487313920,564556,473478,517539
653323463494752256,564595,473492,517621
653323463502190592,564675,473522,517662
653323463509628928,564875,473641,517790
653323463517067264,564764,473514,517752
653323463524505600,564875,473626,517909
653323463531943936,565094,473666,518012
653323463539382272,565198,473752,518027
653323463546820608,565298,473578,517987
653323463554258944,565358,473667,518076
653323463561697280,565458,473834,518232
653323463569135616,565511,474024,518415
653323463576573952,565698,474152,518406
653323463584012288,565665,474077,518437
653323463591481581,565877,473932,518861
653323463598918096,565878,474064,518825
653323463606354611,566002,474175,518912
653323463613791126,566278,474300,519003
653323463621227641,566253,474425,518985
653323463628664156,566360,474411,519049
653323463636100671,566340,474409,519121
653323463643537186,566348,474477,519331
653323463650973701,566568,474614,519378
653323463658410216,566660,474604,519439
653323463665846731,566614,474744,519487
653323463673283246,566863,474758,519462
653323463680719761,566884,474927,519644
653323463688156276,567031,474914,519651
653323463695592791,567072,474968,519768
653323463703029306,567304,475190,520037
653323463710465821,567386,475184,520034
653323463717902336,567553,475221,520240
653323463725338861,567377,475283,520048
653323463732775376,567612,475435,520261
653323463740211891,567852,475458,520427
653323463747648406,567944,475542,520611
653323463755084921,568034,475746,520667
653323463762521436,568274,475741,520855
653323463769957951,568351,475756,520904
653323463777394466,568503,475919,521075
653323463784830981,568539,475745,521033
653323463792267496,568513,475780,520984
653323463799704011,568428,475938,520988
653323463807140526,568284,475916,520903
653323463814577041,568323,475711,520876
653323463822013556,568252,475727,520864
653323463829450071,567998,475500,520613
653323463836886586,567832,475346,520416
653323463844323101,567635,475256,520220
653323463851759616,567535,475208,520130
653323463859165184,567416,475262,519991
653323463866603520,567166,474982,519862
653323463874041856,566928,474816,519554
653323463881480192,566806,474578,519492
653323463888918528,566632,474581,519375
653323463896356864,566365,474463,519076
653323463903795200,566325,474406,519077
653323463911233536,566084,474273,518958
653323463918671872,565896,474238,518704
653323463926110208,565862,474192,518561
653323463933548544,565707,474140,518464
653323463940986880,565560,474011,518327
653323463948425216,565618,473982,518309
653323463955863552,565445,473821,518303
653323463963301888,565373,473814,518240
653323463970740224,565208,473746,517984
653323463978178560,565084,473644,517865
653323463985616896,565142,473647,517910
653323463993086189,565233,473603,517883
653323464000522704,565039,473562,517918
653323464007959219,564997,473562,517782
653323464015395734,564794,473377,517740
653323464022832249,564761,473452,517686
653323464030268764,564743,473507,517678
653323464037705279,564676,473504,517638
653323464045141794,564749,473488,517567
653323464052578309,564722,473553,517698
653323464060014824,564776,473529,517705
653323464067451339,564722,473399,517614
653323464074887854,564726,473258,517671
653323464082324369,564759,473323,517703
653323464089760884,564667,473407,517598
653323464097197399,564757,473325,517492
653323464104633914,564754,473382,517483
653323464112070429,564761,473555,517628
653323464119506944,564773,473420,517649
653323464126974409,564757,473462,517355
653323464134409104,564736,473371,517559
653323464141843799,564753,473486,517544
653323464149278494,564893,473592,517655
653323464156713189,564926,473609,517598
653323464164147884,564876,473596,517668
653323464171582579,564826,473533,517670
653323464179017274,564814,473541,517656
653323464186451969,564913,473754,517790
653323464193886664,564925,473679,517849
653323464201321359,564990,473656,517627
653323464208756054,565106,473498,517803
653323464216190749,565017,473478,517783
653323464223625444,565059,473680,517895
653323464231060139,565014,473775,517943
653323464238494834,565198,473826,517966
653323464245929529,565243,473951,518064
653323464253364224,565344,473893,518125
653323464260737024,565583,474055,518527
653323464268175360,565533,473938,518304
653323464275613696,565583,473941,518244
653323464283052032,565679,474062,518416
653323464290490368,565917,474091,518470
653323464297928704,565871,474092,518532
653323464305367040,566026,474161,518598
653323464312805376,566073,474332,518659
653323464320243712,566083,474326,518735
653323464327682048,566182,474337,518794
653323464335120384,566220,474307,518837
653323464342558720,566266,474305,518875
653323464349997056,566256,474411,518914
653323464357435392,566347,474452,519003
653323464364873728,566401,474543,519122
653323464372312064,566418,474551,519138
653323464379750400,566562,474606,519188
653323464387188736,566744,474735,519284
653323464394627072,566857,474946,519408
653323464402065408,567010,474923,519555
653323464409503744,567017,474891,519628
653323464416942080,566943,474918,519606
653323464424380416,567303,475020,519762
653323464431818752,567403,475022,519860
653323464439257088,567365,475112,519909
653323464446695424,567336,475140,519872
653323464454133760,567543,475118,519952
653323464461572096,567569,475252,520170
653323464469010432,567644,475268,520035
653323464476448768,567771,475361,520239
653323464483887104,567788,475466,520404
653323464491325440,567899,475537,520549
653323464498763776,568075,475587,520549
653323464506202112,568242,475697,520720
653323464513640448,568306,475767,520768
653323464521078784,568296,475734,520955
653323464528579017,568679,475763,520939
653323464536013712,568643,475826,521052
653323464543448407,568696,475900,521085
653323464550883102,568698,475848,521103
653323464558317797,568633,475870,521097
653323464565752492,568627,475822,521114
653323464573187187,568509,475880,520994
653323464580621882,568338,475727,520803
653323464588056577,568100,475550,520616
653323464595491272,567900,475466,520446
653323464602925967,567762,475323,520436
653323464610360662,567660,475262,520330
653323464617795357,567559,475045,520127
653323464625230052,567400,474901,519941
653323464632664747,567157,474767,519872
653323464640099442,567028,474684,519629
653323464647534137,566929,474630,519460
653323464654968832,566810,474525,519392
653323464662341632,566178,474629,519067
653323464669779968,566291,474480,519041
653323464677218304,566079,474288,518849
653323464684656640,566063,474218,518794
653323464692094976,565846,474133,518643
653323464699533312,565710,473996,518558
653323464706971648,565638,474083,518490
653323464714409984,565561,474020,518401
653323464721848320,565547,473890,518354
653323464729286656,565365,473916,518198
653323464736724992,565282,473766,518119
653323464744163328,565264,473685,518086
653323464751601664,565130,473658,517918
6.53323E+17,565115,473600,517900
653323464766478336,565098,473667,517932
653323464773916672,564959,473478,517719
653323464781355008,564960,473573,517844
653323464788793344,564970,473537,517798
653323464796293577,565139,473791,517883
653323464803728272,565117,473649,517903
653323464811162967,565112,473689,517881
653323464818597662,564923,473593,517898
653323464826032357,564988,473536,517753
653323464833467052,564946,473492,517739
653323464840901747,564999,473595,517745
653323464848336442,564963,473692,517825
653323464855771137,564772,473591,517804
653323464863205832,564848,473652,517800
653323464870640527,565012,473618,517762
653323464878075222,564992,473610,517753
653323464885509917,564940,473577,517633
653323464892944612,564961,473577,517695
653323464900379307,564819,473615,517666
653323464907814002,564728,473545,517673
653323464915248697,564795,473555,517766
653323464922683392,564804,473600,517812
653323464930025252,564821,473242,517458
653323464937465408,564872,473503,517663
653323464944905564,564910,473542,517683
653323464952345720,564890,473522,517738
653323464959785876,564963,473678,517850
653323464967226032,564982,473762,517849
653323464974666188,565036,473835,517918
653323464982106344,565156,473703,518010
653323464989546500,565199,473796,518065
653323464996986656,565242,473753,518075
653323465004426812,565298,473838,518106
653323465011866968,565314,473878,518230
653323465019307124,565526,474043,518257
653323465026747280,565425,473953,518304
653323465034187436,565560,474051,518308
653323465041627592,565709,473940,518274
653323465049067748,565629,474003,518315
653323465056507904,565604,474108,518297
653323465063979008,565930,474364,518243
653323465071417344,565921,474360,518500
653323465078855680,565940,474386,518578
653323465086294016,565988,474401,518687
653323465093732352,566084,474396,518774
653323465101170688,566086,474419,518842
653323465108609024,566140,474449,518851
653323465116047360,566301,474496,518908
653323465123485696,566414,474604,519118
653323465130924032,566522,474630,519167
653323465138362368,566490,474606,519187
653323465145800704,566554,474709,519291
653323465153239040,566365,474712,519359
653323465160677376,566651,474872,519452
653323465168115712,566733,474898,519471
653323465175554048,566931,474963,519558
653323465182992384,567013,475026,519487
653323465190430720,567114,475093,519755
653323465197930953,567150,474973,519946
653323465205365648,567325,475030,519891
653323465212800343,567413,475300,520039
653323465220235038,567495,475217,519971
653323465227669733,567499,475265,520016
653323465235104428,567652,475341,520270
653323465242539123,567810,475441,520228
653323465249973818,567722,475372,520392
653323465257408513,567881,475524,520421
653323465264843208,567891,475491,520539
653323465272277903,568339,475850,520584
653323465279712598,568372,475922,520774
653323465287147293,568365,475833,520759
653323465294581988,568331,475854,520948
653323465302016683,568246,475944,520903
653323465309451378,568293,475917,520890
653323465316886073,568325,475799,520793
653323465324320768,568355,475726,520688
653323465331693568,567899,475458,520539
653323465339131904,567803,475495,520535
653323465346570240,567654,475338,520329
653323465354008576,567533,475261,520169
653323465361446912,567260,475149,519848
653323465368885248,567127,474913,519672
653323465376323584,566938,474852,519642
653323465383761920,566686,474700,519594
653323465391200256,566552,474648,519235
653323465398638592,566409,474629,518997
653323465406076928,566135,474495,518883
653323465413515264,565954,474334,518783
653323465420953600,565677,474221,518617
653323465428391936,565551,474202,518413
653323465435830272,565459,473981,518236
653323465443268608,565252,473855,518211
653323465450706944,565088,473783,518048
653323465458145280,564998,473686,517884
653323465465583616,565073,473883,517820
653323465473021952,564798,473809,517761
653323465480460288,564684,473601,517615
653323465487898624,564558,473515,517520
653323465495336960,564423,473347,517358
653323465502775296,564202,473280,517204
653323465510213632,564046,473221,517168
653323465517651968,564001,473175,517139
653323465525090304,563934,473149,516980
653323465532528640,563916,473233,516978
653323465539966976,563753,473168,516752
653323465547405312,563787,472943,516735
653323465554843648,563784,473021,516660
653323465562281984,563750,473079,516797
653323465569720320,563738,473078,516792
653323465577158656,563762,473146,516821
653323465584596992,563816,473232,516773
653323465592035328,563773,473041,516737
653323465599473664,563526,472923,516646
6.53323E+17,563610,472921,516625
653323465614350336,563653,472999,516605
653323465621788672,563717,472989,516687
653323465629227008,563704,473017,516614
653323465636665344,563665,473023,516610
653323465644103680,563617,472968,516710
653323465651542016,563504,472994,516554
653323465658980352,563509,473059,516667
653323465666418688,563618,473070,516551
653323465673857024,563715,472931,516633
653323465681295360,563707,472974,516626
653323465688733696,563507,472968,516547
653323465696172032,563405,472950,516506
653323465703610368,563529,473060,516474
653323465711048704,563597,472976,516580
653323465718487040,563652,473014,516624
653323465725925376,563710,472995,516613
653323465733425609,563909,472809,516895
653323465740860304,563737,472940,516842
653323465748294999,563755,473052,516723
653323465755729694,563837,473189,516777
653323465763164389,563891,473137,516826
653323465770599084,563791,473229,516928
653323465778033779,563849,473223,516960
653323465785468474,564013,473222,517022
653323465792903169,564103,473364,517143
653323465800337864,564142,473391,517111
653323465807772559,564177,473307,517172
653323465815207254,564322,473382,517165
653323465822641949,564216,473515,517276
653323465830076644,564311,473561,517271
653323465837511339,564350,473565,517300
653323465844946034,564485,473544,517337
653323465852380729,564509,473511,517476
653323465859815424,564490,473609,517459
653323465867188224,564234,473325,517370
653323465874626560,564482,473496,517491
653323465882064896,564608,473753,517669
653323465889503232,564668,473942,517889
653323465896941568,564862,473734,517839
653323465904379904,564915,473891,517844
653323465911818240,565062,473957,517992
653323465919256576,565095,474076,518032
653323465926694912,565234,474202,518145
653323465934133248,565314,474227,518209
653323465941571584,565378,474264,518248
653323465949009920,565493,474342,518338
653323465956448256,565564,474271,518382
653323465963886592,565579,474288,518566
653323465971324928,565676,474403,518617
653323465978763264,565822,474561,518662
653323465986201600,565884,474456,518689
653323465993639936,566055,474553,518870
653323466001140169,566234,474649,518882
653323466008574864,566315,474664,519008
653323466016009559,566307,474776,519041
653323466023444254,566372,474789,519044
653323466030878949,566504,474817,519172
653323466038313644,566564,474869,519335
653323466045748339,566588,474872,519229
653323466053183034,566750,475113,519575
653323466060617729,566837,475106,519581
653323466068052424,566868,475044,519532
653323466075487119,566779,475039,519356
653323466082921814,566699,475010,519359
653323466090356509,566489,474841,519248
653323466097791204,566313,474787,519079
653323466105225899,566152,474729,519013
653323466112660594,565994,474713,518861
653323466120095289,565864,474502,518654
653323466127529984,565761,474409,518540
653323466134902784,565468,474102,518585
653323466142341120,565307,474042,518259
653323466149779456,565187,473876,518115
653323466157217792,564855,473941,517904
653323466164656128,564893,473723,517734
653323466172094464,564558,473656,517539
653323466179532800,564333,473528,517423
653323466186971136,564189,473470,517198
653323466194409472,563996,473357,517097
653323466201847808,563865,473256,516980
653323466209286144,563640,473105,516882
653323466216724480,563433,473013,516621
653323466224162816,563421,472964,516550
653323466231601152,563276,472909,516392
653323466239039488,563138,472774,516274
653323466246477824,563008,472689,516124
653323466253916160,562891,472795,516102
653323466261354496,562700,472576,515796
653323466268854729,562572,472489,515909
653323466276289424,562399,472347,515708
653323466283724119,562395,472447,515657
653323466291158814,562351,472337,515560
653323466298593509,562290,472418,515606
653323466306028204,562230,472330,515473
653323466313462899,562182,472343,515414
653323466320897594,562260,472369,515316
653323466328332289,562113,472279,515254
653323466335766984,562033,472278,515254
653323466343201679,562023,472229,515185
653323466350636374,562139,472212,515258
653323466358071069,562093,472098,515232
653323466365505764,562155,472225,515258
653323466372940459,562125,472177,515161
653323466380375154,562182,472195,515246
653323466387809849,562014,472239,515240
653323466395244544,562034,472320,515251
653323466402586404,562063,472079,515407
653323466410026560,561895,472228,515372
653323466417466716,561998,472163,515248
653323466424906872,561908,472217,515173
653323466432347028,561821,472296,515326
653323466439787184,561863,472239,515295
653323466447227340,561928,472345,515121
653323466454667496,562022,472313,515196
653323466462107652,562001,472303,515210
653323466469547808,562050,472351,515295
653323466476987964,562050,472245,515255
653323466484428120,562057,472320,515317
653323466491868276,562215,472457,515464
653323466499308432,562213,472327,515395
653323466506748588,562230,472453,515385
653323466514188744,562291,472297,515323
653323466521628900,562294,472469,515452
653323466529069056,562364,472522,515471
653323466536540160,562709,472333,515645
653323466543978496,562709,472465,515694
653323466551416832,562645,472643,515669
653323466558855168,562679,472536,515690
653323466566293504,562678,472679,515715
653323466573731840,562752,472844,515820
653323466581170176,562838,472784,515808
653323466588608512,562862,472777,515839
653323466596046848,562933,472841,515978
653323466603485184,563090,472796,516057
653323466610923520,563171,472856,516203
653323466618361856,563225,472918,516203
653323466625800192,563195,472917,516237
653323466633238528,563318,473045,516418
653323466640676864,563418,473128,516423
653323466648115200,563428,473364,516409
653323466655553536,563433,473310,516555
653323466662991872,563595,473409,516701
653323466670461165,563788,473535,516892
653323466677897680,563698,473324,516743
653323466685334195,563818,473426,516782
653323466692770710,563990,473607,516972
653323466700207225,564058,473614,516981
653323466707643740,564028,473577,517064
653323466715080255,564257,473605,517123
653323466722516770,564302,473583,517361
653323466729953285,564266,473728,517339
653323466737389800,564488,473795,517339
653323466744826315,564534,473951,517399
653323466752262830,564700,474040,517588
653323466759699345,564798,474015,517580
653323466767135860,564890,474159,517649
653323466774572375,565067,474150,517661
653323466782008890,565058,474202,517883
653323466789445405,565169,474296,517970
653323466796881920,565261,474275,518122
653323466804318445,565036,474386,518440
653323466811754960,565357,474424,518413
653323466819191475,565492,474466,518282
653323466826627990,565451,474444,518326
653323466834064505,565618,474509,518383
653323466841501020,565544,474576,518524
653323466848937535,565508,474508,518376
653323466856374050,565581,474568,518367
653323466863810565,565437,474322,518382
653323466871247080,565236,474337,518136
653323466878683595,565054,474305,518026
653323466886120110,565025,474174,517918
653323466893556625,564977,473962,517776
653323466900993140,564721,473836,517473
653323466908429655,564396,473801,517377
653323466915866170,564171,473760,517261
653323466923302685,564045,473640,516988
653323466930739200,563864,473618,516981
653323466938175725,563696,473400,516509
653323466945612240,563499,473228,516473
653323466953048755,563267,473219,516281
653323466960485270,563030,473147,516272
653323466967921785,563002,473060,516252
653323466975358300,562844,473027,515957
653323466982794815,562546,472911,515894
653323466990231330,562400,472781,515706
653323466997667845,562277,472550,515428
653323467005104360,562149,472500,515390
653323467012540875,562038,472518,515222
653323467019977390,561984,472386,515250
653323467027413905,561797,472378,514921
653323467034850420,561799,472279,514793
653323467042286935,561725,472278,514883
653323467049723450,561702,472228,514933
653323467057159965,561515,472273,514767
653323467064596480,561540,472172,514737
653323467072002048,561580,472040,514708
653323467079440384,561476,472071,514711
653323467086878720,561357,472180,514628
653323467094317056,561357,472301,514609
653323467101755392,561356,472246,514615
653323467109193728,561501,472134,514681
653323467116632064,561459,472074,514566
653323467124070400,561460,472092,514562
653323467131508736,561350,472076,514537
653323467138947072,561339,472252,514531
653323467146385408,561357,472293,514544
653323467153823744,561331,472287,514580
653323467161262080,561408,472300,514587
653323467168700416,561417,472242,514523
653323467176138752,561358,472170,514525
653323467183577088,561377,472097,514531
653323467191015424,561471,472141,514533
653323467198453760,561313,472148,514489
653323467205923053,561522,472307,514195
653323467213359568,561439,472231,514415
653323467220796083,561464,472302,514602
653323467228232598,561444,472150,514513
653323467235669113,561448,472156,514588
653323467243105628,561526,472165,514578
653323467250542143,561479,472099,514607
653323467257978658,561509,472095,514519
653323467265415173,561583,472214,514653
653323467272851688,561856,472324,514835
653323467280288203,561813,472431,514793
653323467287724718,561795,472315,514790
653323467295161233,561868,472359,514893
653323467302597748,561840,472454,514847
653323467310034263,561864,472440,514960
653323467317470778,562029,472577,515071
653323467324907293,561962,472621,515084
653323467332343808,562124,472565,515007
653323467339780333,562314,472695,515260
653323467347216848,562295,472803,515211
653323467354653363,562326,472821,515266
653323467362089878,562400,472840,515456
653323467369526393,562434,472912,515549
653323467376962908,562580,472980,515557
653323467384399423,562650,473053,515705
653323467391835938,562591,473044,515641
653323467399272453,562800,473052,515758
653323467406708968,562862,472982,515830
653323467414145483,562831,473133,515945
653323467421581998,562920,473202,515973
653323467429018513,563085,473274,516163
653323467436455028,563162,473344,516166
653323467443891543,563260,473386,516347
653323467451328058,563524,473330,516377
653323467458764573,563537,473436,516392
653323467466201088,563476,473429,516404
653323467473668553,563799,473702,516509
653323467481103248,563819,473712,516704
653323467488537943,564025,473620,516997
653323467495972638,563904,473655,516976
653323467503407333,564023,473857,516930
653323467510842028,564096,473903,517084
653323467518276723,564175,473969,517172
653323467525711418,564202,474072,517193
653323467533146113,564376,474043,517288
653323467540580808,564432,474177,517365
653323467548015503,564594,474172,517426
653323467555450198,564714,474395,517603
653323467562884893,564922,474294,517721
653323467570319588,565093,474320,517839
653323467577754283,565280,474424,517941
653323467585188978,565354,474453,518057
653323467592623673,565355,474628,518229
653323467600058368,565488,474698,518321
653323467607369288,565779,474752,518650
653323467614811264,565817,474902,518570
653323467622253240,565897,474951,518544
653323467629695216,565815,475003,518635
653323467637137192,565930,474945,518637
653323467644579168,565926,474931,518546
653323467652021144,565793,474904,518414
653323467659463120,565643,474875,518421
653323467666905096,565489,474771,518311
653323467674347072,565292,474608,518168
653323467681789048,565113,474588,517930
653323467689231024,565082,474545,517925
6.53323E+17,564886,474397,517723
653323467704114976,564797,474340,517632
653323467711556952,564504,474238,517485
653323467718998928,564305,474181,517323
653323467726440904,564162,474033,517104
653323467733882880,564000,473821,517015
653323467741448649,564063,473992,516945
653323467748883344,563780,473811,516653
653323467756318039,563713,473662,516641
653323467763752734,563588,473535,516443
653323467771187429,563395,473370,516182
653323467778622124,563341,473341,516075
653323467786056819,563171,473264,516058
653323467793491514,562883,473272,515931
653323467800926209,562905,473254,515800
653323467808360904,562789,473218,515791
653323467815795599,562416,473025,515633
653323467823230294,562346,473009,515513
653323467830664989,562381,472953,515592
653323467838099684,562257,472923,515439
653323467845534379,562313,472669,515254
653323467852969074,562093,472662,515265
653323467860403769,562189,472708,515165
653323467867838464,562151,472856,515140
653323467875211264,561921,472520,515058
653323467882649600,562043,472775,515097
653323467890087936,562099,472723,515037
653323467897526272,562138,472704,515089
653323467904964608,562164,472680,514924
653323467912402944,562221,472761,515117
653323467919841280,562167,472819,515212
653323467927279616,562237,472938,515135
653323467934717952,562180,472911,515103
653323467942156288,562194,472868,515142
653323467949594624,562215,472771,515203
653323467957032960,562372,472738,515178
653323467964471296,562104,472780,514960
653323467971909632,562119,472837,515057
653323467979347968,562169,472856,515032
653323467986786304,562218,472844,514993
653323467994224640,562229,472815,515119
653323468001662976,562120,472794,515104
653323468009132269,562128,472892,515248
653323468016568784,562265,472873,515331
653323468024005299,562131,472946,515210
653323468031441814,562202,472925,515207
653323468038878329,562341,473017,515302
653323468046314844,562300,472952,515375
653323468053751359,562431,473035,515464
653323468061187874,562431,473036,515446
653323468068624389,562520,473182,515512
653323468076060904,562561,473098,515419
653323468083497419,562697,473148,515541
653323468090933934,562765,473248,515681
653323468098370449,562943,473220,515783
653323468105806964,562914,473268,515793
653323468113243479,562957,473374,515844
653323468120679994,563057,473487,515962
653323468128116509,563093,473499,515955
653323468135553024,563289,473506,516114
653323468142989549,563196,473520,516010
653323468150426064,563143,473591,516095
653323468157862579,563280,473567,516086
653323468165299094,563423,473670,516322
653323468172735609,563555,473767,516415
653323468180172124,563715,473850,516449
653323468187608639,563780,473776,516465
653323468195045154,563844,473795,516630
653323468202481669,563913,473929,516689
653323468209918184,564004,474041,516708
653323468217354699,564046,474162,516737
653323468224791214,564038,474099,516800
653323468232227729,564397,474252,517018
653323468239664244,564425,474244,517181
653323468247100759,564449,474257,517203
653323468254537274,564647,474220,517328
653323468261973789,564627,474189,517467
653323468269410304,564803,474466,517501
653323468276815872,564749,474718,517505
653323468284254208,564868,474640,517625
653323468291692544,565007,474662,517799
653323468299130880,565110,474800,517859
653323468306569216,565213,474801,517859
653323468314007552,565397,474794,518012
653323468321445888,565357,474915,518077
653323468328884224,565466,474985,518147
653323468336322560,565756,475008,518228
653323468343760896,565822,475083,518304
653323468351199232,565778,475052,518470
653323468358637568,565975,475266,518547
653323468366075904,566022,475264,518653
653323468373514240,566106,475229,518890
653323468380952576,566324,475285,518817
653323468388390912,566374,475430,519024
653323468395829248,566512,475474,519014
653323468403267584,566720,475691,519254
653323468410736877,566721,475490,519550
653323468418173392,566806,475645,519472
653323468425609907,566921,475806,519489
653323468433046422,566990,475780,519533
653323468440482937,566963,475953,519458
653323468447919452,566999,475740,519407
653323468455355967,566910,475712,519410
653323468462792482,566816,475615,519393
653323468470228997,566604,475576,519271
653323468477665512,566528,475508,519169
653323468485102027,566348,475382,518779
653323468492538542,566317,475304,518762
653323468499975057,566110,475133,518713
653323468507411572,566054,475092,518636
653323468514848087,565956,475055,518593
653323468522284602,565801,475066,518393
653323468529721117,565607,474938,518347
653323468537157632,565465,474946,518241
653323468544563200,565417,474616,517939
653323468552001536,565336,474685,517922
653323468559439872,565326,474699,517910
653323468566878208,565044,474627,517754
653323468574316544,564798,474517,517665
653323468581754880,564720,474504,517524
653323468589193216,564656,474411,517390
653323468596631552,564579,474347,517298
653323468604069888,564360,474274,517286
653323468611508224,564177,474271,517220
653323468618946560,564125,474188,517036
653323468626384896,564084,474099,516868
653323468633823232,563976,474077,516722
653323468641261568,563945,474118,516761
653323468648699904,563966,474044,516681
653323468656138240,563842,474085,516580
653323468663576576,563819,474098,516502
653323468671014912,563801,474121,516570
653323468678453248,563967,474169,516610
653323468685891584,563918,474106,516691
653323468693329920,564021,474086,516636
653323468700768256,563991,474060,516666
653323468708206592,563935,474026,516684
653323468715644928,563957,474037,516694
653323468723083264,564023,473993,516746
653323468730521600,564073,474006,516703
653323468737959936,564079,473950,516695
653323468745398272,564110,474166,516756
653323468752836608,563975,474020,516859
653323468760274944,564106,474076,516927
653323468767713280,564021,474001,516823
653323468775151616,564066,474095,516784
653323468782589952,564099,474122,516842
653323468790028288,564023,474076,516880
653323468797466624,564031,474169,516894
653323468804904960,564137,474150,516834
653323468812405193,564232,473934,516672
653323468819839888,564292,473914,516878
653323468827274583,564270,474059,516899
653323468834709278,564343,474047,516894
653323468842143973,564360,474179,516889
653323468849578668,564304,474243,516842
653323468857013363,564330,474295,516999
653323468864448058,564384,474183,517021
653323468871882753,564323,474252,516991
653323468879317448,564565,474352,517182
653323468886752143,564710,474297,517156
653323468894186838,564798,474417,517376
653323468901621533,564700,474469,517439
653323468909056228,564751,474499,517369
653323468916490923,564820,474593,517411
653323468923925618,564948,474555,517462
653323468931360313,565093,474631,517632
653323468938795008,565063,474518,517793
653323468946167808,565400,474845,517882
653323468953606144,565387,474764,517925
653323468961044480,565435,474828,517936
653323468968482816,565414,474801,517988
653323468975921152,565551,474861,518046
653323468983359488,565565,474897,518070
653323468990797824,565685,475089,518166
653323468998236160,565634,475057,518300
653323469005674496,565726,475093,518181
653323469013112832,565841,475045,518200
653323469020551168,565895,475209,518401
653323469027989504,566080,475266,518502
653323469035427840,566082,475148,518572
653323469042866176,566194,475422,518693
653323469050304512,566290,475472,518773
653323469057742848,566506,475448,518884
653323469065181184,566506,475353,518951
653323469072619520,566575,475436,519055
653323469080057856,566918,475703,518832
653323469087496192,566881,475677,518995
653323469094934528,566920,475739,519266
653323469102372864,566914,475774,519458
653323469109811200,566813,475896,519402
653323469117249536,566915,475873,519542
653323469124687872,567098,475862,519559
653323469132126208,567317,476010,519685
653323469139564544,567283,475827,519807
653323469147002880,567438,476073,519915
653323469154441216,567251,476066,519898
653323469161879552,567498,476147,520088
653323469169317888,567708,476246,520100
653323469176756224,567832,476293,520247
653323469184194560,567912,476283,520307
653323469191632896,568122,476405,520412
653323469199071232,568309,476610,520489
653323469206509568,568338,476593,520586
653323469214009801,568686,476738,520668
653323469221444496,568323,476665,520837
653323469228879191,568462,476647,520897
653323469236313886,568477,476680,520959
653323469243748581,568522,476707,520994
653323469251183276,568435,476616,520949
653323469258617971,568485,476582,520769
653323469266052666,568401,476549,520698
653323469273487361,568317,476545,520601
653323469280922056,568105,476425,520466
653323469288356751,568018,476467,520514
653323469295791446,567860,476287,520330
653323469303226141,567916,476097,520248
653323469310660836,567580,475928,520140
653323469318095531,567470,475816,520076
653323469325530226,567421,475705,519848
653323469332964921,567223,475692,519821
653323469340399616,567136,475686,519737
653323469347772416,567134,475702,519575
653323469355210752,566892,475574,519427
653323469362649088,566793,475451,519260
653323469370087424,566590,475307,519174
653323469377525760,566460,475278,519022
653323469384964096,566362,475267,518909
653323469392402432,566317,475219,518785
653323469399840768,566146,475110,518836
653323469407279104,565947,475042,518598
653323469414717440,565989,474963,518530
653323469422155776,565887,474926,518434
653323469429594112,565764,474934,518388
653323469437032448,565667,474834,518261
653323469444470784,565731,474843,518229
653323469451909120,565848,474834,518271
653323469459347456,565712,474887,518327
653323469466785792,565581,474669,518114
653323469474224128,565682,474674,518162
653323469481662464,565837,475023,518267
653323469489100800,565623,474929,518279
653323469496539136,565666,474840,518252
653323469503977472,565529,474786,518164
653323469511415808,565694,474956,518328
653323469518854144,565731,474883,518090
653323469526292480,565797,474898,518126
653323469533730816,565744,474891,518209
653323469541169152,565886,474730,518214
653323469548607488,565917,474826,518292
653323469556045824,565722,474813,518154
653323469563484160,565756,474781,518113
653323469570922496,565691,474835,518120
653323469578360832,565785,474850,518190
653323469585799168,565805,474941,518138
653323469593237504,565807,474853,518273
653323469600675840,565847,474869,518369
653323469608114176,565832,474985,518361
653323469615552512,565805,474676,518359
653323469622990848,565844,474931,518469
653323469630429184,565863,474937,518465
653323469637867520,566048,475044,518390
653323469645305856,566067,475077,518516
653323469652744192,566090,475124,518461
653323469660182528,566075,475049,518438
653323469667620864,566148,475037,518419
653323469675059200,566190,475118,518587
653323469682497536,566160,475215,518746
653323469689935872,566285,475238,518800
653323469697374208,566339,475302,518823
653323469704812544,566469,475319,518820
653323469712250880,566596,475340,518995
653323469719689216,566662,475333,518947
653323469727127552,566582,475293,518874
653323469734565888,566728,475464,519054
653323469742004224,566706,475487,519155
653323469749504457,566529,475437,519457
653323469756939152,566819,475523,519439
653323469764373847,566932,475560,519285
653323469771808542,566984,475528,519331
653323469779243237,567239,475655,519576
653323469786677932,567136,475639,519459
653323469794112627,567283,475606,519481
653323469801547322,567350,475756,519691
653323469808982017,567458,475818,519713
653323469816416712,567493,475808,519806
653323469823851407,567573,475943,519967
653323469831286102,567586,476069,519966
653323469838720797,567852,476157,520031
653323469846155492,567781,476113,520075
653323469853590187,567846,476232,520238
653323469861024882,568008,476333,520296
653323469868459577,568264,476297,520399
653323469875894272,568233,476305,520452
653323469883267072,568090,476419,520147
653323469890705408,568178,476461,520486
653323469898143744,568478,476470,520760
653323469905582080,568524,476625,520811
653323469913020416,568472,476627,520906
653323469920458752,568680,476653,521056
653323469927897088,568708,476599,521084
653323469935335424,568892,476681,521065
653323469942773760,569045,476784,521233
653323469950212096,569064,476802,521385
653323469957650432,569299,476820,521426
653323469965088768,569327,476944,521447
653323469972527104,569412,476971,521607
653323469979965440,569536,477014,521687
653323469987403776,569714,477141,521795
653323469994842112,569711,477054,521916
653323470002280448,569826,477067,521925
653323470009718784,569789,477279,522002
653323470017157120,570012,477273,521847
653323470024595456,570087,477284,522041
653323470032033792,570182,477434,522307
653323470039472128,570256,477580,522407
653323470046910464,570374,477537,522499
653323470054348800,570249,477417,522515
653323470061787136,570267,477541,522460
653323470069225472,570274,477550,522541
653323470076663808,570231,477490,522362
653323470084102144,570068,477461,522295
653323470091540480,570033,477397,522245
653323470098978816,570008,477331,522229
653323470106417152,569769,476999,522017
653323470113855488,569526,477012,521862
653323470121293824,569364,476923,521740
653323470128732160,569265,476822,521516
653323470136170496,569137,476704,521339
653323470143608832,568937,476615,521204
653323470151109065,568612,476322,521063
653323470158543760,568610,476300,520927
653323470165978455,568547,476227,520924
653323470173413150,568241,476167,520753
653323470180847845,568167,476222,520645
653323470188282540,568089,476027,520577
653323470195717235,567896,475960,520485
653323470203151930,567857,475863,520227
653323470210586625,567774,475792,520125
653323470218021320,567623,475663,520119
653323470225456015,567464,475550,519804
653323470232890710,567334,475563,519780
653323470240325405,567232,475437,519540
653323470247760100,566979,475284,519504
653323470255194795,567044,475374,519441
653323470262629490,566972,475322,519359
653323470270064185,566901,475273,519387
653323470277498880,566738,475225,519192
653323470284871680,566497,475395,518999
653323470292310016,566595,475315,519134
653323470299748352,566612,475162,518977
653323470307186688,566664,475110,519067
653323470314625024,566645,475132,519043
653323470322063360,566595,474942,519156
653323470329501696,566772,475130,519187
653323470336940032,566616,475097,518986
653323470344378368,566668,475037,518992
653323470351816704,566611,475068,519036
653323470359255040,566683,475072,519078
653323470366693376,566495,474940,518878
653323470374131712,566614,475012,519083
653323470381570048,566556,474999,519031
653323470389008384,566529,474853,519147
653323470396446720,566589,475006,519229
653323470403885056,566517,474998,518985
653323470411323392,566386,474680,519160
653323470418792685,566431,474614,519141
653323470426229200,566454,474812,519022
653323470433665715,566523,474806,519118
653323470441102230,566427,474929,519086
653323470448538745,566614,474883,519088
653323470455975260,566555,475021,519092
653323470463411775,566643,474918,519072
653323470470848290,566690,474988,519090
653323470478284805,566707,475086,519134
653323470485721320,566677,475014,519201
653323470493157835,566657,474920,519195
653323470500594350,566723,475068,519238
653323470508030865,566853,475098,519270
653323470515467380,566846,475113,519306
653323470522903895,566929,475122,519294
653323470530340410,566899,475156,519455
653323470537776925,567034,475252,519546
653323470545213440,567254,475380,519587
653323470552619008,567476,475059,519394
653323470560057344,567459,475246,519696
653323470567495680,567424,475382,519725
653323470574934016,567458,475402,519784
653323470582372352,567449,475439,519855
653323470589810688,567585,475424,519861
653323470597249024,567602,475497,519892
653323470604687360,567718,475499,519981
653323470612125696,567708,475654,520126
653323470619564032,567852,475678,520222
653323470627002368,567997,475754,520269
653323470634440704,567877,475827,520310
653323470641879040,568005,475840,520372
653323470649317376,568267,475925,520546
653323470656755712,568175,475853,520568
653323470664194048,568246,475881,520523
653323470671632384,568249,475981,520608
653323470679070720,568448,475920,520796
653323470686570953,568645,475909,520925
653323470694005648,568613,475948,520789
653323470701440343,568734,476028,520791
653323470708875038,568765,476051,521061
653323470716309733,568818,476153,521086
653323470723744428,568963,476245,521074
653323470731179123,569137,476249,521269
653323470738613818,569140,476399,521382
653323470746048513,569195,476451,521345
653323470753483208,569302,476488,521434
653323470760917903,569292,476511,521567
653323470768352598,569428,476636,521784
653323470775787293,569397,476763,521779
653323470783221988,569610,476862,521799
653323470790656683,569737,476685,521954
653323470798091378,569825,477046,522075
653323470805526073,569871,477012,522117
653323470812960768,570003,477153,522214
653323470820333568,570183,477199,522527
653323470827771904,570255,477157,522440
653323470835210240,570453,477189,522609
653323470842648576,570533,477328,522758
653323470850086912,570633,477362,522916
653323470857525248,570653,477430,522832
653323470864963584,570683,477503,522874
653323470872401920,570797,477525,522915
653323470879840256,570835,477494,522974
653323470887278592,570764,477611,523037
653323470894716928,570696,477541,522931
653323470902155264,570657,477469,522786
653323470909593600,570638,477352,522772
653323470917031936,570558,477217,522711
653323470924470272,570263,477048,522534
653323470931908608,570113,476933,522292
653323470939346944,569905,476963,522199
653323470946785280,569657,476804,522146
653323470954254573,569836,476740,521638
653323470961691088,569546,476548,521675
653323470969127603,569436,476424,521595
653323470976564118,569164,476317,521511
653323470984000633,568877,476085,521281
653323470991437148,568717,476056,521123
653323470998873663,568543,475880,521059
653323471006310178,568412,475878,520944
653323471013746693,568302,475771,520766
653323471021183208,568143,475465,520565
653323471028619723,568067,475461,520444
653323471036056238,567731,475324,520139
653323471043492753,567734,475336,520107
653323471050929268,567534,475254,519919
653323471058365783,567455,475175,519871
653323471065802298,567356,474996,519778
653323471073238813,567227,474837,519596
653323471080675328,567000,474802,519548
653323471088049956,567112,474909,519128
653323471095490112,566822,474674,519189
653323471102930268,566674,474685,519132
653323471110370424,566748,474618,519169
653323471117810580,566558,474639,519157
653323471125250736,566620,474572,519173
653323471132690892,566620,474556,519099
653323471140131048,566538,474546,519050
653323471147571204,566528,474618,519064
653323471155011360,566441,474596,519089
653323471162451516,566516,474598,519104
653323471169891672,566484,474519,519067
653323471177331828,566571,474548,519071
653323471184771984,566389,474518,519030
653323471192212140,566408,474465,519028
653323471199652296,566449,474440,518960
653323471207092452,566486,474521,518963
653323471214532608,566376,474363,518876
653323471222034669,566639,474686,518969
653323471229471184,566444,474463,518923
653323471236907699,566407,474410,518968
653323471244344214,566313,474273,518746
653323471251780729,566294,474160,518620
653323471259217244,566341,474318,518751
653323471266653759,566261,474243,518820
653323471274090274,566244,474232,518665
653323471281526789,566336,474286,518724
653323471288963304,566342,474253,518730
653323471296399819,566379,474275,518772
653323471303836334,566293,474269,518755
653323471311272849,566373,474452,518809
653323471318709364,566534,474430,518943
653323471326145879,566465,474415,518950
653323471333582394,566484,474450,519022
653323471341018909,566681,474432,519021
653323471348455424,566731,474461,519144
653323471355891949,566818,474564,519010
653323471363328464,566632,474556,519133
653323471370764979,566708,474672,519150
653323471378201494,566770,474675,519261
653323471385638009,566928,474708,519312
653323471393074524,566896,474815,519453
653323471400511039,566978,474781,519527
653323471407947554,567140,474857,519554
653323471415384069,567208,475003,519611
653323471422820584,567234,474900,519668
653323471430257099,567390,475038,519743
653323471437693614,567416,475099,519793
653323471445130129,567432,475048,519818
653323471452566644,567594,475110,519936
653323471460003159,567482,475050,519882
653323471467439674,567538,475234,520113
653323471474876189,567732,475285,520130
653323471482312704,567662,475253,520173
653323471489718272,567931,475606,520260
653323471497156608,567937,475523,520421
653323471504594944,567969,475507,520543
653323471512033280,568073,475454,520452
653323471519471616,568157,475418,520607
653323471526909952,568224,475369,520634
653323471534348288,568317,475475,520548
653323471541786624,568451,475495,520745
653323471549224960,568586,475644,520924
653323471556663296,568650,475770,520949
653323471564101632,568694,475756,521025
653323471571539968,568656,475784,521177
653323471578978304,568727,475740,521181
653323471586416640,568818,475932,521215
653323471593854976,568914,476038,521243
653323471601293312,569091,476039,521350
653323471608731648,569148,476126,521466
653323471616169984,569261,476150,521568
653323471623639277,569225,476420,521926
653323471631075792,569282,476289,521927
653323471638512307,569399,476365,521837
653323471645948822,569502,476580,521793
653323471653385337,569677,476463,521902
653323471660821852,569815,476538,522001
653323471668258367,569764,476668,522127
653323471675694882,569994,476732,522318
653323471683131397,570104,476845,522381
653323471690567912,570168,476886,522411
653323471698004427,570281,476939,522513
653323471705440942,570356,476902,522539
653323471712877457,570477,477005,522729
653323471720313972,570391,476898,522692
653323471727750487,570375,476865,522678
653323471735187002,570187,476808,522599
653323471742623517,570019,476723,522391
653323471750060032,569871,476628,522296
653323471757496557,569546,476426,522403
653323471764933072,569392,476363,522132
653323471772369587,569281,476184,521985
653323471779806102,569107,476011,521687
653323471787242617,568919,475953,521486
653323471794679132,568631,475755,521298
653323471802115647,568522,475567,521023
653323471809552162,568396,475588,521044
653323471816988677,568239,475423,520830
653323471824425192,568125,475248,520619
653323471831861707,567987,475213,520425
653323471839298222,567716,475085,520351
653323471846734737,567486,474874,520204
653323471854171252,567172,474730,519997
653323471861607767,567041,474612,519869
653323471869044282,566834,474613,519602
653323471876480797,566799,474377,519491
653323471883917312,566570,474300,519327
653323471891384777,566173,473878,519229
653323471898819472,566205,474095,519174
653323471906254167,566077,474019,518890
653323471913688862,565810,473755,518575
653323471921123557,565741,473802,518618
653323471928558252,565572,473777,518609
653323471935992947,565458,473543,518447
653323471943427642,565401,473627,518356
653323471950862337,565361,473597,518160
653323471958297032,565323,473467,518095
653323471965731727,565272,473395,518127
653323471973166422,565197,473434,518024
653323471980601117,564985,473470,517966
653323471988035812,565183,473522,517994
653323471995470507,565027,473527,517886
653323472002905202,565085,473441,517896
653323472010339897,565001,473373,518042
653323472017774592,565008,473234,517928
653323472025116452,564752,473427,518139
653323472032556608,564857,473277,518081
653323472039996764,564878,473185,517816
653323472047436920,564819,473106,517853
653323472054877076,564754,473322,517816
653323472062317232,564796,473385,517807
653323472069757388,564761,473212,517876
653323472077197544,564844,473184,517826
653323472084637700,564822,473303,517814
653323472092077856,564796,473070,517720
653323472099518012,564863,473048,517745
653323472106958168,564640,473050,517632
653323472114398324,564726,473124,517560
653323472121838480,564694,473209,517761
653323472129278636,564775,473239,517731
653323472136718792,564744,473296,517755
653323472144158948,564710,473304,517702
653323472151599104,564778,473549,517943
653323472159101165,564802,473766,517878
653323472166537680,564807,473621,517970
653323472173974195,564721,473376,517802
653323472181410710,564758,473316,517905
653323472188847225,564879,473322,517991
653323472196283740,564965,473347,518001
653323472203720255,565128,473384,518008
653323472211156770,565118,473324,518108
653323472218593285,565070,473389,518099
653323472226029800,565065,473543,518056
653323472233466315,565176,473498,518132
653323472240902830,565070,473426,518240
653323472248339345,565222,473461,518200
653323472255775860,565278,473570,518349
653323472263212375,565441,473767,518285
653323472270648890,565496,473811,518433
653323472278085405,565622,473854,518575
653323472285521920,565647,473854,518617
653323472292927488,565471,473977,518351
653323472300365824,565664,474001,518655
653323472307804160,565911,473991,518790
653323472315242496,565835,474024,518904
653323472322680832,565852,473996,518831
653323472330119168,566014,473930,518789
653323472337557504,565937,474030,519061
653323472344995840,566168,474173,519143
653323472352434176,566178,474132,519182
653323472359872512,566297,474238,519292
653323472367310848,566409,474311,519399
653323472374749184,566447,474280,519451
653323472382187520,566496,474374,519573
653323472389625856,566569,474573,519653
653323472397064192,566749,474452,519511
653323472404502528,566758,474539,519606
653323472411940864,566810,474625,519856
653323472419379200,566856,474765,519759
653323472426879433,566996,474893,520043
653323472434314128,567016,474854,520133
653323472441748823,567219,474906,520219
653323472449183518,567193,474896,520261
653323472456618213,567304,474928,520339
653323472464052908,567383,475016,520317
653323472471487603,567425,475056,520399
653323472478922298,567728,475234,520591
653323472486356993,567867,475255,520569
653323472493791688,567988,475434,520698
653323472501226383,568015,475392,520736
653323472508661078,568154,475509,520953
653323472516095773,568161,475519,520984
653323472523530468,568221,475508,521099
653323472530965163,568284,475458,521168
653323472538399858,568329,475552,521255
653323472545834553,568264,475620,521246
653323472553269248,568376,475673,521294
653323472560611108,568186,475679,521162
653323472568051264,568212,475500,521028
653323472575491420,568273,475299,520950
653323472582931576,568019,475259,520863
653323472590371732,567914,475165,520790
653323472597811888,567699,475108,520663
653323472605252044,567550,474930,520515
653323472612692200,567281,474860,520284
653323472620132356,567033,474733,520108
653323472627572512,566825,474663,519960
653323472635012668,566624,474529,519724
653323472642452824,566366,474344,519478
653323472649892980,566080,474236,519231
653323472657333136,565809,474026,519082
653323472664773292,565881,473962,519168
653323472672213448,565610,473778,518842
653323472679653604,565258,473695,518719
653323472687093760,565189,473629,518463
653323472694564864,565221,473692,518481
653323472702003200,564907,473428,518165
653323472709441536,564632,473247,518008
653323472716879872,564589,472994,517940
653323472724318208,564540,473041,517754
653323472731756544,564246,472965,517707
653323472739194880,564043,472748,517510
653323472746633216,563845,472722,517375
653323472754071552,563781,472604,517201
653323472761509888,563612,472628,517167
653323472768948224,563506,472582,517037
653323472776386560,563564,472358,517093
653323472783824896,563412,472243,516893
653323472791263232,563277,472302,516838
653323472798701568,563346,472350,516926
653323472806139904,563297,472367,516717
653323472813578240,563252,472232,516661
653323472821016576,563225,472255,516697
653323472828516809,563391,472113,516912
653323472835951504,563239,472195,516847
653323472843386199,563160,472262,516759
653323472850820894,563183,472224,516695
653323472858255589,563234,472236,516705
653323472865690284,563206,472145,516683
653323472873124979,563141,472079,516664
653323472880559674,563108,472114,516623
653323472887994369,563057,472181,516545
653323472895429064,562995,472131,516536
653323472902863759,563015,472071,516461
653323472910298454,562914,472074,516377
653323472917733149,562829,472287,516482
653323472925167844,562897,472257,516502
653323472932602539,562847,472240,516431
653323472940037234,562792,472081,516414
653323472947471929,562824,472103,516454
653323472954906624,562871,472104,516443
653323472962279424,562810,472136,516117
653323472969717760,562897,472146,516322
653323472977156096,562900,472279,516403
653323472984594432,562958,472270,516596
653323472992032768,563073,472189,516627
653323472999471104,563029,472297,516663
653323473006909440,563094,472362,516732
653323473014347776,563276,472438,516791
653323473021786112,563213,472426,516920
653323473029224448,563172,472625,516902
653323473036662784,563310,472671,516861
653323473044101120,563445,472572,516951
653323473051539456,563676,472584,517074
653323473058977792,563508,472633,517130
653323473066416128,563616,472679,517099
653323473073854464,563664,472725,517139
653323473081292800,563900,472866,517355
653323473088731136,563889,472795,517352
653323473096169472,563802,472915,517294
653323473103607808,563935,472929,517359
653323473111046144,564103,472966,517411
653323473118484480,564137,472931,517535
653323473125922816,564217,472891,517719
653323473133361152,564334,473019,517767
653323473140799488,564348,473041,517837
653323473148237824,564471,473114,517963
653323473155676160,564510,473204,518121
653323473163114496,564686,473420,518140
653323473170552832,564889,473479,518124
653323473177991168,564824,473468,518258
653323473185429504,564856,473469,518247
653323473192867840,565043,473421,518353
653323473200306176,564999,473576,518359
653323473207744512,565259,473634,518610
653323473215182848,565256,473808,518730
653323473222621184,565334,473942,518900
653323473230090477,565550,473693,519181
653323473237526992,565475,473885,519118
653323473244963507,565624,474061,519107
653323473252400022,565974,474041,519129
653323473259836537,566076,474140,519268
653323473267273052,566060,474191,519235
653323473274709567,566035,474243,519320
653323473282146082,566123,474413,519366
653323473289582597,566253,474363,519441
653323473297019112,566372,474563,519682
653323473304455627,566488,474483,519770
653323473311892142,566665,474481,519958
653323473319328657,566793,474619,519986
653323473326765172,566871,474721,520140
653323473334201687,567003,474816,520188
653323473341638202,566977,474800,520223
653323473349074717,567090,474912,520315
653323473356511232,566997,474875,520307
653323473363916800,566817,474725,520130
653323473371355136,566783,474646,520074
653323473378793472,566789,474583,519996
653323473386231808,566586,474535,519865
653323473393670144,566489,474551,519702
653323473401108480,566277,474209,519547
653323473408546816,566124,474149,519555
653323473415985152,565867,473943,519256
653323473423423488,565683,473857,518930
653323473430861824,565451,473704,518802
653323473438300160,565368,473696,518642
653323473445738496,565162,473421,518453
653323473453176832,564882,473350,518356
653323473460615168,564722,473262,518156
653323473468053504,564643,473103,518128
653323473475491840,564333,473001,517748
653323473482930176,564167,472931,517618
653323473490368512,563995,472714,517588
653323473497806848,563865,472615,517157
653323473505245184,563598,472590,517208
653323473512683520,563411,472499,517097
653323473520121856,563434,472389,517025
653323473527560192,563256,472363,516909
653323473534998528,563142,472273,516777
653323473542436864,563032,472156,516638
653323473549875200,562985,472013,516671
653323473557313536,562734,471995,516579
653323473564751872,562777,472039,516449
653323473572190208,562699,471852,516333
653323473579628544,562585,471839,516298
653323473587066880,562620,471872,516385
653323473594505216,562589,471853,516258
653323473601943552,562567,471871,516193
653323473609381888,562491,472017,516177
653323473616820224,562428,472113,516193
653323473624258560,562418,472053,516131
653323473631758793,562209,472292,515912
653323473639193488,562366,472138,516133
653323473646628183,562467,471946,516121
653323473654062878,562425,471865,516144
653323473661497573,562474,471919,516214
653323473668932268,562473,471970,516114
653323473676366963,562500,471960,516262
653323473683801658,562405,471801,516257
653323473691236353,562368,471951,516245
653323473698671048,562332,471898,516121
653323473706105743,562418,471965,516134
653323473713540438,562399,471911,516144
653323473720975133,562459,471847,516132
653323473728409828,562410,471901,516078
653323473735844523,562412,471938,516006
653323473743279218,562372,472002,516090
653323473750713913,562414,471952,516174
653323473758148608,562525,471984,516179
653323473765521408,562598,471962,515914
653323473772959744,562567,472051,516222
653323473780398080,562499,472116,516277
653323473787836416,562588,472073,516372
653323473795274752,562609,472110,516304
653323473802713088,562579,472066,516331
653323473810151424,562672,472141,516488
653323473817589760,562791,472115,516460
653323473825028096,562816,472081,516626
653323473832466432,562846,472179,516658
653323473839904768,562903,472234,516676
653323473847343104,563118,472388,516836
653323473854781440,563147,472263,516765
653323473862219776,563097,472359,516732
653323473869658112,563070,472336,516801
653323473877096448,563235,472518,516902
653323473884534784,563190,472611,516953
653323473891973120,563298,472639,516929
653323473899473353,563725,472389,517322
653323473906908048,563717,472643,517335
653323473914342743,563575,472692,517346
653323473921777438,563642,472731,517288
653323473929212133,563699,472850,517374
653323473936646828,563907,472840,517525
653323473944081523,563913,472902,517446
653323473951516218,563968,472858,517584
653323473958950913,564080,472995,517758
653323473966385608,564155,473087,517841
653323473973820303,564233,473165,517898
653323473981254998,564294,473283,517959
653323473988689693,564374,473423,517960
653323473996124388,564473,473320,518092
653323474003559083,564388,473375,518029
653323474010993778,564541,473378,518203
653323474018428473,564751,473506,518225
653323474025863168,564841,473433,518444
653323474033174088,565027,473695,518474
653323474040616064,565099,473701,518606
653323474048058040,565156,473822,518652
653323474055500016,565324,473839,518742
653323474062941992,565357,473871,518710
653323474070383968,565486,473912,518825
653323474077825944,565458,473864,519008
653323474085267920,565545,473981,519127
653323474092709896,565851,474050,519172
653323474100151872,565644,474066,519221
653323474107593848,565777,474170,519153
653323474115035824,565785,474208,519219
653323474122477800,565840,474164,519185
653323474129919776,565776,474037,519127
653323474137361752,565453,474087,519049
653323474144803728,565389,473969,518979
653323474152245704,565142,473763,518847
653323474159687680,564997,473703,518727
653323474167253449,565095,473254,518626
653323474174688144,564752,473216,518338
653323474182122839,564515,473138,518189
653323474189557534,564224,473061,517986
653323474196992229,564056,472966,517699
653323474204426924,563850,472757,517423
653323474211861619,563606,472643,517310
653323474219296314,563433,472595,517051
653323474226731009,563140,472463,516942
653323474234165704,563089,472400,516877
653323474241600399,562874,472129,516669
653323474249035094,562791,472097,516553
653323474256469789,562734,472100,516419
653323474263904484,562539,471931,516295
653323474271339179,562283,471810,516033
653323474278773874,562204,471704,515976
653323474286208569,561968,471705,515885
653323474293643264,561756,471667,515754
653323474300985124,561960,471761,515486
653323474308425280,561777,471603,515464
653323474315865436,561595,471488,515419
653323474323305592,561454,471403,515400
653323474330745748,561419,471473,515385
653323474338185904,561300,471397,515208
653323474345626060,561186,471376,515185
653323474353066216,561211,471344,515114
653323474360506372,561246,471394,515123
653323474367946528,561257,471252,515282
653323474375386684,561073,471323,515265
653323474382826840,561155,471372,515053
653323474390266996,561258,471454,515206
653323474397707152,561112,471419,515119
653323474405147308,561020,471351,515170
653323474412587464,561173,471440,515048
653323474420027620,561139,471315,514907
653323474427467776,561211,471278,515108
653323474434969837,560991,471262,515223
653323474442406352,560944,471244,514991
653323474449842867,561061,471352,515025
653323474457279382,560990,471374,515097
653323474464715897,561003,471286,514976
653323474472152412,560965,471338,514937
653323474479588927,560938,471438,515032
653323474487025442,561030,471415,514981
653323474494461957,561110,471480,515001
653323474501898472,561156,471517,515042
653323474509334987,561295,471587,515020
653323474516771502,561283,471351,515088
653323474524208017,561299,471376,515079
653323474531644532,561375,471409,515178
653323474539081047,561316,471403,515205
653323474546517562,561279,471491,515076
653323474553954077,561330,471604,515199
653323474561390592,561303,471571,515272
653323474568796160,561692,471853,515460
653323474576234496,561735,471681,515506
653323474583672832,561643,471757,515456
653323474591111168,561716,471759,515553
653323474598549504,561716,471917,515630
653323474605987840,561873,471959,515720
653323474613426176,561759,472000,515740
653323474620864512,561915,471968,515761
653323474628302848,562043,471939,515811
653323474635741184,562081,472104,515879
653323474643179520,562019,472095,515943
653323474650617856,562238,472081,516066
653323474658056192,562319,472073,516086
653323474665494528,562351,472151,516043
653323474672932864,562382,472209,516153
653323474680371200,562565,472343,516269
653323474687809536,562541,472327,516454
653323474695247872,562650,472518,516658
653323474702686208,563032,472382,516782
653323474710124544,562908,472565,516731
653323474717562880,562970,472673,516732
653323474725001216,563240,472810,516874
653323474732439552,563051,472825,516813
653323474739877888,563304,472858,516996
653323474747316224,563244,472896,516979
653323474754754560,563473,473004,517126
653323474762192896,563640,472939,517233
653323474769631232,563637,473093,517289
653323474777069568,563713,473164,517292
653323474784507904,563764,473126,517317
653323474791946240,563875,473197,517421
653323474799384576,563886,473328,517578
653323474806822912,564045,473484,517654
653323474814261248,564101,473539,517663
653323474821699584,564325,473538,517780
653323474829137920,564524,473614,517927
653323474836607213,564662,473584,518336
653323474844043728,564637,473715,518360
653323474851480243,564794,473753,518311
653323474858916758,564880,473696,518223
653323474866353273,564951,473725,518308
653323474873789788,564947,473811,518446
653323474881226303,565087,473907,518423
653323474888662818,565170,473938,518556
653323474896099333,564946,473889,518480
653323474903535848,564854,473847,518377
653323474910972363,564774,473806,518313
653323474918408878,564553,473695,518082
653323474925845393,564381,473511,517943
653323474933281908,564188,473349,517778
653323474940718423,563979,473280,517564
653323474948154938,563674,473162,517472
653323474955591453,563605,472943,517255
653323474963027968,563445,472747,517064
653323474970433536,563386,472501,517046
653323474977871872,563154,472426,516846
653323474985310208,562848,472313,516558
653323474992748544,562625,472245,516330
653323475000186880,562479,472235,516144
653323475007625216,562283,472085,516053
653323475015063552,562201,471982,515899
653323475022501888,561990,471968,515707
653323475029940224,561820,471854,515494
653323475037378560,561653,471747,515325
653323475044816896,561516,471792,515285
653323475052255232,561267,471550,515135
653323475059693568,561155,471628,514790
653323475067131904,561083,471482,514725
653323475074570240,560930,471301,514639
653323475082008576,560578,471308,514477
653323475089446912,560593,471305,514383
653323475096885248,560603,471191,514413
653323475104385481,560506,470934,514341
653323475111820176,560356,470936,514282
653323475119254871,560398,471011,514248
653323475126689566,560321,471050,514142
653323475134124261,560254,471072,514043
653323475141558956,560289,471058,514119
653323475148993651,560281,471123,514122
653323475156428346,560317,471016,513953
653323475163863041,560154,471006,513933
653323475171297736,560070,470930,513882
653323475178732431,560207,470961,513968
653323475186167126,560299,471036,513916
653323475193601821,560258,471023,513863
653323475201036516,560294,470968,513959
653323475208471211,560323,471118,514076
653323475215905906,560235,471084,513949
653323475223340601,560408,471033,513937
653323475230775296,560454,470910,514013
653323475238148096,560498,470761,513997
653323475245586432,560193,470830,513999
653323475253024768,560214,471023,513964
653323475260463104,560184,470965,513922
653323475267901440,560159,471012,513943
653323475275339776,560333,470932,513850
653323475282778112,560431,470990,514007
653323475290216448,560289,471028,513959
653323475297654784,560359,471147,514010
653323475305093120,560288,470948,513916
653323475312531456,560440,471140,514029
653323475319969792,560547,471186,514156
653323475327408128,560698,471183,514205
653323475334846464,560715,471164,514205
653323475342284800,560677,471242,514268
653323475349723136,560717,471289,514384
653323475357161472,560757,471317,514423
653323475364599808,560845,471410,514407
653323475372069101,561137,471180,514854
653323475379505616,561101,471424,514875
653323475386942131,561160,471549,514832
653323475394378646,561384,471557,514870
653323475401815161,561250,471602,514800
653323475409251676,561424,471679,515008
653323475416688191,561456,471660,515054
653323475424124706,561638,471769,515143
653323475431561221,561583,471792,515203
653323475438997736,561607,471907,515147
653323475446434251,561818,471960,515166
653323475453870766,561859,471967,515332
653323475461307281,561955,471965,515393
653323475468743796,562063,471967,515522
653323475476180311,562125,472140,515578
653323475483616826,562103,472200,515639
653323475491053341,562435,472273,515742
653323475498489856,562368,472326,515803
653323475505864484,562519,472494,515536
653323475513304640,562677,472506,515733
653323475520744796,562747,472437,515970
653323475528184952,562740,472503,516210
653323475535625108,562820,472637,516270
653323475543065264,562837,472759,516362
653323475550505420,563022,472807,516337
653323475557945576,563125,472918,516452
653323475565385732,563199,472896,516538
653323475572825888,563356,472983,516629
653323475580266044,563403,472948,516762
653323475587706200,563508,473058,516759
653323475595146356,563600,473065,516857
653323475602586512,563934,473297,516982
653323475610026668,563937,473203,517067
653323475617466824,564069,473228,517150
653323475624906980,564151,473472,517281
653323475632347136,564101,473588,517426
653323475639818240,564496,473821,517379
653323475647256576,564645,473755,517462
653323475654694912,564515,473781,517574
653323475662133248,564509,473706,517584
653323475669571584,564420,473725,517564
653323475677009920,564226,473575,517550
653323475684448256,564286,473423,517473
653323475691886592,564143,473368,517314
653323475699324928,564014,473270,517120
653323475706763264,563806,473203,516977
653323475714201600,563601,473087,516833
653323475721639936,563443,472810,516633
653323475729078272,563213,472597,516552
653323475736516608,562896,472519,516363
653323475743954944,562846,472368,516181
653323475751393280,562660,472175,516000
653323475758831616,562477,472230,515803
653323475766269952,562239,472006,515648
653323475773739245,561751,471797,515437
653323475781175760,561744,471712,515122
653323475788612275,561653,471561,515032
653323475796048790,561544,471641,514990
653323475803485305,561336,471553,514693
653323475810921820,561122,471445,514580
653323475818358335,561107,471338,514496
653323475825794850,561073,471182,514460
653323475833231365,560851,471048,514265
653323475840667880,560580,471061,514091
653323475848104395,560514,471053,513942
653323475855540910,560415,470914,513942
653323475862977425,560266,470933,513763
653323475870413940,560217,470945,513707
653323475877850455,560164,470931,513746
653323475885286970,560111,470779,513689
653323475892723485,560018,470796,513590
6.53323E+17,559971,470756,513489
653323475907596525,559957,470591,513500
653323475915033040,559993,470683,513462
653323475922469555,559957,470934,513481
653323475929906070,560061,470790,513413
653323475937342585,560027,470734,513347
653323475944779100,559987,470687,513421
653323475952215615,560006,470769,513487
653323475959652130,560051,470794,513489
653323475967088645,560095,470674,513478
653323475974525160,560030,470823,513441
653323475981961675,560008,470813,513396
653323475989398190,559849,470887,513308
653323475996834705,559837,470911,513469
653323476004271220,560063,470877,513428
653323476011707735,560064,470791,513425
653323476019144250,560013,470811,513478
653323476026580765,560112,470865,513453
653323476034017280,560015,470830,513472
653323476041391908,559925,470588,513666
653323476048832064,559999,470704,513545
653323476056272220,560146,470844,513542
653323476063712376,560123,470861,513533
653323476071152532,560196,470905,513599
653323476078592688,560221,470955,513534
653323476086032844,560287,471004,513609
6.53323E+17,560328,471008,513639
653323476100913156,560406,470933,513680
653323476108353312,560452,471249,513742
653323476115793468,560484,471257,513796
653323476123233624,560544,471200,513959
653323476130673780,560685,471413,514003
653323476138113936,560674,471258,514142
653323476145554092,560666,471158,514125
653323476152994248,560707,471253,514155
653323476160434404,560890,471438,514303
653323476167874560,560958,471422,514317
653323476175376621,561395,471732,514567
653323476182813136,561311,471633,514559
653323476190249651,561337,471549,514516
653323476197686166,561424,471619,514425
653323476205122681,561402,471636,514470
653323476212559196,561392,471705,514670
653323476219995711,561515,471889,514779
653323476227432226,561622,471957,514837
653323476234868741,561595,472010,514890
653323476242305256,561756,472086,515052
653323476249741771,561892,472102,515096
653323476257178286,562007,472104,515198
