timestamp ch1 ch2 ch3 ambient
653329271494157824 -43121 -66372 -56776 -350308
653329271501596160 -43271 -66553 -56759 -350334
653329271509034496 -42088 -65456 -55741 -349211
653329271516472832 -42731 -66091 -56324 -349742
653329271523911168 -43133 -66396 -56687 -350114
653329271531349504 -43172 -66621 -56873 -350337
653329271538787840 -42178 -66656 -56787 -350096
653329271546226176 -42691 -66626 -56840 -350195
653329271553664512 -43100 -66629 -57014 -350256
653329271561102848 -43288 -66660 -57038 -350315
653329271568541184 -43282 -66735 -56899 -350208
653329271575979520 -43261 -66730 -57034 -350242
653329271583417856 -43351 -66768 -57084 -350255
653329271590856192 -43291 -66680 -56929 -350250
653329271598294528 -43293 -66751 -57010 -350274
653329271605732864 -43249 -66756 -57123 -350309
653329271613171200 -43298 -66742 -57204 -350298
653329271620609536 -43283 -66626 -57120 -350246
653329271628109769 -43576 -66463 -56881 -350254
653329271635544464 -43472 -66715 -57150 -350272
653329271642979159 -43529 -66770 -57190 -350276
653329271650413854 -43410 -66763 -57272 -350316
653329271657848549 -43310 -66667 -57006 -350101
653329271665283244 -43299 -66749 -57102 -350236
653329271672717939 -43428 -66742 -57200 -350300
653329271680152634 -43386 -66787 -57124 -350262
653329271687587329 -43383 -66701 -57234 -350206
653329271695022024 -43406 -66863 -57353 -350223
653329271702456719 -43362 -66847 -57382 -350294
653329271709891414 -43265 -66658 -57367 -350189
653329271717326109 -43372 -66647 -57215 -350277
653329271724760804 -43480 -66783 -57296 -350299
653329271732195499 -43387 -66803 -57149 -350310
653329271739630194 -43404 -66702 -57298 -350224
653329271747064889 -43464 -66823 -57214 -350263
653329271754499584 -43405 -66786 -57235 -350239
653329271761934281 -43325 -66470 -57224 -350185
653329271769368976 -43358 -66627 -57292 -350306
653329271776803671 -43285 -66703 -57217 -350274
653329271784238366 -43295 -66661 -57214 -350320
653329271791673061 -43216 -66719 -57181 -350331
653329271799107756 -43206 -65540 -56051 -350267
653329271806542451 -43342 -66130 -56662 -350255
653329271813977146 -43270 -66442 -57000 -350288
653329271821411841 -43328 -66577 -57120 -350214
653329271828846536 -42151 -65528 -56004 -349115
653329271836281231 -42793 -66174 -56690 -349787
653329271843715926 -43258 -66564 -57020 -350138
653329271851150621 -43193 -66679 -57202 -350215
653329271858585316 -42087 -66571 -57222 -350038
653329271866020011 -42789 -66652 -57277 -350194
653329271873454706 -43012 -66806 -57216 -350224
653329271880889401 -43186 -66659 -57264 -350281
653329271888324096 -43192 -66666 -57226 -350313
653329271895758793 -43429 -66618 -57479 -350242
653329271903193488 -43302 -66704 -57321 -350325
653329271910628183 -43423 -66673 -57213 -350333
653329271918062878 -43227 -66759 -57140 -350282
653329271925497573 -43261 -66739 -57239 -350323
653329271932932268 -43186 -66761 -57338 -350418
653329271940366963 -43240 -66697 -57240 -350344
653329271947801658 -43159 -66369 -57154 -350145
653329271955236353 -43199 -66529 -57223 -350228
653329271962671048 -43167 -66509 -57226 -350279
653329271970105743 -43190 -66473 -57289 -350169
653329271977540438 -43044 -66378 -57100 -350058
653329271984975133 -43197 -66518 -57215 -350263
653329271992409828 -43241 -66520 -57284 -350274
653329271999844523 -43149 -66707 -57291 -350177
653329272007279218 -43293 -66620 -57242 -350155
653329272014713913 -43283 -66674 -57320 -350249
653329272022148608 -43217 -66679 -57367 -350170
653329272029583305 -43104 -66330 -57181 -350139
653329272037018000 -43175 -66553 -57241 -350249
653329272044452695 -43196 -66691 -57438 -350284
653329272051887390 -43278 -66726 -57592 -350342
653329272059322085 -43368 -66738 -57379 -350259
653329272066756780 -43492 -66844 -57499 -350311
653329272074191475 -43415 -66912 -57528 -350270
653329272081626170 -43488 -66905 -57638 -350333
653329272089060865 -43441 -67020 -57505 -350180
653329272096495560 -43538 -66992 -57603 -350274
653329272103930255 -43501 -67138 -57659 -350322
653329272111364950 -43453 -66990 -57684 -350240
653329272118799645 -43513 -65981 -56612 -350167
653329272126234340 -43403 -66627 -57192 -350198
653329272133669035 -43514 -66922 -57396 -350270
653329272141103730 -43519 -67005 -57469 -350238
653329272148538425 -42562 -66019 -56592 -349159
653329272155973120 -43148 -66642 -57224 -349858
653329272163469714 -43479 -66865 -57472 -350152
653329272170900768 -43503 -66959 -57683 -350205
653329272178331822 -42547 -67024 -57720 -350169
653329272185762876 -43141 -67248 -57899 -350232
653329272193193930 -43464 -67256 -57836 -350321
653329272200624984 -43643 -67351 -57917 -350306
653329272208056038 -43611 -67169 -57944 -350246
653329272215487092 -43669 -67284 -57952 -350282
653329272222918146 -43796 -67333 -57934 -350364
653329272230349200 -43617 -67252 -58008 -350245
653329272237780254 -43592 -67233 -57995 -350273
653329272245211308 -43703 -67256 -57943 -350323
653329272252642362 -43814 -67195 -57984 -350316
653329272260073416 -43890 -67272 -58053 -350316
653329272267504470 -43723 -67127 -57874 -350070
653329272274935524 -43770 -67455 -58015 -350316
653329272282366578 -43830 -67559 -58005 -350262
653329272289797632 -43800 -67449 -58029 -350233
653329272297043016 -43790 -67490 -57967 -350341
653329272304484992 -43775 -67558 -58114 -350304
653329272311926968 -43899 -67604 -58286 -350313
653329272319368944 -43863 -67487 -58240 -350266
653329272326810920 -43964 -67638 -58332 -350301
653329272334252896 -44080 -67631 -58327 -350398
653329272341694872 -44059 -67584 -58366 -350276
653329272349136848 -43980 -67682 -58246 -350206
653329272356578824 -44080 -67634 -58415 -350234
653329272364020800 -44056 -67628 -58516 -350288
653329272371462776 -44046 -67715 -58350 -350222
653329272378904752 -44031 -67624 -58329 -350304
653329272386346728 -44111 -67609 -58339 -350194
653329272393788704 -44185 -67652 -58486 -350266
653329272401230680 -44178 -67605 -58448 -350258
653329272408672656 -44106 -67650 -58320 -350184
653329272416114632 -44140 -67691 -58315 -350303
653329272423556608 -44109 -67865 -58450 -350338
653329272431122377 -44297 -67759 -58137 -350416
653329272438557072 -44153 -66722 -57103 -349708
653329272445991767 -44007 -67383 -57911 -350027
653329272453426462 -44005 -67701 -58271 -350303
653329272460861157 -43812 -67593 -58268 -350271
653329272468295852 -42844 -66589 -57179 -349273
653329272475730547 -43491 -67264 -57903 -349871
653329272483165242 -43815 -67502 -58032 -350057
653329272490599937 -43765 -67521 -58167 -350111
653329272498034632 -43132 -67581 -58156 -350276
653329272505469327 -43568 -67612 -58129 -350317
653329272512904022 -43854 -67578 -58286 -350348
653329272520338717 -43749 -67595 -58246 -350150
653329272527773412 -43764 -67557 -58258 -350191
653329272535208107 -43711 -67617 -58264 -350132
653329272542642802 -43762 -67570 -58317 -350256
653329272550077497 -43631 -67493 -58220 -350171
653329272557512192 -43744 -67614 -58167 -350204
653329272564946889 -43523 -67348 -58002 -350389
653329272572381584 -43626 -67530 -58144 -350317
653329272579816279 -43658 -67532 -58267 -350224
653329272587250974 -43624 -67431 -58139 -350091
653329272594685669 -43743 -67530 -58360 -350201
653329272602120364 -44013 -67564 -58467 -350216
653329272609555059 -43974 -67649 -58522 -350201
653329272616989754 -43825 -67543 -58444 -350077
653329272624424449 -44079 -67730 -58471 -350231
653329272631859144 -44022 -67810 -58518 -350228
653329272639293839 -43924 -67726 -58534 -350193
653329272646728534 -43720 -67712 -58660 -350252
653329272654163229 -44019 -67766 -58763 -350356
653329272661597924 -44045 -67766 -58842 -350334
653329272669032619 -44106 -67770 -58772 -350301
653329272676467314 -44112 -67764 -58860 -350319
653329272683902009 -44180 -67734 -58827 -350353
653329272691336704 -44241 -67745 -58857 -350252
653329272698771401 -44294 -67948 -58651 -350228
653329272706206096 -44268 -67911 -58840 -350296
653329272713640791 -44325 -67851 -58815 -350237
653329272721075486 -44407 -67877 -58757 -350289
653329272728510181 -44230 -67993 -58781 -350162
653329272735944876 -44328 -67929 -58845 -350257
653329272743379571 -44239 -67890 -58846 -350377
653329272750814266 -44135 -67820 -58763 -350309
653329272758248961 -44041 -66749 -57497 -349412
653329272765683656 -44004 -67393 -58137 -349898
653329272773118351 -44058 -67731 -58416 -350143
653329272780553046 -44078 -67792 -58548 -350259
653329272787987741 -42981 -66766 -57411 -349158
653329272795422436 -43521 -67522 -58017 -349796
653329272802857131 -43837 -67753 -58438 -350070
653329272810291826 -43909 -67853 -58448 -350125
653329272817726521 -43496 -67914 -58538 -350228
653329272825161216 -43828 -68022 -58669 -350337
653329272832534016 -44273 -68265 -58409 -350371
653329272839972352 -44130 -68127 -58561 -350240
653329272847410688 -44260 -68173 -58749 -350250
653329272854849024 -44215 -68313 -58843 -350317
653329272862287360 -44271 -68326 -58910 -350423
653329272869725696 -44230 -68299 -59019 -350370
653329272877164032 -44317 -68424 -59138 -350396
653329272884602368 -44401 -68445 -59006 -350367
653329272892040704 -44450 -68514 -59026 -350344
653329272899479040 -44576 -68546 -59037 -350321
653329272906917376 -44395 -68491 -58892 -350169
653329272914355712 -44454 -68583 -59199 -350270
653329272921794048 -44479 -68603 -59194 -350229
653329272929232384 -44358 -68543 -59150 -350190
653329272936670720 -44285 -68609 -59012 -350036
653329272944109056 -44469 -68713 -59236 -350217
653329272951547392 -44559 -68764 -59275 -350257
653329272958985728 -44508 -68685 -59313 -350187
653329272966485961 -44359 -68468 -59521 -350077
653329272973920656 -44550 -68637 -59545 -350263
653329272981355351 -44453 -68526 -59490 -350248
653329272988790046 -44571 -68726 -59485 -350147
653329272996224741 -44690 -68868 -59592 -350321
653329273003659436 -44665 -68823 -59630 -350349
653329273011094131 -44752 -68774 -59578 -350275
653329273018528826 -44753 -68888 -59501 -350251
653329273025963521 -44708 -68958 -59581 -350277
653329273033398216 -44734 -69042 -59554 -350271
653329273040832911 -44788 -68925 -59524 -350183
653329273048267606 -44638 -68877 -59418 -350185
653329273055702301 -44729 -68922 -59542 -350235
653329273063136996 -44617 -68975 -59602 -350369
653329273070571691 -44610 -68959 -59537 -350306
653329273078006386 -44438 -67897 -58462 -349198
653329273085441081 -44628 -68514 -59076 -349755
653329273092875776 -44665 -68733 -59407 -350030
653329273100372370 -44506 -69005 -59453 -350299
653329273107803424 -43379 -68043 -58433 -349159
653329273115234478 -44067 -68523 -59032 -349793
653329273122665532 -44435 -68843 -59280 -350091
653329273130096586 -44462 -68877 -59369 -350173
653329273137527640 -44333 -68913 -59492 -350111
653329273144958694 -44390 -69102 -59528 -350220
653329273152389748 -44469 -69132 -59589 -350245
653329273159820802 -44550 -69112 -59691 -350308
653329273167251856 -44513 -68993 -59695 -350180
653329273174682910 -44611 -69043 -59727 -350324
653329273182113964 -44550 -69058 -59580 -350231
653329273189545018 -44612 -69087 -59732 -350262
653329273196976072 -44636 -69144 -59640 -350223
653329273204407126 -44664 -69199 -59763 -350195
653329273211838180 -44605 -69169 -59780 -350246
653329273219269234 -44643 -69208 -59662 -350275
653329273226700288 -44651 -69029 -59651 -350151
653329273233945672 -44760 -69355 -60048 -350328
653329273241387648 -44719 -69186 -60005 -350301
653329273248829624 -44683 -69196 -59880 -350242
653329273256271600 -44635 -69219 -59728 -350117
653329273263713576 -44815 -69319 -59794 -350274
653329273271155552 -44764 -69301 -59881 -350335
653329273278597528 -44725 -69136 -59980 -350251
653329273286039504 -44737 -69240 -59906 -350246
653329273293481480 -44703 -69322 -59937 -350218
653329273300923456 -44813 -69215 -59939 -350207
653329273308365432 -44793 -69249 -59906 -350171
653329273315807408 -44861 -69159 -59844 -350213
653329273323249384 -44898 -69206 -59904 -350244
653329273330691360 -44763 -69222 -59948 -350289
653329273338133336 -44744 -69196 -59862 -350128
653329273345575312 -44870 -69323 -59989 -350193
653329273353017288 -44892 -69409 -59965 -350308
653329273360459264 -44736 -69256 -60058 -350143
653329273368086930 -44881 -69027 -59870 -350116
653329273375517984 -44841 -69192 -60052 -350248
653329273382949038 -44874 -69336 -60019 -350233
653329273390380092 -44829 -69193 -59964 -350239
653329273397811146 -44861 -68223 -58890 -349214
653329273405242200 -44929 -68863 -59482 -349844
653329273412673254 -44898 -69109 -59808 -350061
653329273420104308 -44817 -69083 -59779 -350049
653329273427535362 -43703 -68346 -58888 -349175
653329273434966416 -44261 -68859 -59527 -349751
653329273442397470 -44551 -69032 -59762 -349980
653329273449828524 -44606 -69188 -59895 -350071
653329273457259578 -44641 -69231 -59974 -350136
653329273464690632 -44751 -69393 -60022 -350267
653329273472121686 -44716 -69376 -60094 -350266
653329273479552740 -44664 -69243 -60000 -350215
653329273486983794 -44790 -69370 -60025 -350274
653329273494414848 -44852 -69494 -60048 -350337
653329273501784009 -44741 -69404 -60072 -350421
653329273509218704 -44701 -69348 -60047 -350274
653329273516653399 -44786 -69337 -60110 -350207
653329273524088094 -44892 -69536 -60168 -350212
653329273531522789 -44957 -69453 -60159 -350289
653329273538957484 -44794 -69525 -60234 -350190
653329273546392179 -44731 -69323 -60000 -350074
653329273553826874 -44852 -69568 -60194 -350183
653329273561261569 -44952 -69554 -60216 -350184
653329273568696264 -45097 -69667 -60268 -350257
653329273576130959 -45121 -69700 -60384 -350085
653329273583565654 -45160 -69842 -60487 -350181
653329273591000349 -45209 -69913 -60492 -350171
653329273598435044 -45266 -69833 -60323 -350248
653329273605869739 -45366 -69955 -60569 -350230
653329273613304434 -45487 -70124 -60617 -350298
653329273620739129 -45501 -70080 -60770 -350252
653329273628173824 -45467 -70093 -60762 -350173
653329273635608521 -45727 -69987 -60613 -350188
653329273643043216 -45612 -70112 -60858 -350246
653329273650477911 -45721 -70219 -60866 -350253
653329273657912606 -45742 -70354 -61067 -350258
653329273665347301 -45851 -70422 -61173 -350360
653329273672781996 -45804 -70417 -61224 -350420
653329273680216691 -45775 -70442 -61216 -350190
653329273687651386 -45931 -70563 -61056 -350228
653329273695086081 -45872 -70705 -61216 -350305
653329273702520776 -45906 -70725 -61250 -350262
653329273709955471 -45965 -70645 -61361 -350216
653329273717390166 -45921 -69681 -60319 -349158
653329273724824861 -45955 -70430 -60807 -349826
653329273732259556 -45993 -70596 -61199 -350068
653329273739694251 -45924 -70631 -61363 -350116
653329273747128946 -44862 -70044 -60371 -349073
653329273754563641 -45518 -70508 -60955 -349733
653329273761998336 -45873 -70854 -61268 -349861
653329273769433033 -46080 -70718 -61553 -350131
653329273776867728 -46132 -70836 -61653 -350255
653329273784302423 -46317 -71023 -61791 -350268
653329273791737118 -46256 -71180 -61659 -350225
653329273799171813 -46158 -71109 -61753 -350208
653329273806606508 -46137 -71063 -61710 -350169
653329273814041203 -46294 -71211 -61843 -350283
653329273821475898 -46384 -71298 -61857 -350327
653329273828910593 -46354 -71307 -61832 -350253
653329273836345288 -46367 -71233 -61899 -350217
653329273843779983 -46503 -71209 -61992 -350277
653329273851214678 -46408 -71445 -61958 -350280
653329273858649373 -46424 -71422 -61941 -350268
653329273866084068 -46357 -71330 -61800 -350156
653329273873518763 -46640 -71422 -62055 -350247
653329273880953458 -46618 -71486 -62087 -350257
653329273888388153 -46692 -71494 -62006 -350173
653329273895822848 -46473 -71529 -61924 -350120
653329273903133768 -46658 -71752 -62195 -350108
653329273910575744 -46732 -71603 -62103 -350248
653329273918017720 -46654 -71558 -62148 -350213
653329273925459696 -46809 -71587 -62206 -350279
653329273932901672 -46782 -71634 -62196 -350344
653329273940343648 -46713 -71671 -62168 -350251
653329273947785624 -46643 -71559 -62219 -350207
653329273955227600 -46807 -71738 -62398 -350248
653329273962669576 -46876 -71663 -62393 -350264
653329273970111552 -46811 -71689 -62337 -350324
653329273977553528 -46836 -71700 -62476 -350273
653329273984995504 -46858 -71742 -62507 -350291
653329273992437480 -46925 -71694 -62516 -350297
653329273999879456 -46845 -71744 -62452 -350263
653329274007321432 -46843 -71840 -62552 -350268
653329274014763408 -46881 -71893 -62497 -350303
653329274022205384 -46964 -71815 -62508 -350296
653329274029647360 -46924 -71824 -62612 -350248
653329274037275026 -46483 -70550 -61230 -349383
653329274044706080 -46813 -71346 -61893 -349934
653329274052137134 -46951 -71740 -62293 -350092
653329274059568188 -46869 -71836 -62503 -350100
653329274066999242 -45789 -71401 -61505 -349124
653329274074430296 -46434 -71655 -62166 -349789
653329274081861350 -46881 -71829 -62465 -350028
653329274089292404 -46901 -71978 -62594 -350149
653329274096723458 -47044 -71887 -62662 -350223
653329274104154512 -47092 -71968 -62771 -350316
653329274111585566 -47178 -72059 -62754 -350300
653329274119016620 -47201 -72027 -62748 -350256
653329274126447674 -47116 -71986 -62781 -350286
653329274133878728 -47215 -72075 -62842 -350325
653329274141309782 -47207 -72075 -62859 -350343
653329274148740836 -47142 -72222 -62686 -350294
653329274156171890 -47171 -72044 -62832 -350281
653329274163602944 -47170 -72038 -62840 -350344
653329274170972105 -47078 -72285 -62653 -350298
653329274178406800 -47199 -72253 -62801 -350270
653329274185841495 -47049 -72008 -62772 -350130
653329274193276190 -47246 -72122 -62878 -350277
653329274200710885 -47208 -72166 -62902 -350281
653329274208145580 -47183 -72102 -62956 -350289
653329274215580275 -47085 -72201 -62887 -350165
653329274223014970 -47156 -72204 -62907 -350280
653329274230449665 -47183 -72081 -62970 -350239
653329274237884360 -47142 -72078 -62873 -350200
653329274245319055 -47291 -72070 -62993 -350232
653329274252753750 -47168 -72122 -62986 -350318
653329274260188445 -47287 -72111 -62944 -350240
653329274267623140 -47330 -72093 -63046 -350224
653329274275057835 -47475 -72207 -63025 -350273
653329274282492530 -47351 -72149 -63052 -350223
653329274289927225 -47278 -72175 -62891 -350271
653329274297361920 -47182 -72086 -62918 -350269
653329274304734720 -47424 -71949 -62995 -350543
653329274312173056 -47325 -72102 -62995 -350355
653329274319611392 -47197 -72145 -62994 -350338
653329274327049728 -47258 -72196 -63053 -350283
653329274334488064 -47361 -72177 -63106 -350290
653329274341926400 -47393 -72344 -62943 -350327
653329274349364736 -47501 -72482 -62961 -350237
653329274356803072 -47255 -71305 -62028 -349185
653329274364241408 -47492 -72023 -62673 -349701
653329274371679744 -47476 -72242 -62954 -349994
653329274379118080 -47542 -72372 -63161 -350151
653329274386556416 -46472 -71873 -62234 -349123
653329274393994752 -47235 -72406 -63072 -349859
653329274401433088 -47552 -72577 -63316 -350082
653329274408871424 -47743 -72726 -63471 -350167
653329274416309760 -47849 -72900 -63478 -350165
653329274423748096 -47925 -72950 -63639 -350318
653329274431186432 -47978 -72983 -63819 -350281
653329274438748562 -48366 -72976 -63642 -350321
653329274446179616 -48282 -73145 -63814 -350326
653329274453610670 -48296 -73170 -63899 -350335
653329274461041724 -48223 -73192 -63991 -350282
653329274468472778 -48246 -73329 -64085 -350305
653329274475903832 -48414 -73276 -64166 -350304
653329274483334886 -48368 -73485 -64135 -350222
653329274490765940 -48368 -73362 -64209 -350288
653329274498196994 -48494 -73440 -64260 -350147
653329274505628048 -48386 -73384 -64196 -350179
653329274513059102 -48487 -73469 -64397 -350237
653329274520490156 -48580 -73531 -64320 -350305
653329274527921210 -48684 -73599 -64369 -350285
653329274535352264 -48531 -73769 -64314 -350138
653329274542783318 -48649 -73767 -64467 -350317
653329274550214372 -48837 -73788 -64622 -350287
653329274557645426 -48848 -73791 -64706 -350205
653329274565076480 -48752 -73820 -64784 -350302
653329274572445641 -48693 -73514 -64707 -350068
653329274579880336 -48770 -73672 -64749 -350145
653329274587315031 -48828 -73838 -64723 -350206
653329274594749726 -48889 -73860 -64857 -350297
653329274602184421 -48865 -73901 -64816 -350281
653329274609619116 -48898 -73888 -64775 -350289
653329274617053811 -48941 -74228 -64569 -350287
653329274624488506 -48989 -74211 -64835 -350309
653329274631923201 -48943 -74001 -64904 -350248
653329274639357896 -49050 -74064 -64806 -350242
653329274646792591 -49080 -74200 -64843 -350230
653329274654227286 -49150 -74199 -65003 -350301
653329274661661981 -49121 -74126 -65053 -350334
653329274669096676 -49204 -74222 -64983 -350285
653329274676531371 -49233 -73108 -64068 -349226
653329274683966066 -49222 -73727 -64619 -349839
653329274691400761 -49306 -73991 -64872 -350071
653329274698835456 -49258 -74144 -65014 -350176
653329274706208256 -47936 -73358 -63793 -349368
653329274713646592 -48807 -74128 -64691 -349909
653329274721084928 -49139 -74131 -64855 -350095
653329274728523264 -49206 -74178 -65079 -350185
653329274735961600 -49140 -74286 -65281 -350265
653329274743399936 -49310 -74566 -65277 -350286
653329274750838272 -49364 -74420 -65316 -350271
653329274758276608 -49420 -74502 -65313 -350240
653329274765714944 -49539 -74473 -65395 -350222
653329274773153280 -49477 -74572 -65445 -350303
653329274780591616 -49332 -74454 -65388 -350239
653329274788029952 -49306 -74390 -65359 -350255
653329274795468288 -49570 -74568 -65443 -350288
653329274802906624 -49622 -74585 -65429 -350338
653329274810344960 -49667 -74541 -65481 -350298
653329274817783296 -49575 -74672 -65338 -350327
653329274825221632 -49493 -74446 -65329 -350220
653329274832659968 -49587 -74646 -65377 -350306
653329274840160201 -49676 -74536 -65635 -350353
653329274847594896 -49741 -74467 -65550 -350298
653329274855029591 -49512 -74679 -65547 -350190
653329274862464286 -49644 -74756 -65532 -350184
653329274869898981 -49682 -74634 -65595 -350240
653329274877333676 -49717 -74720 -65701 -350293
653329274884768371 -49622 -74636 -65770 -350313
653329274892203066 -49630 -74598 -65698 -350303
653329274899637761 -49691 -74537 -65735 -350247
653329274907072456 -49656 -74707 -65748 -350239
653329274914507151 -49883 -74732 -65715 -350248
653329274921941846 -49806 -74662 -65758 -350298
653329274929376541 -49755 -74652 -65678 -350289
653329274936811236 -49622 -74740 -65632 -350230
653329274944245931 -49799 -74813 -65712 -350322
653329274951680626 -49751 -74654 -65774 -350313
653329274959115321 -49616 -74716 -65679 -350195
653329274966550016 -49761 -74733 -65678 -350246
653329274973922816 -49907 -74422 -66096 -350001
653329274981361152 -49861 -74547 -65856 -350149
653329274988799488 -49826 -74705 -65698 -350181
653329274996237824 -49725 -73549 -64652 -349759
653329275003676160 -49765 -74175 -65411 -350084
653329275011114496 -49772 -74419 -65664 -350179
653329275018552832 -49710 -74491 -65757 -350237
653329275025991168 -48648 -73602 -64700 -349194
653329275033429504 -49344 -74221 -65350 -349777
653329275040867840 -49579 -74436 -65654 -350075
653329275048306176 -49682 -74514 -65698 -350167
653329275055744512 -48707 -74583 -65811 -350238
653329275063182848 -49389 -74728 -65913 -350308
653329275070621184 -49597 -74717 -65860 -350333
653329275078059520 -49643 -74761 -65753 -350193
653329275085497856 -49764 -74835 -65911 -350292
653329275092936192 -49805 -74853 -65936 -350335
653329275100374528 -49801 -74777 -65834 -350235
653329275107936658 -49879 -74900 -65622 -350168
653329275115367712 -49919 -74782 -65813 -350320
653329275122798766 -49903 -74733 -65860 -350361
653329275130229820 -49736 -74623 -65791 -350257
653329275137660874 -49747 -74569 -65824 -350239
653329275145091928 -49781 -74404 -65849 -350180
653329275152522982 -49771 -74470 -65820 -350284
653329275159954036 -49837 -74512 -65730 -350218
653329275167385090 -49917 -74590 -65853 -350276
653329275174816144 -49751 -74489 -65730 -350112
653329275182247198 -49781 -74570 -65842 -350253
653329275189678252 -49845 -74700 -65917 -350229
653329275197109306 -49849 -74708 -65981 -350220
653329275204540360 -49925 -74802 -66048 -350360
653329275211971414 -50021 -74795 -66022 -350255
653329275219402468 -50077 -74744 -66100 -350264
653329275226833522 -50271 -74802 -66163 -350177
653329275234264576 -50377 -74966 -66309 -350334
653329275241633737 -50300 -75120 -65971 -350103
653329275249068432 -50328 -75015 -66168 -350081
653329275256503127 -50350 -75234 -66298 -350289
653329275263937822 -50435 -75308 -66501 -350405
653329275271372517 -50325 -75204 -66476 -350336
653329275278807212 -50330 -75199 -66377 -350246
653329275286241907 -50428 -75304 -66564 -350239
653329275293676602 -50542 -75556 -66680 -350333
653329275301111297 -50634 -75413 -66585 -350227
653329275308545992 -50561 -75334 -66702 -350236
653329275315980687 -50730 -74515 -65753 -350287
653329275323415382 -50876 -75149 -66319 -350256
653329275330850077 -50753 -75347 -66644 -350313
653329275338284772 -50678 -75272 -66724 -350252
653329275345719467 -49777 -74495 -65731 -349352
653329275353154162 -50463 -75216 -66388 -349937
653329275360588857 -50700 -75346 -66688 -350055
653329275368023552 -50861 -75555 -66756 -350111
653329275375458249 -50180 -75817 -66968 -350082
653329275382892944 -50667 -75785 -67045 -350185
653329275390327639 -50895 -75774 -67004 -350223
653329275397762334 -50964 -75911 -67115 -350201
653329275405197029 -51011 -75858 -67088 -350304
653329275412631724 -51054 -75940 -67118 -350304
653329275420066419 -50974 -75939 -67111 -350257
653329275427501114 -51082 -75954 -67232 -350306
653329275434935809 -51069 -75958 -67167 -350271
653329275442370504 -51090 -75902 -67206 -350377
653329275449805199 -51194 -75934 -67154 -350275
653329275457239894 -51199 -75927 -67242 -350273
653329275464674589 -51222 -75912 -67127 -350255
653329275472109284 -51261 -75944 -67300 -350217
653329275479543979 -51129 -75917 -67180 -350146
653329275486978674 -51085 -76082 -67206 -350227
653329275494413369 -50991 -75954 -67250 -350151
653329275501848064 -51101 -76003 -67300 -350188
653329275509220864 -50892 -76111 -67429 -350078
653329275516659200 -51071 -76086 -67357 -350176
653329275524097536 -51065 -76089 -67408 -350292
653329275531535872 -51310 -76111 -67426 -350337
653329275538974208 -51218 -76045 -67367 -350313
653329275546412544 -51203 -76205 -67468 -350289
653329275553850880 -51251 -76232 -67555 -350263
653329275561289216 -51305 -76131 -67406 -350259
653329275568727552 -51418 -76131 -67351 -350301
653329275576165888 -51323 -76044 -67427 -350302
653329275583604224 -51366 -76091 -67575 -350320
653329275591042560 -51272 -76103 -67478 -350334
653329275598480896 -51270 -76059 -67499 -350216
653329275605919232 -51289 -76086 -67447 -350198
653329275613357568 -51346 -76080 -67458 -350265
653329275620795904 -51320 -76109 -67508 -350185
653329275628234240 -51317 -76038 -67521 -350176
653329275635672576 -51318 -75079 -66714 -350275
653329275643110912 -51573 -75760 -66997 -350052
653329275650549248 -51433 -75863 -67269 -350146
653329275657987584 -51259 -75971 -67413 -350167
653329275665425920 -50299 -74949 -66455 -349236
653329275672864256 -50868 -75639 -67120 -349894
653329275680302592 -51010 -75847 -67327 -350067
653329275687740928 -51033 -75937 -67369 -350160
653329275695179264 -50186 -76091 -67618 -349683
653329275702617600 -50746 -76140 -67555 -350029
653329275710055936 -51047 -76106 -67567 -350142
653329275717494272 -51216 -76059 -67566 -350125
653329275724932608 -51298 -76078 -67590 -350264
653329275732370944 -51300 -76052 -67606 -350342
653329275739809280 -51237 -75918 -67544 -350315
653329275747247616 -51271 -75943 -67564 -350210
653329275754685952 -51269 -75986 -67487 -350342
653329275762124288 -51246 -76079 -67475 -350289
653329275769562624 -51202 -75908 -67391 -350271
653329275777124754 -51215 -75739 -67254 -350449
653329275784555808 -51214 -75863 -67345 -350404
653329275791986862 -51152 -75954 -67481 -350367
653329275799417916 -51054 -75881 -67420 -350216
653329275806848970 -51186 -75846 -67411 -350340
653329275814280024 -51100 -75839 -67340 -350184
653329275821711078 -51149 -75984 -67337 -350279
653329275829142132 -51098 -75984 -67435 -350258
653329275836573186 -51082 -75937 -67482 -350225
653329275844004240 -50938 -75865 -67469 -350300
653329275851435294 -51077 -75951 -67399 -350285
653329275858866348 -51043 -75871 -67409 -350286
653329275866297402 -51033 -75820 -67461 -350267
653329275873728456 -51134 -75815 -67365 -350292
653329275881159510 -51042 -75884 -67451 -350294
653329275888590564 -50990 -75773 -67407 -350271
653329275896021618 -51055 -75851 -67303 -350316
653329275903452672 -51059 -75794 -67283 -350331
653329275910759936 -51010 -75557 -67438 -350214
653329275918198272 -51009 -75541 -67288 -350246
653329275925636608 -50995 -75688 -67341 -350322
653329275933074944 -50955 -75680 -67365 -350343
653329275940513280 -50897 -75574 -67216 -350270
653329275947951616 -50805 -75538 -67183 -350262
653329275955389952 -50838 -74561 -67149 -350290
653329275962828288 -50887 -75142 -67113 -350309
653329275970266624 -50854 -75283 -67104 -350253
653329275977704960 -50868 -75429 -67215 -350296
653329275985143296 -49746 -74510 -66114 -349208
653329275992581632 -50344 -74993 -66615 -349803
653329276000019968 -50514 -75124 -66901 -350042
653329276007458304 -50564 -75239 -67022 -350163
653329276014896640 -49625 -75437 -67151 -349285
653329276022334976 -50139 -75456 -67186 -349780
653329276029773312 -50461 -75516 -67086 -350102
653329276037211648 -50603 -75439 -67140 -350132
653329276044711881 -50410 -75580 -66917 -350218
653329276052146576 -50505 -75532 -66987 -350314
653329276059581271 -50679 -75496 -66991 -350333
653329276067015966 -50704 -75599 -67140 -350258
653329276074450661 -50823 -75550 -67141 -350325
653329276081885356 -50790 -75687 -67235 -350271
653329276089320051 -50760 -75720 -67196 -350161
653329276096754746 -50866 -75732 -67191 -350197
653329276104189441 -50993 -75544 -67086 -350277
653329276111624136 -50983 -75777 -67219 -350293
653329276119058831 -51034 -75794 -67271 -350231
653329276126493526 -51105 -75711 -67276 -350286
653329276133928221 -50919 -75696 -67281 -350163
653329276141362916 -51058 -75739 -67411 -350252
653329276148797611 -51019 -75699 -67417 -350233
653329276156232306 -51142 -75770 -67557 -350325
653329276163667001 -51037 -75818 -67575 -350304
653329276171101696 -51096 -75838 -67456 -350242
653329276178536393 -51213 -75790 -67596 -350335
653329276185971088 -51184 -75920 -67580 -350313
653329276193405783 -51118 -75900 -67547 -350336
653329276200840478 -51148 -75891 -67488 -350317
653329276208275173 -51051 -75830 -67509 -350208
653329276215709868 -51111 -75834 -67606 -350267
653329276223144563 -51033 -75815 -67554 -350345
653329276230579258 -51132 -75677 -67563 -350305
653329276238013953 -51002 -75812 -67475 -350255
653329276245448648 -51153 -75804 -67642 -350308
653329276252883343 -51131 -75757 -67635 -350355
653329276260318038 -51036 -75836 -67555 -350314
653329276267752733 -51006 -75824 -67572 -350202
653329276275187428 -51126 -74758 -67519 -350274
653329276282622123 -51237 -75408 -67657 -350320
653329276290056818 -51132 -75589 -67584 -350287
653329276297491513 -51130 -75639 -67482 -350231
653329276304926208 -50092 -74660 -66515 -349233
653329276312299008 -50378 -75488 -67202 -349935
653329276319737344 -50674 -75535 -67338 -350133
653329276327175680 -50878 -75544 -67243 -350223
653329276334614016 -49968 -75747 -67227 -349227
653329276342052352 -50543 -75882 -67295 -349825
653329276349490688 -50792 -75840 -67417 -350145
653329276356929024 -50870 -75778 -67373 -350213
653329276364367360 -50981 -75803 -67455 -350331
653329276371805696 -50852 -75683 -67416 -350247
653329276379244032 -50818 -75561 -67420 -350225
653329276386682368 -50922 -75619 -67435 -350287
653329276394120704 -50866 -75653 -67371 -350273
653329276401559040 -50821 -75480 -67395 -350270
653329276408997376 -50689 -75477 -67421 -350248
653329276416435712 -50742 -75471 -67324 -350232
653329276423874048 -50926 -75382 -67435 -350352
653329276431312384 -50821 -75382 -67404 -350241
653329276438750720 -50770 -75507 -67351 -350331
653329276446312850 -50443 -75707 -67452 -350372
653329276453743904 -50443 -75428 -67203 -350250
653329276461174958 -50589 -75459 -67232 -350218
653329276468606012 -50703 -75527 -67136 -350202
653329276476037066 -50658 -75473 -67269 -350238
653329276483468120 -50630 -75405 -67251 -350235
653329276490899174 -50623 -75284 -67240 -350238
653329276498330228 -50652 -75209 -67267 -350224
653329276505761282 -50661 -75369 -67272 -350338
653329276513192336 -50625 -75365 -67097 -350293
653329276520623390 -50663 -75243 -67145 -350338
653329276528054444 -50596 -75137 -67189 -350303
653329276535485498 -50604 -75146 -67158 -350266
653329276542916552 -50578 -75269 -67073 -350275
653329276550347606 -50501 -75172 -67150 -350155
653329276557778660 -50350 -75044 -66988 -350118
653329276565209714 -50478 -75178 -66948 -350215
653329276572640768 -50410 -75184 -66971 -350217
653329276580009929 -50613 -75143 -67062 -350010
653329276587444624 -50447 -75065 -66976 -350118
653329276594879319 -50411 -74338 -67019 -350233
653329276602314014 -50428 -74740 -67064 -350241
653329276609748709 -50417 -74890 -67045 -350221
653329276617183404 -50290 -74862 -66936 -350210
653329276624618099 -49203 -73812 -65876 -349253
653329276632052794 -49810 -74421 -66509 -349778
653329276639487489 -50137 -74773 -66673 -350057
653329276646922184 -50109 -74820 -66763 -350151
653329276654356879 -49092 -74852 -66245 -349212
653329276661791574 -49743 -74888 -66529 -349831
653329276669226269 -50018 -74854 -66757 -350020
653329276676660964 -50008 -74758 -66848 -350185
653329276684095659 -50093 -74765 -66721 -350240
653329276691530354 -50076 -74793 -66769 -350249
653329276698965049 -50019 -74733 -66629 -350162
653329276706399744 -50030 -74699 -66585 -350283
653329276713772544 -49856 -74658 -66776 -350225
653329276721210880 -49924 -74622 -66779 -350178
653329276728649216 -49914 -74575 -66653 -350152
653329276736087552 -50058 -74613 -66723 -350185
653329276743525888 -50093 -74358 -66649 -350188
653329276750964224 -49886 -74444 -66589 -350280
653329276758402560 -49937 -74385 -66517 -350193
653329276765840896 -49985 -74568 -66517 -350248
653329276773279232 -49828 -74284 -66499 -350128
653329276780717568 -49701 -74291 -66445 -350162
653329276788155904 -49800 -74463 -66498 -350294
653329276795594240 -49774 -74387 -66478 -350259
653329276803032576 -49731 -74349 -66473 -350116
653329276810470912 -49868 -74284 -66546 -350095
653329276817909248 -49867 -74277 -66355 -350164
653329276825347584 -49803 -74278 -66286 -350190
653329276832785920 -49832 -74288 -66463 -350277
653329276840224256 -49746 -74119 -66330 -350211
653329276847724489 -49908 -74083 -66222 -350268
653329276855159184 -49725 -74118 -66462 -350304
653329276862593879 -49760 -74073 -66297 -350214
653329276870028574 -49605 -74127 -66346 -350164
653329276877463269 -49510 -73987 -66161 -350199
653329276884897964 -49598 -74128 -66236 -350225
653329276892332659 -49474 -73998 -66198 -350174
653329276899767354 -49535 -73904 -66103 -350207
653329276907202049 -49603 -73999 -66087 -350360
653329276914636744 -49461 -73823 -66096 -350282
653329276922071439 -49592 -73959 -66138 -350302
653329276929506134 -49420 -73928 -66081 -350130
653329276936940829 -49548 -74044 -66322 -350203
653329276944375524 -48608 -73032 -65278 -349261
653329276951810219 -49119 -73499 -65838 -349897
653329276959244914 -49303 -73727 -66036 -349976
653329276966679609 -49422 -73872 -66181 -350156
653329276974114304 -48566 -74005 -65335 -349274
653329276981549001 -48916 -74118 -65697 -349866
653329276988983696 -49328 -74259 -66026 -350065
653329276996418391 -49467 -74212 -66205 -350166
653329277003853086 -49639 -74221 -66339 -350279
653329277011287781 -49671 -74177 -66276 -350201
653329277018722476 -49664 -74244 -66388 -350234
653329277026157171 -49809 -74244 -66393 -350270
653329277033591866 -49847 -74254 -66560 -350344
653329277041026561 -49796 -74227 -66480 -350331
653329277048461256 -49749 -74215 -66449 -350299
653329277055895951 -49857 -74202 -66433 -350284
653329277063330646 -49906 -74159 -66451 -350269
653329277070765341 -49873 -74154 -66571 -350288
653329277078200036 -49880 -74092 -66515 -350299
653329277085634731 -49766 -74139 -66535 -350323
653329277093069426 -49652 -73989 -66501 -350190
653329277100504121 -49649 -74059 -66502 -350251
653329277107938816 -49867 -74022 -66418 -350254
653329277115435410 -49910 -74253 -66432 -350377
653329277122866464 -49814 -74357 -66549 -350212
653329277130297518 -49813 -74173 -66452 -350165
653329277137728572 -49850 -74182 -66472 -350265
653329277145159626 -49763 -74237 -66514 -350168
653329277152590680 -49740 -74173 -66515 -350266
653329277160021734 -49728 -74109 -66540 -350235
653329277167452788 -49839 -74157 -66566 -350244
653329277174883842 -50005 -74264 -66502 -350401
653329277182314896 -49783 -74179 -66534 -350326
653329277189745950 -49920 -74044 -66541 -350244
653329277197177004 -49784 -74078 -66532 -350244
653329277204608058 -49836 -74083 -66525 -350389
653329277212039112 -49814 -74008 -66509 -350301
653329277219470166 -49716 -73953 -66395 -350231
653329277226901220 -49911 -73956 -66439 -350263
653329277234332274 -49843 -73999 -66525 -350224
653329277241763328 -49850 -74022 -66465 -350291
653329277249070592 -49893 -74270 -66537 -350338
653329277256508928 -49933 -74120 -66628 -350287
653329277263947264 -49059 -72973 -65537 -349233
653329277271385600 -49408 -73536 -65995 -349770
653329277278823936 -49596 -73720 -66290 -350050
653329277286262272 -49664 -73861 -66424 -350172
653329277293700608 -48629 -73858 -65435 -349094
653329277301138944 -49287 -73961 -65996 -349660
653329277308577280 -49570 -73948 -66265 -349993
653329277316015616 -49664 -73888 -66402 -350068
653329277323453952 -49732 -74056 -66514 -350285
653329277330892288 -49639 -73863 -66420 -350263
653329277338330624 -49711 -73845 -66406 -350258
653329277345768960 -49691 -73847 -66500 -350228
653329277353207296 -49704 -73783 -66441 -350332
653329277360645632 -49689 -73846 -66406 -350256
653329277368083968 -49673 -73755 -66414 -350157
653329277375522304 -49845 -73798 -66433 -350235
653329277383022537 -49527 -73651 -66554 -350385
653329277390457232 -49558 -73765 -66521 -350272
653329277397891927 -49600 -73845 -66412 -350310
653329277405326622 -49712 -73768 -66515 -350234
653329277412761317 -49590 -73696 -66245 -350154
653329277420196012 -49578 -73669 -66319 -350163
653329277427630707 -49672 -73790 -66433 -350202
653329277435065402 -49763 -73859 -66447 -350233
653329277442500097 -49538 -73770 -66338 -350102
653329277449934792 -49574 -73688 -66294 -350182
653329277457369487 -49637 -73633 -66363 -350382
653329277464804182 -49611 -73681 -66465 -350297
653329277472238877 -49749 -73671 -66577 -350317
653329277479673572 -49593 -73645 -66498 -350202
653329277487108267 -49595 -73673 -66408 -350229
653329277494542962 -49555 -73622 -66394 -350282
653329277501977657 -49586 -73608 -66459 -350286
653329277509412352 -49467 -73536 -66354 -350213
653329277516785152 -49754 -73244 -66396 -350480
653329277524223488 -49597 -73487 -66425 -350402
653329277531661824 -49527 -73448 -66348 -350298
653329277539100160 -49452 -73369 -66216 -350307
653329277546538496 -49477 -73469 -66263 -350287
653329277553976832 -49531 -73510 -66264 -350259
653329277561415168 -49485 -73502 -66268 -350252
653329277568853504 -49361 -73458 -66241 -350163
653329277576291840 -49333 -73392 -66145 -350179
653329277583730176 -48825 -72507 -65164 -349246
653329277591168512 -49233 -73050 -65817 -349820
653329277598606848 -49290 -73307 -66132 -350147
653329277606045184 -49328 -73296 -66180 -350283
653329277613483520 -48328 -73332 -65232 -349246
653329277620921856 -48973 -73316 -65810 -349816
653329277628360192 -49236 -73309 -66082 -350080
653329277635798528 -49321 -73372 -66167 -350214
653329277643236864 -49438 -73311 -66310 -350302
653329277650798994 -49171 -73381 -66339 -350035
653329277658230048 -49276 -73264 -66126 -350114
653329277665661102 -49331 -73278 -66193 -350219
653329277673092156 -49330 -73283 -66178 -350355
653329277680523210 -49294 -73143 -66101 -350198
653329277687954264 -49230 -73181 -66130 -350191
653329277695385318 -49361 -73315 -66133 -350283
653329277702816372 -49253 -73103 -66107 -350335
653329277710247426 -49299 -73023 -65972 -350220
653329277717678480 -49237 -73044 -65994 -350286
653329277725109534 -49263 -73180 -66030 -350358
653329277732540588 -49173 -72949 -65802 -350268
653329277739971642 -49220 -73014 -66022 -350302
653329277747402696 -49082 -72975 -65993 -350294
653329277754833750 -49161 -73157 -65922 -350291
653329277762264804 -49025 -73075 -65918 -350230
653329277769695858 -48972 -72869 -65835 -350246
653329277777126912 -49034 -72883 -65820 -350195
653329277784434176 -49401 -72942 -66009 -350062
653329277791872512 -49108 -72989 -65961 -350195
653329277799310848 -49121 -72932 -65962 -350254
653329277806749184 -49206 -72886 -65958 -350293
653329277814187520 -49347 -73083 -65938 -350257
653329277821625856 -49263 -73154 -65951 -350293
653329277829064192 -49330 -73014 -65972 -350210
653329277836502528 -49325 -73064 -65962 -350248
653329277843940864 -49442 -73150 -66112 -350370
653329277851379200 -49479 -73167 -66276 -350389
653329277858817536 -49428 -73172 -66105 -350324
653329277866255872 -49396 -73154 -66169 -350306
653329277873694208 -49374 -73145 -66132 -350264
653329277881132544 -49475 -73128 -66194 -350254
653329277888570880 -49457 -73186 -66219 -350197
653329277896009216 -49530 -73237 -66334 -350310
653329277903447552 -49276 -72123 -65276 -349187
653329277910885888 -49417 -72716 -65751 -349687
653329277918386121 -49604 -72974 -66161 -349764
653329277925820816 -49566 -73091 -66251 -350001
653329277933255511 -48456 -72822 -65240 -349088
653329277940690206 -49011 -73024 -65884 -349704
653329277948124901 -49258 -73069 -66088 -350035
653329277955559596 -49442 -73139 -66283 -350161
653329277962994291 -49536 -73204 -66246 -350351
653329277970428986 -49609 -73216 -66441 -350236
653329277977863681 -49574 -73320 -66352 -350276
653329277985298376 -49614 -73367 -66413 -350335
653329277992733071 -49606 -73238 -66315 -350303
653329278000167766 -49645 -73208 -66497 -350245
653329278007602461 -49678 -73119 -66472 -350253
653329278015037156 -49760 -73153 -66483 -350280
653329278022471851 -49809 -73202 -66554 -350306
653329278029906546 -49610 -73208 -66464 -350337
653329278037341241 -49641 -73348 -66357 -350272
653329278044775936 -49669 -73279 -66425 -350345
653329278052272530 -49392 -73256 -66385 -350163
653329278059703584 -49435 -73137 -66420 -350172
653329278067134638 -49418 -73090 -66407 -350148
653329278074565692 -49541 -73066 -66438 -350289
653329278081996746 -49386 -73069 -66398 -350211
653329278089427800 -49563 -73051 -66374 -350279
653329278096858854 -49712 -73088 -66402 -350200
653329278104289908 -49693 -73151 -66459 -350331
653329278111720962 -49643 -73150 -66356 -350259
653329278119152016 -49651 -73070 -66398 -350206
653329278126583070 -49701 -73138 -66465 -350306
653329278134014124 -49633 -73224 -66379 -350265
653329278141445178 -49644 -73269 -66404 -350366
653329278148876232 -49512 -73073 -66336 -350302
653329278156307286 -49649 -73077 -66404 -350342
653329278163738340 -49801 -73141 -66506 -350368
653329278171169394 -49681 -73123 -66470 -350361
653329278178600448 -49584 -73087 -66437 -350203
653329278185845832 -49669 -72894 -66331 -350008
653329278193287808 -49635 -72984 -66405 -350144
653329278200729784 -49595 -73037 -66393 -350248
653329278208171760 -49631 -73072 -66298 -350213
653329278215613736 -49736 -73139 -66468 -350350
653329278223055712 -49452 -72077 -65428 -349264
653329278230497688 -49499 -72737 -65938 -349826
653329278237939664 -49476 -72815 -66246 -350047
653329278245381640 -49480 -72916 -66393 -350197
653329278252823616 -48606 -72356 -65460 -349262
653329278260265592 -49095 -72569 -66023 -349773
653329278267707568 -49360 -72821 -66248 -350067
653329278275149544 -49566 -72889 -66459 -350291
653329278282591520 -49758 -72988 -66572 -350374
653329278290033496 -49700 -72863 -66452 -350286
653329278297475472 -49491 -72877 -66361 -350218
653329278304917448 -49651 -72887 -66448 -350308
653329278312359424 -49640 -72904 -66338 -350196
653329278319987090 -49701 -73042 -66145 -350399
653329278327418144 -49504 -72812 -66242 -350320
653329278334849198 -49615 -72880 -66305 -350281
653329278342280252 -49459 -72876 -66351 -350252
653329278349711306 -49304 -72743 -66202 -350245
653329278357142360 -49392 -72812 -66299 -350330
653329278364573414 -49470 -72742 -66239 -350294
653329278372004468 -49387 -72575 -66148 -350178
653329278379435522 -49360 -72598 -66158 -350186
653329278386866576 -49283 -72594 -66150 -350216
653329278394297630 -49416 -72757 -66237 -350314
653329278401728684 -49161 -72674 -65932 -350077
653329278409159738 -49288 -72666 -66105 -350183
653329278416590792 -49273 -72567 -66132 -350215
653329278424021846 -49290 -72678 -66073 -350271
653329278431452900 -49307 -72681 -66235 -350307
653329278438883954 -49233 -72532 -66008 -350216
653329278446315008 -49345 -72627 -66282 -350291
653329278453684169 -49393 -72525 -66333 -350345
653329278461118864 -49316 -72470 -66300 -350303
653329278468553559 -49242 -72477 -66140 -350296
653329278475988254 -49194 -72496 -66104 -350338
653329278483422949 -49276 -72488 -66093 -350366
653329278490857644 -49296 -72459 -66196 -350267
653329278498292339 -49265 -72478 -66184 -350299
653329278505727034 -49201 -72492 -66137 -350305
653329278513161729 -49245 -72403 -66108 -350276
653329278520596424 -49082 -72350 -66004 -350302
653329278528031119 -49052 -72388 -65997 -350304
653329278535465814 -49185 -72397 -66112 -350325
653329278542900509 -49116 -71349 -64968 -349296
653329278550335204 -49101 -72042 -65525 -349945
653329278557769899 -48965 -72136 -65720 -350098
653329278565204594 -49064 -72251 -65854 -350215
653329278572639289 -48058 -71217 -64834 -349265
653329278580073984 -48528 -71781 -65462 -349849
653329278587508681 -49078 -72077 -65454 -349980
653329278594943376 -49122 -72282 -65854 -350222
653329278602378071 -48584 -72233 -65845 -350245
653329278609812766 -48727 -72129 -65810 -350300
653329278617247461 -48931 -72231 -65811 -350276
653329278624682156 -48916 -72285 -65821 -350391
653329278632116851 -48982 -72117 -65823 -350302
653329278639551546 -49066 -72158 -65884 -350309
653329278646986241 -49016 -72068 -65753 -350287
653329278654420936 -49033 -72087 -65807 -350383
653329278661855631 -48901 -72128 -65781 -350377
653329278669290326 -48805 -71996 -65548 -350265
653329278676725021 -48823 -72003 -65535 -350305
653329278684159716 -48924 -72045 -65657 -350358
653329278691594411 -48746 -71863 -65491 -350188
653329278699029106 -48842 -71936 -65622 -350263
653329278706463801 -48773 -71942 -65690 -350301
653329278713898496 -48990 -72110 -65586 -350374
653329278721333193 -48549 -72281 -65610 -350220
653329278728767888 -48686 -72145 -65612 -350228
653329278736202583 -48703 -72087 -65681 -350306
653329278743637278 -48934 -72096 -65738 -350315
653329278751071973 -48915 -72207 -65741 -350258
653329278758506668 -48890 -72132 -65655 -350268
653329278765941363 -48975 -72241 -65808 -350313
653329278773376058 -48895 -72302 -65749 -350396
653329278780810753 -48921 -72166 -65730 -350294
653329278788245448 -48849 -72137 -65701 -350297
653329278795680143 -48979 -72151 -65854 -350385
653329278803114838 -48930 -72264 -65918 -350334
653329278810549533 -48979 -72277 -65849 -350421
653329278817984228 -49011 -72066 -65803 -350377
653329278825418923 -49029 -72161 -65809 -350310
653329278832853618 -48982 -72090 -65728 -350258
653329278840288313 -48942 -72109 -65729 -350242
653329278847723008 -48964 -72206 -65757 -350246
653329278855095808 -49279 -72218 -65471 -349951
653329278862534144 -49152 -71181 -64732 -349625
653329278869972480 -48952 -71572 -65307 -350000
653329278877410816 -48798 -71808 -65548 -350135
653329278884849152 -49081 -72050 -65787 -350273
653329278892287488 -48016 -71129 -64761 -349277
653329278899725824 -48452 -71591 -65305 -349688
653329278907164160 -48884 -71849 -65653 -350029
653329278914602496 -48978 -72053 -65775 -350212
653329278922040832 -48399 -72077 -65849 -350200
653329278929479168 -48730 -72024 -65860 -350232
653329278936917504 -48797 -72061 -65776 -350292
653329278944355840 -49010 -72080 -65919 -350367
653329278951794176 -48933 -72021 -65939 -350319
653329278959232512 -48964 -72068 -65785 -350281
653329278966670848 -49007 -72061 -65779 -350297
653329278974109184 -48972 -72054 -65825 -350365
653329278981547520 -48995 -71987 -65810 -350294
653329278989047753 -48735 -72241 -65837 -350381
653329278996482448 -48845 -72069 -65789 -350296
653329279003917143 -48996 -72123 -65879 -350392
653329279011351838 -49042 -71855 -65603 -350239
653329279018786533 -49011 -71979 -65857 -350299
653329279026221228 -48969 -72083 -65933 -350367
653329279033655923 -48990 -72032 -65916 -350297
653329279041090618 -48887 -71898 -65740 -350170
653329279048525313 -48936 -71891 -65895 -350156
653329279055960008 -48888 -71956 -65975 -350214
653329279063394703 -48953 -71912 -65945 -350282
653329279070829398 -48965 -71804 -65856 -350195
653329279078264093 -48968 -71924 -65790 -350253
653329279085698788 -49087 -72006 -65920 -350343
653329279093133483 -48974 -71962 -65865 -350298
653329279100568178 -48968 -71924 -65762 -350265
653329279108002873 -48919 -71839 -65791 -350272
653329279115437568 -48893 -71946 -65708 -350297
653329279122872265 -48864 -71913 -65962 -349986
653329279130306960 -48899 -71810 -65813 -350168
653329279137741655 -48902 -71955 -65862 -350159
653329279145176350 -48933 -71836 -65815 -350253
653329279152611045 -48961 -71701 -65730 -350237
653329279160045740 -48958 -71702 -65737 -350279
653329279167480435 -48895 -71674 -65712 -350205
653329279174915130 -48907 -71743 -65780 -350338
653329279182349825 -48821 -70694 -64766 -349974
653329279189784520 -48824 -71262 -65235 -350148
653329279197219215 -48739 -71471 -65492 -350135
653329279204653910 -48848 -71593 -65734 -350183
653329279212088605 -47764 -70514 -64541 -349126
653329279219523300 -48308 -71082 -65143 -349825
653329279226957995 -48678 -71339 -65378 -350027
653329279234392690 -48784 -71585 -65550 -350177
653329279241827385 -47694 -71537 -65529 -350208
653329279249262080 -48382 -71611 -65609 -350177
653329279256634880 -48383 -71799 -65445 -350033
653329279264073216 -48648 -71791 -65647 -350241
653329279271511552 -48780 -71806 -65628 -350271
653329279278949888 -48865 -71687 -65544 -350297
653329279286388224 -48801 -71724 -65555 -350432
653329279293826560 -48807 -71619 -65606 -350333
653329279301264896 -48832 -71530 -65608 -350311
653329279308703232 -48777 -71437 -65563 -350371
653329279316141568 -48835 -71542 -65570 -350385
653329279323579904 -48773 -71549 -65618 -350376
653329279331018240 -48718 -71575 -65500 -350258
653329279338456576 -48632 -71499 -65512 -350231
653329279345894912 -48774 -71571 -65600 -350235
653329279353333248 -48818 -71595 -65610 -350122
653329279360771584 -48693 -71451 -65473 -350113
653329279368209920 -48567 -71537 -65475 -350168
653329279375648256 -48720 -71495 -65637 -350160
653329279383086592 -48797 -71540 -65721 -350309
653329279390648722 -48826 -71478 -65603 -350357
653329279398079776 -48706 -71438 -65581 -350284
653329279405510830 -48694 -71371 -65604 -350418
653329279412941884 -48623 -71396 -65593 -350321
653329279420372938 -48605 -71401 -65503 -350305
653329279427803992 -48582 -71299 -65418 -350276
653329279435235046 -48575 -71405 -65502 -350341
653329279442666100 -48645 -71377 -65511 -350311
653329279450097154 -48593 -71358 -65507 -350316
653329279457528208 -48562 -71350 -65605 -350301
653329279464959262 -48572 -71244 -65434 -350215
653329279472390316 -48574 -71225 -65519 -350285
653329279479821370 -48610 -71195 -65364 -350310
653329279487252424 -48609 -71142 -65435 -350317
653329279494683478 -48463 -71259 -65467 -350324
653329279502114532 -48505 -70300 -64325 -350255
653329279509545586 -48521 -70814 -64835 -350225
653329279516976640 -48480 -70973 -65135 -350314
653329279524345801 -48808 -71302 -65012 -350462
653329279531780496 -47629 -70202 -64024 -349369
653329279539215191 -48133 -70741 -64695 -349807
653329279546649886 -48364 -71015 -65101 -350017
653329279554084581 -48329 -71182 -65166 -350144
653329279561519276 -47344 -71098 -65127 -350196
653329279568953971 -47853 -71217 -65198 -350247
653329279576388666 -48282 -71143 -65239 -350270
653329279583823361 -48341 -71148 -65369 -350310
653329279591258056 -48417 -71060 -65383 -350305
653329279598692751 -48393 -71189 -65312 -350210
653329279606127446 -48417 -71236 -65280 -350238
653329279613562141 -48467 -71232 -65418 -350227
653329279620996836 -48451 -71278 -65377 -350203
653329279628431531 -48370 -71265 -65307 -350202
653329279635866226 -48520 -71389 -65332 -350313
653329279643300921 -48674 -71324 -65427 -350333
653329279650735616 -48581 -71148 -65204 -350115
653329279658108416 -48729 -71138 -65537 -350389
653329279665546752 -48737 -71259 -65440 -350361
653329279672985088 -48702 -71316 -65454 -350399
653329279680423424 -48524 -71239 -65244 -350102
653329279687861760 -48643 -71236 -65284 -350212
653329279695300096 -48643 -71348 -65445 -350370
653329279702738432 -48771 -71401 -65471 -350291
653329279710176768 -48546 -71294 -65403 -350214
653329279717615104 -48658 -71280 -65480 -350232
653329279725053440 -48733 -71282 -65589 -350311
653329279732491776 -48610 -71297 -65474 -350178
653329279739930112 -48611 -71222 -65394 -350196
653329279747368448 -48635 -71367 -65401 -350229
653329279754806784 -48635 -71389 -65442 -350263
653329279762245120 -48727 -71274 -65482 -350227
653329279769683456 -48621 -71227 -65443 -350156
653329279777121792 -48694 -71367 -65494 -350193
653329279784560128 -48709 -71541 -65497 -350357
653329279792060361 -48667 -71412 -65530 -350296
653329279799495056 -48621 -71377 -65463 -350187
653329279806929751 -48650 -71168 -65472 -350188
653329279814364446 -48779 -71270 -65574 -350351
653329279821799141 -48773 -70211 -64485 -350317
653329279829233836 -48717 -70696 -65040 -350287
653329279836668531 -48793 -71076 -65252 -350276
653329279844103226 -48789 -71276 -65493 -350322
653329279851537921 -47671 -70238 -64551 -349262
653329279858972616 -48167 -70800 -65089 -349748
653329279866407311 -48492 -71042 -65364 -350037
653329279873842006 -48624 -71204 -65416 -350220
653329279881276701 -47646 -71165 -65485 -350258
653329279888711396 -48207 -71146 -65431 -350190
653329279896146091 -48611 -71193 -65565 -350276
653329279903580786 -48782 -71149 -65510 -350315
653329279911015481 -48842 -71151 -65565 -350287
653329279918450176 -48725 -71245 -65467 -350214
653329279925822976 -48780 -71410 -65242 -350375
653329279933261312 -48892 -71305 -65401 -350417
653329279940699648 -48733 -71243 -65393 -350282
653329279948137984 -48654 -71123 -65416 -350274
653329279955576320 -48796 -71231 -65498 -350225
653329279963014656 -48823 -71277 -65452 -350305
653329279970452992 -48712 -71042 -65374 -350135
653329279977891328 -48707 -71139 -65428 -350193
653329279985329664 -48725 -71114 -65494 -350242
653329279992768000 -48731 -71155 -65380 -350282
653329280000206336 -48523 -71049 -65370 -350122
653329280007644672 -48633 -71179 -65458 -350242
653329280015083008 -48824 -71146 -65554 -350305
653329280022521344 -48683 -71225 -65569 -350339
653329280029959680 -48694 -71312 -65384 -350270
653329280037398016 -48581 -71121 -65406 -350207
653329280044836352 -48645 -71146 -65476 -350285
653329280052274688 -48551 -70994 -65431 -350217
653329280059836818 -48680 -71244 -65276 -349996
653329280067267872 -48675 -71261 -65313 -350133
653329280074698926 -48682 -71190 -65430 -350177
653329280082129980 -48719 -71002 -65398 -350286
653329280089561034 -48740 -70916 -65357 -350195
653329280096992088 -48696 -71027 -65193 -350247
653329280104423142 -48684 -71111 -65367 -350296
653329280111854196 -48659 -71103 -65367 -350341
653329280119285250 -48728 -70972 -65331 -350277
653329280126716304 -48730 -71056 -65439 -350303
653329280134147358 -48722 -71061 -65451 -350281
653329280141578412 -48703 -69942 -64370 -349984
653329280149009466 -48744 -70482 -64919 -350190
653329280156440520 -48693 -70771 -65232 -350316
653329280163871574 -48719 -70922 -65452 -350309
653329280171302628 -47604 -69936 -64308 -349197
653329280178733682 -48053 -70483 -64766 -349737
653329280186164736 -48392 -70874 -65119 -350060
653329280193472000 -48716 -70979 -65311 -349979
653329280200910336 -47789 -70940 -65344 -350119
653329280208348672 -48244 -70820 -65293 -350142
653329280215787008 -48370 -70874 -65286 -350207
653329280223225344 -48496 -70912 -65364 -350258
653329280230663680 -48423 -70787 -65375 -350284
653329280238102016 -48497 -70840 -65328 -350250
653329280245540352 -48557 -70822 -65395 -350276
653329280252978688 -48511 -70909 -65388 -350280
653329280260417024 -48449 -70809 -65239 -350257
653329280267855360 -48424 -70812 -65270 -350195
653329280275293696 -48434 -70943 -65170 -350302
653329280282732032 -48507 -70783 -65243 -350314
653329280290170368 -48451 -70556 -65094 -350171
653329280297608704 -48370 -70584 -65018 -350140
653329280305047040 -48426 -70827 -65211 -350248
653329280312485376 -48318 -70711 -65215 -350309
653329280319923712 -48205 -70546 -65056 -350068
653329280327423945 -48095 -70812 -64880 -350300
653329280334858640 -48285 -70772 -65028 -350269
653329280342293335 -48344 -70676 -65156 -350264
653329280349728030 -48214 -70582 -64995 -350179
653329280357162725 -48335 -70599 -65015 -350223
653329280364597420 -48346 -70632 -65007 -350249
653329280372032115 -48281 -70501 -64954 -350227
653329280379466810 -48280 -70520 -64888 -350268
653329280386901505 -48368 -70525 -65000 -350280
653329280394336200 -48354 -70559 -65071 -350319
653329280401770895 -48249 -70574 -65023 -350259
653329280409205590 -48224 -70528 -64914 -350195
653329280416640285 -48161 -70565 -64930 -350234
653329280424074980 -48216 -70517 -64990 -350314
653329280431509675 -48199 -70499 -64952 -350290
653329280438944370 -48139 -70542 -64847 -350213
653329280446379065 -48200 -70597 -64878 -350314
653329280453813760 -48384 -70594 -64932 -350315
653329280461186560 -48017 -69723 -63858 -350391
653329280468624896 -48102 -70164 -64446 -350288
653329280476063232 -48174 -70336 -64699 -350272
653329280483501568 -48217 -70505 -64978 -350326
653329280490939904 -47154 -69516 -63967 -349216
653329280498378240 -47859 -70031 -64564 -349774
653329280505816576 -48121 -70437 -64726 -350077
653329280513254912 -48309 -70583 -65004 -350193
653329280520693248 -47208 -70578 -64957 -350199
653329280528131584 -47730 -70584 -64963 -350190
653329280535569920 -48175 -70631 -65058 -350298
653329280543008256 -48395 -70666 -64917 -350332
653329280550446592 -48367 -70761 -64880 -350289
653329280557884928 -48293 -70856 -64923 -350287
653329280565323264 -48383 -70755 -64969 -350320
653329280572761600 -48352 -70660 -65039 -350267
653329280580199936 -48176 -70632 -64906 -350223
653329280587638272 -48272 -70552 -65000 -350194
653329280595200402 -48085 -70525 -65259 -350525
653329280602631456 -48275 -70595 -65005 -350354
653329280610062510 -48252 -70493 -64738 -350121
653329280617493564 -48223 -70477 -64769 -350115
653329280624924618 -48249 -70614 -64877 -350207
653329280632355672 -48314 -70540 -64914 -350220
653329280639786726 -48079 -70399 -64834 -350020
653329280647217780 -48057 -70561 -64820 -350200
653329280654648834 -48207 -70562 -64979 -350265
653329280662079888 -48228 -70588 -64940 -350225
653329280669510942 -48252 -70531 -64802 -350267
653329280676941996 -48167 -70580 -64883 -350223
653329280684373050 -48229 -70594 -65013 -350364
653329280691804104 -48211 -70597 -65072 -350248
653329280699235158 -48109 -70525 -64895 -350283
653329280706666212 -48161 -70529 -64812 -350265
653329280714097266 -48209 -70515 -64989 -350442
653329280721528320 -48190 -70458 -64912 -350405
653329280728897481 -48329 -70536 -64662 -350154
653329280736332176 -48259 -70608 -64774 -350184
653329280743766871 -48178 -70501 -64809 -350186
653329280751201566 -48044 -70403 -64813 -350225
653329280758636261 -48166 -70326 -64835 -350236
653329280766070956 -48156 -70425 -64731 -350242
653329280773505651 -48100 -70573 -64811 -350248
653329280780940346 -47987 -69371 -63777 -350206
653329280788375041 -48040 -69961 -64379 -350248
653329280795809736 -47959 -70230 -64605 -350313
653329280803244431 -48111 -70362 -64727 -350230
653329280810679126 -47029 -69363 -63704 -349222
653329280818113821 -47552 -69849 -64277 -349791
653329280825548516 -47751 -70209 -64577 -350123
653329280832983211 -47912 -70202 -64717 -350239
653329280840417906 -46763 -70169 -64580 -349898
653329280847852601 -47448 -70208 -64571 -350098
653329280855287296 -47750 -70315 -64577 -350169
653329280862598216 -48041 -70432 -64444 -350365
653329280870040192 -47958 -70315 -64551 -350280
653329280877482168 -47830 -70347 -64567 -350143
653329280884924144 -47857 -70293 -64648 -350250
653329280892366120 -47874 -70185 -64545 -350193
653329280899808096 -47839 -70293 -64599 -350271
653329280907250072 -47826 -70292 -64422 -350276
653329280914692048 -47910 -70396 -64433 -350302
653329280922134024 -47868 -70402 -64478 -350274
653329280929576000 -47899 -70038 -64436 -350206
653329280937017976 -47849 -70132 -64500 -350351
653329280944459952 -47873 -70241 -64580 -350351
653329280951901928 -47804 -70224 -64555 -350365
653329280959343904 -47533 -69943 -64296 -350143
653329280966785880 -47655 -69996 -64379 -350179
653329280974227856 -47685 -70068 -64514 -350298
653329280981669832 -47602 -70033 -64410 -350207
653329280989111808 -47432 -69995 -64410 -350257
653329280996739474 -47714 -69749 -64283 -350103
653329281004170528 -47694 -70002 -64236 -350271
653329281011601582 -47632 -70041 -64383 -350247
653329281019032636 -47588 -69944 -64245 -350251
653329281026463690 -47582 -70068 -64324 -350198
653329281033894744 -47547 -70011 -64456 -350305
653329281041325798 -47366 -69930 -64387 -350198
653329281048756852 -47314 -69904 -64425 -350134
653329281056187906 -47403 -69867 -64356 -350236
653329281063618960 -47587 -69905 -64306 -350265
653329281071050014 -47473 -69952 -64251 -350212
653329281078481068 -47330 -69925 -64144 -350240
653329281085912122 -47427 -69929 -64291 -350333
653329281093343176 -47461 -69852 -64297 -350352
653329281100774230 -47408 -68771 -63635 -350258
653329281108205284 -47326 -69294 -63971 -350230
653329281115636338 -47311 -69641 -64018 -350237
653329281123067392 -47361 -69711 -64068 -350220
653329281130374656 -46387 -68782 -63163 -349285
653329281137812992 -46986 -69311 -63694 -349803
653329281145251328 -47115 -69667 -63926 -350137
653329281152689664 -47091 -69754 -64000 -350249
653329281160128000 -46186 -69663 -64006 -349409
653329281167566336 -46632 -69701 -63941 -349891
653329281175004672 -46867 -69715 -64040 -350183
653329281182443008 -47036 -69587 -64030 -350221
653329281189881344 -46977 -69552 -63911 -350196
653329281197319680 -46911 -69501 -63845 -350271
653329281204758016 -47192 -69626 -64005 -350353
653329281212196352 -47098 -69619 -63923 -350292
653329281219634688 -46990 -69537 -63848 -350305
653329281227073024 -47034 -69754 -63909 -350307
653329281234511360 -47186 -69742 -63920 -350324
653329281241949696 -47069 -69650 -63896 -350317
653329281249388032 -47041 -69369 -63749 -350251
653329281256826368 -47038 -69780 -63820 -350253
653329281264388498 -46942 -69655 -63694 -350498
653329281271819552 -47022 -69670 -63880 -350304
653329281279250606 -46756 -69537 -63686 -350081
653329281286681660 -47085 -69892 -63906 -350245
653329281294112714 -47148 -69820 -63894 -350166
653329281301543768 -47134 -69698 -63869 -350193
653329281308974822 -47005 -69501 -63845 -350195
653329281316405876 -47042 -69790 -63900 -350202
653329281323836930 -47106 -69739 -63932 -350299
653329281331267984 -47113 -69643 -63831 -350177
653329281338699038 -47138 -69607 -63915 -350229
653329281346130092 -47129 -69665 -63978 -350284
653329281353561146 -47123 -69528 -63882 -350201
653329281360992200 -47113 -69614 -63829 -350273
653329281368423254 -47053 -69658 -63859 -350301
653329281375854308 -47063 -69765 -63922 -350377
653329281383285362 -46995 -69795 -63877 -350255
653329281390716416 -47048 -69828 -63796 -350232
653329281398085577 -46881 -69489 -63552 -350257
653329281405520272 -46929 -69637 -63771 -350274
653329281412954967 -46938 -69707 -63750 -350250
653329281420389662 -47049 -68625 -63467 -350280
653329281427824357 -46967 -69281 -63690 -350236
653329281435259052 -46991 -69587 -63753 -350222
653329281442693747 -47054 -69558 -63723 -350244
653329281450128442 -45999 -68510 -62678 -349189
653329281457563137 -46522 -69087 -63209 -349745
653329281464997832 -46824 -69367 -63602 -350075
653329281472432527 -46877 -69592 -63698 -350249
653329281479867222 -45785 -69459 -63551 -349167
653329281487301917 -46501 -69621 -63719 -349789
653329281494736612 -46645 -69661 -63783 -350036
653329281502171307 -46764 -69675 -63693 -350244
653329281509606002 -46936 -69510 -63758 -350326
653329281517040697 -46926 -69700 -63652 -350208
653329281524475392 -46843 -69641 -63711 -350280
653329281531910089 -47029 -69613 -63776 -350428
653329281539344784 -46742 -69458 -63621 -350230
653329281546779479 -46768 -69572 -63584 -350300
653329281554214174 -46696 -69528 -63574 -350233
653329281561648869 -46625 -69500 -63557 -350181
653329281569083564 -46594 -69399 -63342 -350166
653329281576518259 -46653 -69481 -63603 -350218
653329281583952954 -46696 -69543 -63502 -350354
653329281591387649 -46666 -69466 -63556 -350299
653329281598822344 -46544 -69311 -63371 -350173
653329281606257039 -46563 -69499 -63399 -350239
653329281613691734 -46554 -69508 -63558 -350293
653329281621126429 -46482 -69355 -63470 -350279
653329281628561124 -46464 -69375 -63391 -350275
653329281635995819 -46507 -69366 -63550 -350275
653329281643430514 -46637 -69486 -63529 -350242
653329281650865209 -46646 -69430 -63361 -350324
653329281658299904 -46442 -69337 -63453 -350253
653329281665672704 -46370 -69106 -63381 -350101
653329281673111040 -46435 -69205 -63365 -350296
653329281680549376 -46467 -69287 -63476 -350335
653329281687987712 -46445 -69329 -63411 -350234
653329281695426048 -46430 -69321 -63430 -350347
653329281702864384 -46433 -69311 -63357 -350334
653329281710302720 -46362 -69266 -63325 -350294
653329281717741056 -46385 -69268 -63196 -350259
653329281725179392 -46482 -69268 -63327 -350317
653329281732617728 -46424 -69327 -63318 -350355
653329281740056064 -46545 -68202 -63367 -350274
653329281747494400 -46419 -68799 -63316 -350202
653329281754932736 -46452 -69104 -63317 -350302
653329281762371072 -46353 -69109 -63262 -350252
653329281769809408 -45363 -68128 -62149 -349135
653329281777247744 -46016 -68694 -62745 -349856
653329281784686080 -46178 -69049 -63139 -350089
653329281792124416 -46294 -69083 -63159 -350180
653329281799562752 -45350 -69161 -63140 -349227
653329281807001088 -45873 -69167 -63158 -349840
653329281814439424 -46331 -69177 -63185 -350135
653329281821877760 -46268 -69301 -63124 -350168
653329281829316096 -46163 -69077 -63084 -350088
653329281836754432 -46209 -69062 -63051 -350259
653329281844192768 -46357 -69086 -63073 -350296
653329281851631104 -46226 -69114 -63034 -350236
653329281859069440 -46112 -69052 -63054 -350216
653329281866507776 -46179 -69172 -63084 -350289
653329281873946112 -46162 -69084 -63052 -350266
653329281881384448 -46268 -69150 -63088 -350201
653329281888822784 -46204 -68895 -62944 -350163
653329281896261120 -46120 -68969 -63067 -350246
653329281903699456 -46128 -69038 -62992 -350241
653329281911137792 -46081 -68962 -62977 -350186
653329281918576128 -45932 -68801 -62773 -350117
653329281926014464 -46100 -68899 -62875 -350366
653329281933514697 -46201 -69023 -62765 -350072
653329281940949392 -46134 -68977 -62975 -350185
653329281948384087 -46016 -68935 -63032 -350174
653329281955818782 -46154 -69006 -63038 -350292
653329281963253477 -46150 -69117 -63180 -350284
653329281970688172 -46151 -69047 -63139 -350304
653329281978122867 -46057 -69031 -63075 -350365
653329281985557562 -46072 -69072 -63102 -350354
653329281992992257 -46110 -69025 -63011 -350240
653329282000426952 -46180 -68897 -63048 -350221
653329282007861647 -46199 -69012 -62985 -350210
653329282015296342 -46169 -69158 -63084 -350296
653329282022731037 -46159 -69137 -63025 -350324
653329282030165732 -46111 -69137 -63076 -350320
653329282037600427 -46135 -69143 -62995 -350331
653329282045035122 -46252 -69232 -63079 -350293
653329282052469817 -46229 -69324 -63040 -350154
653329282059904512 -46208 -68342 -63126 -350199
653329282067401106 -46000 -68677 -63237 -349964
653329282074832160 -46271 -69022 -63333 -350235
653329282082263214 -46386 -69197 -63244 -350247
653329282089694268 -45318 -68276 -62184 -349250
653329282097125322 -45989 -68865 -62898 -349794
653329282104556376 -46346 -69318 -63103 -350078
653329282111987430 -46589 -69393 -63278 -350289
653329282119418484 -45360 -69353 -62635 -349174
653329282126849538 -46143 -69462 -63145 -349846
653329282134280592 -46414 -69495 -63379 -350031
653329282141711646 -46399 -69564 -63360 -350123
653329282149142700 -46507 -69588 -63549 -350190
653329282156573754 -46607 -69537 -63667 -350239
653329282164004808 -46631 -69612 -63606 -350288
653329282171435862 -46527 -69492 -63642 -350328
653329282178866916 -46653 -69518 -63690 -350224
653329282186297970 -46785 -69659 -63779 -350241
653329282193729024 -46893 -69700 -63793 -350279
653329282200974408 -47052 -70074 -64040 -350170
653329282208416384 -46928 -69810 -63775 -350304
653329282215858360 -46892 -69798 -63880 -350344
653329282223300336 -46907 -69775 -63847 -350307
653329282230742312 -46874 -69870 -63989 -350308
653329282238184288 -46691 -69760 -63756 -350136
653329282245626264 -46729 -69850 -63808 -350199
653329282253068240 -46747 -69888 -63820 -350353
653329282260510216 -46931 -69957 -63916 -350319
653329282267952192 -46823 -70055 -63856 -350248
653329282275394168 -46951 -70080 -64056 -350219
653329282282836144 -46932 -69997 -63998 -350297
653329282290278120 -46863 -69877 -63966 -350265
653329282297720096 -46946 -70047 -64148 -350292
653329282305162072 -46954 -70061 -64117 -350353
653329282312604048 -47078 -70202 -64132 -350388
653329282320046024 -47020 -70132 -64090 -350259
653329282327488000 -47085 -70053 -64031 -350223
653329282335115666 -47201 -70195 -64279 -350521
653329282342546720 -47020 -70151 -64219 -350410
653329282349977774 -46937 -70062 -64189 -350303
653329282357408828 -47029 -70271 -64222 -350314
653329282364839882 -47149 -70228 -64286 -350314
653329282372270936 -47063 -70283 -64210 -350283
653329282379701990 -47073 -70230 -64271 -350271
653329282387133044 -47237 -70160 -64349 -350405
653329282394564098 -47247 -70313 -64424 -350370
653329282401995152 -47297 -70255 -64342 -350420
653329282409426206 -46550 -69238 -63417 -349267
653329282416857260 -47054 -69912 -64076 -349918
653329282424288314 -47174 -70068 -64296 -350106
653329282431719368 -47210 -70267 -64328 -350180
653329282439150422 -46073 -70295 -63340 -349160
653329282446581476 -46748 -70234 -64015 -349740
653329282454012530 -47029 -70420 -64286 -349972
653329282461443584 -47130 -70280 -64358 -350040
653329282468750848 -47430 -70402 -64072 -350076
653329282476189184 -47325 -70334 -64270 -350242
653329282483627520 -47288 -70383 -64380 -350273
653329282491065856 -47293 -70433 -64397 -350247
653329282498504192 -47229 -70414 -64458 -350191
653329282505942528 -47463 -70481 -64568 -350216
653329282513380864 -47380 -70577 -64561 -350313
653329282520819200 -47286 -70392 -64465 -350208
653329282528257536 -47289 -70270 -64433 -350200
653329282535695872 -47374 -70433 -64508 -350269
653329282543134208 -47459 -70390 -64638 -350306
653329282550572544 -47226 -70345 -64459 -350214
653329282558010880 -47214 -70369 -64441 -350159
653329282565449216 -47285 -70432 -64470 -350204
653329282572887552 -47325 -70475 -64639 -350274
653329282580325888 -47398 -70454 -64700 -350264
653329282587764224 -47177 -70415 -64535 -350125
653329282595202560 -47305 -70534 -64594 -350275
653329282602702793 -47318 -70611 -64572 -350327
653329282610137488 -47337 -70668 -64611 -350274
653329282617572183 -47267 -70577 -64531 -350297
653329282625006878 -47366 -70569 -64650 -350321
653329282632441573 -47454 -70518 -64601 -350231
653329282639876268 -47375 -70576 -64613 -350241
653329282647310963 -47341 -70632 -64635 -350173
653329282654745658 -47428 -70583 -64654 -350232
653329282662180353 -47515 -70552 -64671 -350242
653329282669615048 -47453 -70489 -64665 -350256
653329282677049743 -47462 -70597 -64677 -350230
653329282684484438 -47434 -70659 -64663 -350250
653329282691919133 -47421 -70575 -64800 -350277
653329282699353828 -47442 -70646 -64793 -350190
653329282706788523 -47385 -70654 -64773 -350232
653329282714223218 -47405 -70556 -64746 -350307
653329282721657913 -47355 -70541 -64695 -350228
653329282729092608 -47302 -69577 -63589 -349207
653329282736589202 -47300 -70319 -63972 -349875
653329282744020256 -47075 -70441 -64287 -350314
653329282751451310 -47217 -70528 -64547 -350256
653329282758882364 -46189 -69490 -63625 -349200
653329282766313418 -46952 -70216 -64287 -349896
653329282773744472 -47147 -70505 -64538 -350078
653329282781175526 -47306 -70507 -64757 -350129
653329282788606580 -47121 -70573 -64782 -350231
653329282796037634 -47249 -70715 -64781 -350322
653329282803468688 -47399 -70776 -64757 -350249
653329282810899742 -47330 -70650 -64650 -350150
653329282818330796 -47470 -70722 -64692 -350196
653329282825761850 -47569 -70823 -64843 -350200
653329282833192904 -47663 -70778 -64933 -350206
653329282840623958 -47579 -70872 -64969 -350307
653329282848055012 -47558 -70933 -64925 -350253
653329282855486066 -47536 -70973 -64977 -350227
653329282862917120 -47591 -71029 -65050 -350223
653329282870162504 -47778 -70683 -64701 -350079
653329282877604480 -47639 -70741 -64811 -350084
653329282885046456 -47695 -71014 -65075 -350179
653329282892488432 -47847 -71035 -65100 -350135
653329282899930408 -47816 -71189 -65175 -350239
653329282907372384 -47638 -71142 -65063 -350077
653329282914814360 -47868 -71208 -65246 -350200
653329282922256336 -47888 -71411 -65204 -350276
653329282929698312 -47866 -71313 -65281 -350210
653329282937140288 -47870 -71532 -65384 -350227
653329282944582264 -48074 -71511 -65529 -350207
653329282952024240 -48079 -71497 -65554 -350208
653329282959466216 -47990 -71685 -65537 -350218
653329282966908192 -48132 -71701 -65620 -350220
653329282974350168 -48251 -71758 -65701 -350300
653329282981792144 -48291 -71807 -65629 -350291
653329282989234120 -48317 -71717 -65670 -350263
653329282996676096 -48275 -71857 -65718 -350310
653329283004303762 -48235 -71850 -65603 -350146
653329283011734816 -48338 -71876 -65667 -350126
653329283019165870 -48398 -72029 -65871 -350194
653329283026596924 -48433 -72099 -65996 -350342
653329283034027978 -48570 -72075 -66039 -350301
653329283041459032 -48557 -72173 -65922 -350318
653329283048890086 -48571 -71147 -65004 -349369
653329283056321140 -48682 -71870 -65569 -349892
653329283063752194 -48584 -72029 -65848 -350086
653329283071183248 -48639 -72077 -66003 -350125
653329283078614302 -47578 -71170 -65034 -349125
653329283086045356 -48107 -71754 -65681 -349755
653329283093476410 -48479 -72192 -65950 -350017
653329283100907464 -48471 -72126 -66116 -350062
653329283108338518 -48159 -72204 -66207 -350215
653329283115769572 -48577 -72371 -66312 -350299
653329283123200626 -48717 -72392 -66299 -350318
653329283130631680 -48792 -72482 -66220 -350296
653329283137877064 -48805 -72746 -66410 -350037
653329283145319040 -48885 -72648 -66399 -350097
653329283152761016 -48895 -72642 -66386 -350201
653329283160202992 -48848 -72601 -66440 -350177
653329283167644968 -48881 -72594 -66398 -350227
653329283175086944 -49007 -72660 -66495 -350345
653329283182528920 -49053 -72675 -66493 -350265
653329283189970896 -49010 -72672 -66482 -350242
653329283197412872 -49001 -72573 -66502 -350101
653329283204854848 -49074 -72846 -66506 -350205
653329283212296824 -49177 -72782 -66643 -350231
653329283219738800 -49000 -72701 -66568 -350248
653329283227180776 -48906 -72853 -66542 -350133
653329283234622752 -49365 -72662 -66622 -350294
653329283242064728 -49265 -72779 -66652 -350325
653329283249506704 -49120 -72870 -66620 -350239
653329283256948680 -49174 -72967 -66752 -350267
653329283264390656 -49324 -73070 -66907 -350395
653329283272018322 -49426 -73092 -66518 -350424
653329283279449376 -49207 -73043 -66641 -350268
653329283286880430 -49320 -72996 -66768 -350343
653329283294311484 -49403 -73007 -66660 -350195
653329283301742538 -49109 -72968 -66753 -350388
653329283309173592 -49129 -73057 -66761 -350291
653329283316604646 -49239 -73126 -66813 -350313
653329283324035700 -49169 -73169 -66847 -350377
653329283331466754 -49299 -73096 -66901 -350350
653329283338897808 -49215 -73087 -66808 -350259
653329283346328862 -49351 -73249 -66893 -350300
653329283353759916 -49547 -73150 -66991 -350367
653329283361190970 -49376 -73210 -66928 -350255
653329283368622024 -49300 -72203 -65831 -349636
653329283376053078 -49470 -72768 -66492 -349956
653329283383484132 -49435 -72916 -66806 -350156
653329283390915186 -49350 -73143 -66847 -350267
653329283398346240 -48257 -72250 -65954 -349212
653329283405653504 -48955 -72639 -66327 -349739
653329283413091840 -49268 -73085 -66672 -350084
653329283420530176 -49182 -73116 -66918 -350126
653329283427968512 -48617 -73224 -66978 -350199
653329283435406848 -48973 -73263 -67051 -350276
653329283442845184 -49187 -73265 -67009 -350219
653329283450283520 -49288 -73215 -66994 -350237
653329283457721856 -49352 -73184 -67093 -350247
653329283465160192 -49439 -73508 -67129 -350220
653329283472598528 -49409 -73374 -67162 -350287
653329283480036864 -49390 -73386 -66974 -350300
653329283487475200 -49436 -73434 -67097 -350259
653329283494913536 -49456 -73372 -67055 -350138
653329283502351872 -49490 -73447 -67044 -350234
653329283509790208 -49433 -73375 -67039 -350242
653329283517228544 -49418 -73265 -67016 -350102
653329283524666880 -49528 -73397 -67285 -350218
653329283532105216 -49464 -73488 -67214 -350253
653329283539605449 -49392 -73547 -67278 -350078
653329283547040144 -49215 -73392 -67017 -350064
653329283554474839 -49614 -73501 -67218 -350267
653329283561909534 -49556 -73550 -67238 -350251
653329283569344229 -49488 -73607 -67210 -350234
653329283576778924 -49444 -73531 -67236 -350254
653329283584213619 -49552 -73572 -67269 -350390
653329283591648314 -49477 -73510 -67252 -350252
653329283599083009 -49521 -73520 -67242 -350296
653329283606517704 -49611 -73622 -67294 -350323
653329283613952399 -49625 -73492 -67302 -350377
653329283621387094 -49647 -73442 -67224 -350258
653329283628821789 -49593 -73482 -67203 -350281
653329283636256484 -49572 -73481 -67267 -350272
653329283643691179 -49591 -73500 -67317 -350281
653329283651125874 -49516 -73471 -67305 -350159
653329283658560569 -49541 -73536 -67249 -350144
653329283665995264 -49440 -73633 -67243 -350231
653329283673429961 -49655 -73825 -67312 -350053
653329283680864656 -49536 -73635 -67289 -350116
653329283688299351 -49713 -72629 -66356 -350055
653329283695734046 -49767 -73298 -66915 -350263
653329283703168741 -49761 -73678 -67244 -350249
653329283710603436 -49765 -73851 -67350 -350280
653329283718038131 -48822 -72840 -66565 -349209
653329283725472826 -49488 -73645 -67141 -349889
653329283732907521 -49740 -73832 -67426 -350144
653329283740342216 -49806 -73912 -67563 -350186
653329283747776911 -48960 -74212 -67687 -350197
653329283755211606 -49776 -74410 -67807 -350353
653329283762646301 -50028 -74414 -67824 -350299
653329283770080996 -50139 -74350 -67848 -350347
653329283777515691 -50267 -74384 -67946 -350317
653329283784950386 -50299 -74541 -67943 -350305
653329283792385081 -50383 -74587 -68068 -350353
653329283799819776 -50393 -74588 -68075 -350283
653329283807192576 -50196 -74504 -67855 -350026
653329283814630912 -50379 -75015 -67672 -350367
653329283822069248 -50274 -74796 -67934 -350277
653329283829507584 -50485 -74792 -68049 -350247
653329283836945920 -50560 -74826 -68179 -350212
653329283844384256 -50568 -74954 -68277 -350304
653329283851822592 -50488 -74996 -68338 -350253
653329283859260928 -50555 -74960 -68401 -350325
653329283866699264 -50594 -74832 -68289 -350142
653329283874137600 -50628 -74961 -68366 -350216
653329283881575936 -50608 -75053 -68451 -350237
653329283889014272 -50853 -75056 -68486 -350271
653329283896452608 -50708 -75161 -68656 -350252
653329283903890944 -50897 -75207 -68616 -350275
653329283911329280 -50829 -75248 -68673 -350228
653329283918767616 -50803 -75219 -68611 -350251
653329283926205952 -50897 -75517 -68634 -350314
653329283933644288 -50922 -75434 -68761 -350284
653329283941144521 -50939 -75429 -68492 -349957
653329283948579216 -51061 -75497 -68690 -350200
653329283956013911 -50947 -75500 -68816 -350227
653329283963448606 -50977 -75482 -68898 -350306
653329283970883301 -51099 -75439 -68935 -350214
653329283978317996 -51065 -75609 -68897 -350272
653329283985752691 -51022 -75642 -68975 -350251
653329283993187386 -51042 -75650 -69062 -350297
653329284000622081 -51080 -75540 -69022 -350343
653329284008056776 -51181 -74600 -68136 -350251
653329284015491471 -51230 -75351 -68594 -350292
653329284022926166 -51358 -75661 -68824 -350257
653329284030360861 -51181 -75610 -68959 -350166
653329284037795556 -50254 -74692 -68126 -349246
653329284045230251 -50873 -75347 -68786 -349906
653329284052664946 -51152 -75618 -69167 -350133
653329284060099641 -51286 -75791 -69220 -350176
653329284067534336 -50203 -75842 -69188 -349659
653329284074969033 -51116 -76130 -69366 -349824
653329284082403728 -51237 -76018 -69388 -350101
653329284089838423 -51348 -76024 -69306 -350159
653329284097273118 -51287 -75942 -69353 -350247
653329284104707813 -51357 -75916 -69389 -350285
653329284112142508 -51374 -75942 -69425 -350361
653329284119577203 -51456 -76122 -69430 -350294
653329284127011898 -51468 -76107 -69481 -350250
653329284134446593 -51510 -76251 -69410 -350351
653329284141881288 -51555 -76125 -69387 -350404
653329284149315983 -51482 -76125 -69491 -350337
653329284156750678 -51469 -76033 -69362 -350299
653329284164185373 -51549 -76078 -69453 -350386
653329284171620068 -51568 -76234 -69488 -350315
653329284179054763 -51658 -76216 -69591 -350281
653329284186489458 -51464 -76110 -69444 -350195
653329284193924153 -51475 -76300 -69484 -350230
653329284201358848 -51711 -76277 -69631 -350319
653329284208793545 -51614 -76581 -69683 -350078
653329284216228240 -51413 -76387 -69631 -350303
653329284223662935 -51590 -76448 -69759 -350364
653329284231097630 -51619 -76330 -69649 -350336
653329284238532325 -51582 -76444 -69465 -350292
653329284245967020 -51656 -76497 -69642 -350395
653329284253401715 -51665 -76418 -69613 -350333
653329284260836410 -51705 -76336 -69677 -350270
653329284268271105 -51693 -76404 -69690 -350227
653329284275705800 -51707 -76380 -69771 -350297
653329284283140495 -51751 -76295 -69731 -350359
653329284290575190 -51688 -76393 -69696 -350313
653329284298009885 -51653 -76341 -69693 -350319
653329284305444580 -51664 -76400 -69730 -350374
653329284312879275 -51700 -76391 -69866 -350367
653329284320313970 -51728 -76287 -69798 -350333
653329284327748665 -51653 -75308 -69671 -350406
653329284335183360 -51806 -75931 -69860 -350408
653329284342556160 -51590 -76338 -69495 -350303
653329284349994496 -51624 -76501 -69576 -350334
653329284357432832 -50623 -75443 -68608 -349387
653329284364871168 -51327 -75987 -69383 -350002
653329284372309504 -51620 -76146 -69563 -350098
653329284379747840 -51561 -76383 -69747 -350205
653329284387186176 -50742 -76471 -69709 -349272
653329284394624512 -51444 -76515 -69799 -349852
653329284402062848 -51589 -76492 -69755 -350045
653329284409501184 -51721 -76474 -69777 -350236
653329284416939520 -51743 -76523 -69760 -350237
653329284424377856 -51791 -76501 -69807 -350319
653329284431816192 -51719 -76409 -69733 -350347
653329284439254528 -51764 -76411 -69898 -350220
653329284446692864 -51788 -76382 -69772 -350281
653329284454131200 -51865 -76601 -69849 -350389
653329284461569536 -51785 -76410 -69795 -350332
653329284469007872 -51695 -76414 -69813 -350362
653329284476508105 -51947 -76265 -69507 -350170
653329284483942800 -51961 -76565 -69843 -350316
653329284491377495 -51937 -76523 -69892 -350281
653329284498812190 -51909 -76452 -69832 -350232
653329284506246885 -51824 -76433 -69822 -350190
653329284513681580 -51839 -76393 -69860 -350326
653329284521116275 -51745 -76420 -69847 -350288
653329284528550970 -51845 -76392 -69953 -350288
653329284535985665 -51683 -76481 -69912 -350221
653329284543420360 -51819 -76393 -69903 -350258
653329284550855055 -51582 -76361 -69819 -350272
653329284558289750 -51740 -76474 -69810 -350268
653329284565724445 -51819 -76487 -69894 -350373
653329284573159140 -51785 -76564 -69957 -350394
653329284580593835 -51930 -76567 -70015 -350289
653329284588028530 -51767 -76521 -69910 -350236
653329284595463225 -51909 -76700 -69952 -350285
653329284602897920 -51946 -76654 -70103 -350267
653329284610270720 -51603 -76767 -69676 -350068
653329284617709056 -51760 -76780 -69933 -350232
653329284625147392 -51915 -76877 -70088 -350304
653329284632585728 -51911 -76836 -70172 -350281
653329284640024064 -51963 -76872 -70116 -350296
653329284647462400 -52033 -75821 -70182 -350340
653329284654900736 -52218 -76592 -70297 -350350
653329284662339072 -52278 -76837 -70392 -350267
653329284669777408 -52352 -77003 -70467 -350257
653329284677215744 -51403 -76094 -69557 -349222
653329284684654080 -51968 -76746 -70114 -349818
653329284692092416 -52193 -76993 -70358 -350166
653329284699530752 -52240 -77181 -70423 -350163
653329284706969088 -51264 -77332 -70500 -349232
653329284714407424 -52001 -77454 -70389 -349812
653329284721845760 -52288 -77483 -70497 -350143
653329284729284096 -52492 -77572 -70568 -350210
653329284736722432 -52644 -77621 -70731 -350280
653329284744284562 -52956 -77890 -71035 -350511
653329284751715616 -52887 -77751 -70908 -350354
653329284759146670 -52764 -77799 -71004 -350296
653329284766577724 -52778 -77756 -70961 -350340
653329284774008778 -52826 -77855 -71076 -350347
653329284781439832 -52718 -77833 -71023 -350266
653329284788870886 -52846 -77821 -71137 -350203
653329284796301940 -52792 -77850 -71011 -350272
653329284803732994 -52986 -77867 -71179 -350404
653329284811164048 -52925 -77904 -71235 -350338
653329284818595102 -53013 -77849 -71119 -350167
653329284826026156 -52986 -77805 -71075 -350246
653329284833457210 -53030 -78014 -71086 -350247
653329284840888264 -52999 -78086 -71181 -350220
653329284848319318 -53065 -78111 -71180 -350203
653329284855750372 -52862 -78209 -71252 -350239
653329284863181426 -52922 -78054 -71263 -350242
653329284870612480 -53085 -78003 -71319 -350220
653329284877857864 -53279 -77859 -71612 -350484
653329284885299840 -53191 -78083 -71511 -350384
653329284892741816 -53130 -78153 -71467 -350410
653329284900183792 -53108 -78208 -71445 -350189
653329284907625768 -53116 -78082 -71448 -350205
653329284915067744 -53376 -78189 -71504 -350322
653329284922509720 -53355 -78189 -71542 -350322
653329284929951696 -53270 -78191 -71584 -350279
653329284937393672 -53279 -78432 -71521 -350306
653329284944835648 -53316 -78479 -71608 -350353
653329284952277624 -53346 -78416 -71631 -350276
653329284959719600 -53364 -78500 -71470 -350256
653329284967161576 -53400 -77657 -71652 -350319
653329284974603552 -53425 -78176 -71692 -350296
653329284982045528 -53412 -78257 -71781 -350323
653329284989487504 -53406 -78349 -71807 -350316
653329284996929480 -52365 -77375 -70685 -349215
653329285004371456 -53019 -78006 -71343 -349866
653329285011999122 -53363 -78466 -71643 -349833
653329285019430176 -53531 -78416 -71689 -350166
653329285026861230 -52506 -78505 -71236 -349197
653329285034292284 -53067 -78598 -71556 -349819
653329285041723338 -53239 -78500 -71718 -350021
653329285049154392 -53358 -78396 -71661 -350180
653329285056585446 -53560 -78547 -71694 -350251
653329285064016500 -53628 -78556 -71759 -350348
653329285071447554 -53586 -78521 -71694 -350393
653329285078878608 -53579 -78565 -71820 -350315
653329285086309662 -53525 -78550 -71871 -350311
653329285093740716 -53668 -78525 -71811 -350340
653329285101171770 -53617 -78453 -71675 -350301
653329285108602824 -53450 -78445 -71720 -350205
653329285116033878 -53471 -78331 -71799 -350264
653329285123464932 -53530 -78423 -71918 -350339
653329285130895986 -53545 -78501 -71811 -350256
653329285138327040 -53485 -78471 -71811 -350227
653329285145634304 -53328 -78309 -71822 -350200
653329285153072640 -53470 -78386 -71856 -350334
653329285160510976 -53436 -78440 -71871 -350256
653329285167949312 -53463 -78512 -71933 -350250
653329285175387648 -53302 -78443 -71909 -350171
653329285182825984 -53394 -78517 -71849 -350195
653329285190264320 -53493 -78459 -71694 -350204
653329285197702656 -53480 -78398 -71673 -350223
653329285205140992 -53541 -78561 -71778 -350186
653329285212579328 -53625 -78576 -71900 -350253
653329285220017664 -53530 -78607 -71799 -350331
653329285227456000 -53451 -78552 -71874 -350371
653329285234894336 -53436 -78490 -71888 -350467
653329285242332672 -53496 -78380 -71867 -350352
653329285249771008 -53362 -78402 -71785 -350208
653329285257209344 -53291 -78527 -71706 -350248
653329285264647680 -53325 -78340 -71709 -350332
653329285272086016 -53241 -78341 -71746 -350350
653329285279586249 -53392 -78396 -71423 -350267
653329285287020944 -53401 -78329 -71530 -350271
653329285294455639 -53400 -78337 -71620 -350376
653329285301890334 -53301 -78315 -71597 -350343
653329285309325029 -53177 -78225 -71636 -350241
653329285316759724 -52470 -77287 -70637 -349129
653329285324194419 -52920 -77996 -71193 -349787
653329285331629114 -53076 -78151 -71445 -350024
653329285339063809 -53131 -78206 -71524 -350147
653329285346498504 -52199 -78260 -70596 -349269
653329285353933199 -52736 -78276 -71132 -349818
653329285361367894 -53139 -78171 -71337 -350080
653329285368802589 -53056 -78213 -71429 -350134
653329285376237284 -53123 -78201 -71508 -350201
653329285383671979 -53155 -78221 -71484 -350315
653329285391106674 -52952 -78072 -71370 -350270
653329285398541369 -52921 -78069 -71396 -350288
653329285405976064 -53001 -78034 -71382 -350334
653329285413410761 -52632 -78207 -71110 -350430
653329285420845456 -52865 -78034 -71284 -350439
653329285428280151 -52743 -78056 -71304 -350353
653329285435714846 -52785 -77978 -71353 -350372
653329285443149541 -52831 -77962 -71375 -350291
653329285450584236 -52746 -77957 -71335 -350290
653329285458018931 -52886 -77999 -71315 -350271
653329285465453626 -52733 -77970 -71259 -350259
653329285472888321 -52811 -78046 -71382 -350323
653329285480323016 -52709 -77963 -71236 -350281
653329285487757711 -52785 -77976 -71285 -350286
653329285495192406 -52727 -78035 -71299 -350204
653329285502627101 -52829 -78100 -71316 -350290
653329285510061796 -52806 -77984 -71266 -350222
653329285517496491 -53022 -78119 -71429 -350328
653329285524931186 -53005 -78323 -71515 -350294
653329285532365881 -53055 -78368 -71429 -350338
653329285539800576 -52931 -78295 -71452 -350338
653329285547173376 -53104 -78434 -71743 -350049
653329285554611712 -53199 -78517 -71823 -350323
653329285562050048 -53080 -78456 -71646 -350337
653329285569488384 -52956 -78418 -71595 -350335
653329285576926720 -53044 -78418 -71687 -350390
653329285584365056 -53140 -78524 -71675 -350424
653329285591803392 -53024 -78461 -71672 -350338
653329285599241728 -52976 -78470 -71634 -350376
653329285606680064 -53040 -78558 -71642 -350299
653329285614118400 -53099 -78646 -71634 -350266
653329285621556736 -53116 -78555 -71712 -350157
653329285628995072 -53172 -78527 -71759 -350225
653329285636433408 -53203 -77522 -70750 -349233
653329285643871744 -53328 -78119 -71351 -349889
653329285651310080 -53140 -78308 -71524 -349980
653329285658748416 -53111 -78451 -71609 -350157
653329285666186752 -52089 -77560 -70679 -349296
653329285673625088 -52671 -78180 -71342 -349802
653329285681187218 -52687 -78658 -71782 -349864
653329285688618272 -52882 -78614 -71730 -350081
653329285696049326 -52539 -78589 -71826 -350259
653329285703480380 -52801 -78548 -71794 -350273
653329285710911434 -53050 -78527 -71788 -350288
653329285718342488 -53021 -78555 -71736 -350168
653329285725773542 -53041 -78665 -71831 -350314
653329285733204596 -53041 -78501 -71794 -350342
653329285740635650 -53004 -78549 -71745 -350245
653329285748066704 -53106 -78504 -71805 -350302
653329285755497758 -53000 -78567 -71701 -350251
653329285762928812 -53013 -78545 -71742 -350396
653329285770359866 -52864 -78500 -71703 -350222
653329285777790920 -52935 -78556 -71703 -350296
653329285785221974 -52928 -78333 -71609 -350150
653329285792653028 -52979 -78422 -71535 -350179
653329285800084082 -52940 -78434 -71530 -350194
653329285807515136 -52977 -78456 -71619 -350255
653329285814822400 -53035 -78188 -71232 -350245
653329285822260736 -52968 -78345 -71555 -350303
653329285829699072 -52986 -78444 -71578 -350218
653329285837137408 -53001 -78547 -71558 -350318
653329285844575744 -52958 -78603 -71688 -350384
653329285852014080 -53065 -78538 -71662 -350254
653329285859452416 -53063 -78547 -71552 -350314
653329285866890752 -53013 -78663 -71745 -350365
653329285874329088 -52974 -78698 -71645 -350265
653329285881767424 -52936 -78661 -71610 -350294
653329285889205760 -52874 -78464 -71581 -350257
653329285896644096 -52941 -78598 -71735 -350396
653329285904082432 -52848 -78635 -71633 -350301
653329285911520768 -52800 -78607 -71558 -350335
653329285918959104 -52787 -78435 -71516 -350331
653329285926397440 -52792 -78351 -71591 -350280
653329285933835776 -52792 -78481 -71540 -350290
653329285941274112 -52705 -78463 -71370 -350197
653329285948774345 -52818 -78433 -71195 -349977
653329285956209040 -52803 -77334 -70339 -350134
653329285963643735 -52636 -77835 -70957 -350270
653329285971078430 -52680 -78005 -71210 -350134
653329285978513125 -52652 -78043 -71213 -350161
653329285985947820 -51533 -77181 -70219 -349178
653329285993382515 -51944 -77722 -70844 -349792
653329286000817210 -52239 -77917 -71014 -350069
653329286008251905 -52274 -77968 -71217 -350130
653329286015686600 -51302 -78041 -71337 -350190
653329286023121295 -51823 -78035 -71199 -350299
653329286030555990 -52024 -78052 -71238 -350272
653329286037990685 -52228 -78186 -71154 -350277
653329286045425380 -52274 -78206 -71088 -350285
653329286052860075 -52243 -78059 -71199 -350180
653329286060294770 -52311 -77955 -71071 -350189
653329286067729465 -52185 -77961 -71030 -350229
653329286075164160 -52299 -77922 -71047 -350254
653329286082598857 -51897 -77944 -70759 -350478
653329286090033552 -51999 -77910 -70888 -350371
653329286097468247 -52006 -77816 -70921 -350339
653329286104902942 -52133 -77833 -70838 -350267
653329286112337637 -52070 -77785 -70881 -350231
653329286119772332 -52063 -77822 -70881 -350208
653329286127207027 -52031 -77796 -70946 -350294
653329286134641722 -51964 -77663 -70855 -350241
653329286142076417 -52022 -77694 -70848 -350171
653329286149511112 -52006 -77728 -70841 -350231
653329286156945807 -52045 -77809 -70775 -350308
653329286164380502 -51987 -77758 -70890 -350284
653329286171815197 -51845 -77615 -70816 -350228
653329286179249892 -51873 -77557 -70780 -350212
653329286186684587 -51778 -77520 -70701 -350309
653329286194119282 -51956 -77668 -70688 -350269
653329286201553977 -51816 -77510 -70578 -350221
653329286208988672 -51765 -77485 -70663 -350273
653329286216361472 -51882 -77541 -70698 -349999
653329286223799808 -51886 -77594 -70644 -350242
653329286231238144 -51807 -77398 -70658 -350250
653329286238676480 -51747 -77438 -70532 -350338
653329286246114816 -51800 -77501 -70580 -350270
653329286253553152 -51751 -77632 -70503 -350353
653329286260991488 -51604 -77569 -70445 -350240
653329286268429824 -51551 -77392 -70475 -350223
653329286275868160 -51641 -76465 -69422 -350320
653329286283306496 -51738 -76852 -69994 -350330
653329286290744832 -51506 -77077 -70177 -350324
653329286298183168 -51406 -77236 -70210 -350294
653329286305621504 -50476 -76178 -69298 -349276
653329286313059840 -51043 -76678 -69900 -349820
653329286320498176 -51273 -76859 -70108 -350045
653329286327936512 -51320 -76976 -70258 -350169
653329286335374848 -50245 -77050 -70239 -350003
653329286342813184 -50832 -77206 -70274 -350186
653329286350313417 -51125 -77388 -70290 -350213
653329286357748112 -51268 -77379 -70383 -350187
653329286365182807 -51270 -77263 -70334 -350199
653329286372617502 -51379 -77291 -70336 -350236
653329286380052197 -51439 -77272 -70395 -350237
653329286387486892 -51421 -77350 -70416 -350369
653329286394921587 -51460 -77436 -70553 -350332
653329286402356282 -51444 -77496 -70536 -350241
653329286409790977 -51483 -77323 -70393 -350247
653329286417225672 -51480 -77382 -70494 -350195
653329286424660367 -51549 -77244 -70408 -350223
653329286432095062 -51518 -77451 -70460 -350223
653329286439529757 -51521 -77401 -70532 -350250
653329286446964452 -51508 -77528 -70449 -350216
653329286454399147 -51420 -77477 -70496 -350154
653329286461833842 -51423 -77447 -70543 -350251
653329286469268537 -51562 -77447 -70563 -350185
653329286476703232 -51632 -77595 -70759 -350290
653329286484137929 -51621 -77677 -70376 -350186
653329286491572624 -51637 -77627 -70557 -350250
653329286499007319 -51617 -77577 -70617 -350249
653329286506442014 -51521 -77589 -70652 -350322
653329286513876709 -51635 -77622 -70704 -350319
653329286521311404 -51668 -77650 -70748 -350307
653329286528746099 -51625 -77723 -70650 -350333
653329286536180794 -51699 -77671 -70772 -350419
653329286543615489 -51696 -77679 -70784 -350324
653329286551050184 -51664 -77612 -70730 -350228
653329286558484879 -51555 -77596 -70514 -350180
653329286565919574 -51791 -77720 -70651 -350292
653329286573354269 -51692 -77706 -70748 -350353
653329286580788964 -51628 -77614 -70619 -350294
653329286588223659 -51689 -77527 -70697 -350224
653329286595658354 -51778 -76515 -70276 -350210
653329286603093049 -51618 -77099 -70490 -350338
653329286610527744 -51699 -77361 -70655 -350297
653329286617962441 -51509 -77371 -70861 -349969
653329286625397136 -50505 -76360 -69662 -349224
653329286632831831 -51068 -77105 -70307 -349854
653329286640266526 -51334 -77307 -70506 -350078
653329286647701221 -51413 -77398 -70626 -350189
653329286655135916 -50520 -77544 -70754 -349378
653329286662570611 -51163 -77442 -70656 -349905
653329286670005306 -51298 -77409 -70609 -350027
653329286677440001 -51408 -77394 -70718 -350220
653329286684874696 -51520 -77512 -70767 -350315
653329286692309391 -51478 -77454 -70702 -350280
653329286699744086 -51536 -77475 -70713 -350287
653329286707178781 -51534 -77542 -70727 -350258
653329286714613476 -51710 -77592 -70821 -350416
653329286722048171 -51601 -77542 -70736 -350322
653329286729482866 -51674 -77552 -70829 -350319
653329286736917561 -51589 -77509 -70814 -350269
653329286744352256 -51726 -77461 -70769 -350304
653329286751725056 -51745 -77725 -70780 -350061
653329286759163392 -51703 -77495 -70741 -350121
653329286766601728 -51668 -77689 -70745 -350268
653329286774040064 -51501 -77531 -70692 -350213
653329286781478400 -51542 -77452 -70704 -350347
653329286788916736 -51505 -77359 -70655 -350216
653329286796355072 -51645 -77418 -70699 -350274
653329286803793408 -51572 -77515 -70713 -350271
653329286811231744 -51572 -77582 -70805 -350325
653329286818670080 -51514 -77490 -70833 -350275
653329286826108416 -51703 -77544 -70863 -350371
653329286833546752 -51536 -77514 -70752 -350257
653329286840985088 -51517 -77445 -70721 -350220
653329286848423424 -51675 -77367 -70704 -350325
653329286855861760 -51645 -77514 -70877 -350319
653329286863300096 -51561 -77569 -70889 -350423
653329286870738432 -51522 -77332 -70827 -350239
653329286878176768 -51484 -77505 -70720 -350236
653329286885677001 -51792 -77149 -70659 -350419
653329286893111696 -51836 -77333 -70682 -350384
653329286900546391 -51620 -77365 -70699 -350255
653329286907981086 -51568 -77349 -70666 -350266
653329286915415781 -51600 -76371 -70720 -350323
653329286922850476 -51670 -76934 -70682 -350252
653329286930285171 -51521 -77219 -70688 -350244
653329286937719866 -51481 -77256 -70724 -350279
653329286945154561 -50442 -76188 -69698 -349259
653329286952589256 -50923 -76728 -70219 -349862
653329286960023951 -51175 -76939 -70386 -350083
653329286967458646 -51404 -76927 -70480 -350125
653329286974893341 -50385 -77201 -70542 -349192
653329286982328036 -50835 -77125 -70539 -349842
653329286989762731 -51170 -77253 -70544 -350057
653329286997197426 -51375 -77184 -70626 -350163
653329287004632121 -51439 -77264 -70688 -350272
653329287012066816 -51422 -77247 -70581 -350292
653329287019563410 -51188 -77164 -70520 -350284
653329287026994464 -51262 -77058 -70564 -350315
653329287034425518 -51368 -77087 -70579 -350354
653329287041856572 -51390 -77038 -70576 -350319
653329287049287626 -51287 -76973 -70473 -350242
653329287056718680 -51404 -77132 -70477 -350344
653329287064149734 -51351 -77023 -70485 -350324
653329287071580788 -51409 -77018 -70475 -350337
653329287079011842 -51379 -77049 -70536 -350316
653329287086442896 -51466 -77118 -70518 -350384
653329287093873950 -51237 -77027 -70503 -350145
653329287101305004 -51275 -77119 -70420 -350344
653329287108736058 -51436 -77142 -70446 -350327
653329287116167112 -51286 -77067 -70380 -350308
653329287123598166 -51119 -77019 -70375 -350156
653329287131029220 -51152 -76876 -70324 -350227
653329287138460274 -51150 -76908 -70406 -350270
653329287145891328 -51160 -76977 -70346 -350291
653329287153136712 -51289 -76833 -70428 -350347
653329287160578688 -51261 -76840 -70334 -350321
653329287168020664 -51074 -76836 -70428 -350252
653329287175462640 -51283 -76708 -70338 -350368
653329287182904616 -51163 -76765 -70442 -350306
653329287190346592 -51146 -76682 -70375 -350271
653329287197788568 -51110 -76910 -70488 -350345
653329287205230544 -51300 -76824 -70515 -350355
653329287212672520 -51226 -76787 -70369 -350319
653329287220114496 -51139 -76824 -70388 -350245
653329287227556472 -51221 -76991 -70377 -350272
653329287234998448 -51408 -76158 -70474 -350252
653329287242440424 -51358 -76577 -70465 -350225
653329287249882400 -51311 -76700 -70462 -350236
653329287257324376 -51330 -76819 -70574 -350272
653329287264766352 -50338 -75917 -69633 -349298
653329287272208328 -50863 -76565 -70206 -349810
653329287279650304 -51222 -76823 -70437 -350019
653329287287216073 -51503 -76969 -70696 -350133
653329287294650768 -50444 -77134 -70003 -349248
653329287302085463 -51058 -77038 -70492 -349843
653329287309520158 -51388 -77171 -70732 -349967
653329287316954853 -51569 -77248 -70814 -350309
653329287324389548 -51653 -77271 -70937 -350316
653329287331824243 -51649 -77208 -70972 -350216
653329287339258938 -51834 -77229 -71087 -350020
653329287346693633 -51868 -77360 -71117 -350179
653329287354128328 -51937 -77395 -71137 -350291
653329287361563023 -51848 -77345 -71195 -350230
653329287368997718 -51865 -77294 -71104 -350203
653329287376432413 -52056 -77427 -71105 -350354
653329287383867108 -51994 -77321 -71107 -350253
653329287391301803 -51986 -77267 -71178 -350269
653329287398736498 -51954 -77287 -71125 -350165
653329287406171193 -52045 -77432 -71282 -350239
653329287413605888 -51943 -77387 -71179 -350202
653329287421040585 -52186 -77473 -71327 -350120
653329287428475280 -52255 -77521 -71314 -350204
653329287435909975 -52139 -77577 -71346 -350228
653329287443344670 -52018 -77556 -71258 -350133
653329287450779365 -52011 -77525 -71279 -350125
653329287458214060 -52063 -77548 -71329 -350191
653329287465648755 -52204 -77604 -71377 -350244
653329287473083450 -52140 -77601 -71512 -350265
653329287480518145 -52251 -77503 -71352 -350248
653329287487952840 -52314 -77550 -71479 -350332
653329287495387535 -52258 -77578 -71464 -350270
653329287502822230 -52226 -77588 -71479 -350286
653329287510256925 -52359 -77560 -71525 -350272
653329287517691620 -52351 -77511 -71452 -350353
653329287525126315 -52350 -77614 -71512 -350375
653329287532561010 -52393 -77645 -71484 -350211
653329287539995705 -52239 -77586 -71494 -350212
653329287547430400 -52300 -77621 -71547 -350254
653329287554865097 -52445 -77768 -71369 -350199
653329287562299792 -52410 -77706 -71444 -350208
653329287569734487 -52367 -77610 -71307 -350193
653329287577169182 -52275 -77630 -71495 -350254
653329287584603877 -51850 -76581 -70536 -349295
653329287592038572 -52139 -77068 -71115 -349789
653329287599473267 -52218 -77345 -71343 -350031
653329287606907962 -52163 -77633 -71506 -350161
653329287614342657 -51233 -77232 -70458 -349244
653329287621777352 -51723 -77401 -71047 -349872
653329287629212047 -52051 -77466 -71385 -350064
653329287636646742 -52208 -77570 -71507 -350163
653329287644081437 -52407 -77565 -71637 -350227
653329287651516132 -52300 -77577 -71483 -350191
653329287658950827 -52300 -77566 -71451 -350245
653329287666385522 -52445 -77613 -71598 -350232
653329287673820217 -52443 -77674 -71610 -350318
653329287681254912 -52342 -77607 -71674 -350177
653329287688689609 -52374 -77714 -71752 -350244
653329287696124304 -52522 -77610 -71709 -350347
653329287703558999 -52422 -77659 -71551 -350343
653329287710993694 -52384 -77517 -71477 -350307
653329287718428389 -52291 -77461 -71568 -350185
653329287725863084 -52236 -77530 -71594 -350235
653329287733297779 -52067 -77290 -71447 -350115
653329287740732474 -52195 -77351 -71540 -350253
653329287748167169 -52346 -77514 -71561 -350342
653329287755601864 -52342 -77460 -71569 -350366
653329287763036559 -52200 -77381 -71464 -350100
653329287770471254 -52252 -77445 -71548 -350111
653329287777905949 -52203 -77403 -71502 -350202
653329287785340644 -52284 -77396 -71618 -350273
653329287792775339 -52159 -77428 -71570 -350244
653329287800210034 -52151 -77441 -71537 -350273
653329287807644729 -52228 -77457 -71548 -350311
653329287815079424 -52506 -77372 -71863 -350285
653329287822452224 -52539 -77369 -71833 -350219
653329287829890560 -52273 -77320 -71649 -350299
653329287837328896 -52271 -77350 -71569 -350314
653329287844767232 -52340 -77201 -71591 -350357
653329287852205568 -52292 -77229 -71480 -350263
653329287859643904 -52227 -77308 -71648 -350265
653329287867082240 -52422 -77258 -71700 -350372
653329287874520576 -52265 -77298 -71577 -350366
653329287881958912 -52197 -77324 -71535 -350389
653329287889397248 -52266 -77219 -71490 -350290
653329287896835584 -52209 -77142 -71506 -350303
653329287904273920 -52100 -76073 -70356 -349464
653329287911712256 -52130 -76754 -70996 -349875
653329287919150592 -52058 -76831 -71244 -350123
653329287926588928 -52118 -76961 -71378 -350227
653329287934027264 -50930 -75960 -70357 -349234
653329287941465600 -51644 -76570 -70992 -349888
653329287948903936 -51894 -76811 -71232 -350173
653329287956342272 -52085 -77013 -71165 -350042
653329287963780608 -51408 -77019 -71315 -350206
653329287971218944 -51657 -77025 -71349 -350148
653329287978657280 -51772 -76951 -71268 -350142
653329287986095616 -52113 -76993 -71398 -350302
653329287993533952 -52049 -77023 -71535 -350272
653329288000972288 -52020 -76922 -71377 -350265
653329288008410624 -52056 -76855 -71377 -350264
653329288015848960 -52068 -76920 -71399 -350310
653329288023287296 -52092 -76942 -71529 -350360
653329288030725632 -52101 -76943 -71316 -350375
653329288038163968 -52140 -76894 -71318 -350344
653329288045602304 -52045 -77007 -71356 -350304
653329288053040640 -51998 -76788 -71166 -350163
653329288060478976 -52019 -76810 -71269 -350239
653329288067917312 -51968 -76809 -71331 -350271
653329288075355648 -52009 -76754 -71328 -350305
653329288082793984 -51885 -76677 -71253 -350204
653329288090356114 -52067 -76485 -71226 -350327
653329288097787168 -52020 -76704 -71195 -350324
653329288105218222 -52074 -76842 -71276 -350328
653329288112649276 -51945 -76825 -71342 -350299
653329288120080330 -51942 -76799 -71389 -350325
653329288127511384 -51954 -76870 -71438 -350189
653329288134942438 -52066 -77012 -71458 -350291
653329288142373492 -52176 -76986 -71421 -350334
653329288149804546 -52109 -76937 -71422 -350241
653329288157235600 -52194 -76985 -71480 -350285
653329288164666654 -52229 -77002 -71546 -350384
653329288172097708 -52288 -76962 -71544 -350233
653329288179528762 -52268 -76973 -71452 -350232
653329288186959816 -52347 -76980 -71601 -350305
653329288194390870 -52371 -77000 -71700 -350349
653329288201821924 -52328 -77032 -71682 -350280
653329288209252978 -52351 -77102 -71820 -350296
653329288216684032 -52455 -77237 -71639 -350393
653329288223991296 -52201 -75950 -70847 -350555
653329288231429632 -52293 -76575 -71301 -350353
653329288238867968 -52465 -76884 -71540 -350263
653329288246306304 -52539 -77172 -71687 -350306
653329288253744640 -51475 -76176 -70785 -349319
653329288261182976 -52046 -76735 -71339 -349883
653329288268621312 -52344 -77000 -71653 -350167
653329288276059648 -52564 -77248 -71882 -350340
653329288283497984 -51674 -77303 -72029 -350068
653329288290936320 -52218 -77244 -72030 -350089
653329288298374656 -52528 -77256 -72075 -350134
653329288305812992 -52638 -77218 -72120 -350274
653329288313251328 -52679 -77271 -72061 -350238
653329288320689664 -52771 -77268 -72133 -350244
653329288328128000 -52757 -77296 -72149 -350348
653329288335566336 -52789 -77480 -72196 -350367
653329288343004672 -52794 -77372 -72138 -350362
653329288350443008 -52822 -77302 -72175 -350239
653329288357943241 -52646 -77350 -72343 -350253
653329288365377936 -52834 -77469 -72418 -350350
653329288372812631 -52887 -77205 -72118 -350259
653329288380247326 -52921 -77309 -72171 -350242
653329288387682021 -53000 -77377 -72263 -350373
653329288395116716 -52982 -77441 -72362 -350396
653329288402551411 -52777 -77324 -72085 -350218
653329288409986106 -52716 -77259 -72062 -350188
653329288417420801 -52809 -77306 -72232 -350254
653329288424855496 -52891 -77298 -72291 -350282
653329288432290191 -52767 -77245 -72194 -350145
653329288439724886 -52853 -77315 -72345 -350170
653329288447159581 -52915 -77373 -72259 -350230
653329288454594276 -52869 -77348 -72360 -350222
653329288462028971 -52923 -77401 -72293 -350220
653329288469463666 -52925 -77383 -72361 -350212
653329288476898361 -52933 -77478 -72328 -350304
653329288484333056 -52869 -77471 -72358 -350220
653329288491767753 -52908 -77370 -72033 -350288
653329288499202448 -52914 -77369 -72183 -350222
653329288506637143 -52872 -77358 -72342 -350190
653329288514071838 -52877 -77386 -72281 -350212
653329288521506533 -52869 -77321 -72284 -350195
653329288528941228 -52854 -77249 -72299 -350197
653329288536375923 -52832 -77321 -72274 -350216
653329288543810618 -52941 -76272 -71979 -350306
653329288551245313 -52799 -76755 -72066 -350220
653329288558680008 -52901 -77063 -72137 -350294
653329288566114703 -53011 -77236 -72249 -350296
653329288573549398 -52016 -76264 -71293 -349337
653329288580984093 -52582 -76757 -71856 -349784
653329288588418788 -52863 -77012 -72147 -350053
653329288595853483 -52819 -77236 -72228 -350194
653329288603288178 -51805 -77201 -72256 -349299
653329288610722873 -52274 -77234 -72277 -349827
653329288618157568 -52681 -77305 -72239 -350058
653329288625530368 -52593 -77259 -72106 -350314
653329288632968704 -52769 -77254 -72239 -350247
653329288640407040 -52770 -77108 -72259 -350244
653329288647845376 -52714 -77139 -72286 -350223
653329288655283712 -52945 -77247 -72307 -350343
653329288662722048 -52900 -77196 -72350 -350280
653329288670160384 -52885 -77143 -72301 -350318
653329288677598720 -52922 -77136 -72350 -350292
653329288685037056 -53148 -77365 -72330 -350387
653329288692475392 -53065 -77167 -72190 -350374
653329288699913728 -52920 -77211 -72235 -350276
653329288707352064 -52952 -77088 -72321 -350317
653329288714790400 -52975 -77088 -72289 -350354
653329288722228736 -52843 -76952 -72294 -350186
653329288729667072 -52907 -77029 -72282 -350196
653329288737105408 -52982 -77069 -72418 -350201
653329288744543744 -52808 -77069 -72314 -350245
653329288751982080 -52746 -77096 -72318 -350222
653329288759544210 -52706 -77015 -71943 -350335
653329288766975264 -52869 -77165 -72069 -350409
653329288774406318 -52850 -77157 -72205 -350341
653329288781837372 -52848 -77049 -72166 -350301
653329288789268426 -52970 -77010 -72228 -350282
653329288796699480 -52851 -77183 -72286 -350283
653329288804130534 -52968 -77131 -72376 -350394
653329288811561588 -52828 -76997 -72220 -350225
653329288818992642 -52680 -77009 -72252 -350204
653329288826423696 -52720 -76907 -72174 -350239
653329288833854750 -52743 -76869 -72243 -350305
653329288841285804 -52680 -76741 -72146 -350239
653329288848716858 -52685 -76789 -72101 -350196
653329288856147912 -52764 -76841 -72136 -350345
653329288863578966 -52777 -75785 -72066 -350248
653329288871010020 -52700 -76274 -72085 -350202
653329288878441074 -52784 -76542 -72055 -350251
653329288885872128 -52745 -76735 -72199 -350283
653329288893241289 -51971 -75666 -71125 -349004
653329288900675984 -52272 -76190 -71728 -349670
653329288908110679 -52580 -76444 -71864 -350007
653329288915545374 -52621 -76632 -72133 -350123
653329288922980069 -51653 -76604 -72186 -349161
653329288930414764 -52373 -76639 -72051 -349883
653329288937849459 -52613 -76676 -72065 -350114
653329288945284154 -52688 -76667 -72115 -350319
653329288952718849 -52831 -76825 -72045 -350281
653329288960153544 -52661 -76758 -72094 -350188
653329288967588239 -52711 -76799 -72065 -350269
653329288975022934 -52839 -76788 -72275 -350269
653329288982457629 -52743 -76610 -72222 -350292
653329288989892324 -52716 -76722 -72270 -350229
653329288997327019 -52858 -76724 -72270 -350327
653329289004761714 -52937 -76765 -72299 -350315
653329289012196409 -52875 -76657 -72160 -350217
653329289019631104 -52825 -76708 -72130 -350314
653329289027003904 -52825 -76450 -72412 -350035
653329289034442240 -53079 -76861 -72368 -350240
653329289041880576 -52863 -76780 -72229 -350111
653329289049318912 -52894 -76778 -72239 -350114
653329289056757248 -52928 -76933 -72437 -350259
653329289064195584 -52961 -76944 -72467 -350283
653329289071633920 -52852 -76894 -72442 -350197
653329289079072256 -52989 -76838 -72420 -350201
653329289086510592 -53111 -76872 -72548 -350302
653329289093948928 -53095 -76772 -72556 -350232
653329289101387264 -53038 -76899 -72403 -350290
653329289108825600 -53068 -76897 -72523 -350422
653329289116263936 -53038 -76911 -72524 -350235
653329289123702272 -53142 -76946 -72425 -350234
653329289131140608 -53116 -77048 -72373 -350327
653329289138578944 -53210 -76952 -72424 -350316
653329289146017280 -53289 -76932 -72625 -350359
653329289153455616 -53199 -76843 -72676 -350271
653329289160955849 -53404 -76921 -72391 -350027
653329289168390544 -53384 -77062 -72515 -350210
653329289175825239 -53286 -76977 -72525 -350259
653329289183259934 -53226 -76147 -72627 -350297
653329289190694629 -53174 -76530 -72499 -350248
653329289198129324 -53119 -76768 -72505 -350276
653329289205564019 -53289 -77040 -72666 -350392
653329289212998714 -52308 -76019 -71710 -349323
653329289220433409 -52688 -76485 -72110 -349824
653329289227868104 -53018 -76707 -72293 -350066
653329289235302799 -53084 -76921 -72537 -350287
653329289242737494 -52131 -76912 -71909 -349326
653329289250172189 -52603 -76914 -72149 -349771
653329289257606884 -53007 -76856 -72498 -350148
653329289265041579 -53123 -76822 -72523 -350216
653329289272476274 -53210 -76941 -72491 -350229
653329289279910969 -53123 -76875 -72460 -350236
653329289287345664 -53197 -76865 -72553 -350284
653329289294718464 -53067 -76981 -72569 -350244
653329289302156800 -53187 -76954 -72462 -350273
653329289309595136 -53340 -76916 -72508 -350230
653329289317033472 -53307 -76886 -72469 -350326
653329289324471808 -53309 -76964 -72514 -350309
653329289331910144 -53368 -76604 -72472 -350297
653329289339348480 -53176 -76809 -72541 -350246
653329289346786816 -53352 -76737 -72582 -350368
653329289354225152 -53297 -76888 -72564 -350284
653329289361663488 -53172 -76658 -72380 -350126
653329289369101824 -53171 -76661 -72474 -350142
653329289376540160 -53056 -76695 -72546 -350207
653329289383978496 -53042 -76642 -72436 -350282
653329289391416832 -52669 -76669 -72420 -350095
653329289398855168 -52953 -76642 -72358 -350166
653329289406293504 -52942 -76648 -72426 -350242
653329289413731840 -53072 -76641 -72327 -350296
653329289421170176 -52991 -76624 -72437 -350139
653329289428732306 -53060 -76590 -72257 -349999
653329289436163360 -53037 -76569 -72263 -350078
653329289443594414 -52899 -76563 -72285 -350137
653329289451025468 -52887 -76521 -72255 -350139
653329289458456522 -52828 -76466 -72301 -350296
653329289465887576 -52876 -76469 -72229 -350276
653329289473318630 -52763 -76479 -72166 -350247
653329289480749684 -52866 -76463 -72162 -350229
653329289488180738 -52729 -76458 -72144 -350162
653329289495611792 -52866 -76465 -72104 -350202
653329289503042846 -52773 -76427 -72072 -350262
653329289510473900 -52748 -76375 -72087 -350215
653329289517904954 -52669 -76311 -72053 -350173
653329289525336008 -52736 -76409 -72116 -350282
653329289532767062 -52036 -75170 -71153 -349174
653329289540198116 -52343 -75778 -71674 -349635
653329289547629170 -52504 -76175 -71815 -349961
653329289555060224 -52644 -76155 -72079 -350203
653329289562429385 -51393 -76058 -71044 -349402
653329289569864080 -52055 -76199 -71535 -349931
653329289577298775 -52369 -76202 -71803 -350095
653329289584733470 -52433 -76224 -71932 -350213
653329289592168165 -52438 -76152 -71950 -350230
653329289599602860 -52389 -75993 -71881 -350202
653329289607037555 -52518 -76022 -72010 -350236
653329289614472250 -52601 -76187 -71871 -350333
653329289621906945 -52455 -76093 -71871 -350287
653329289629341640 -52438 -76124 -71762 -350291
653329289636776335 -52541 -76121 -71761 -350383
653329289644211030 -52408 -76086 -71848 -350382
653329289651645725 -52423 -75851 -71839 -350370
653329289659080420 -52404 -75850 -71773 -350325
653329289666515115 -52441 -75953 -71817 -350471
653329289673949810 -52538 -75818 -71782 -350338
653329289681384505 -52150 -75690 -71589 -350230
653329289688819200 -52241 -75734 -71748 -350323
653329289696192000 -52150 -75618 -71710 -350455
653329289703630336 -52283 -75689 -71577 -350328
653329289711068672 -52113 -75703 -71504 -350128
653329289718507008 -52193 -75800 -71458 -350204
653329289725945344 -52262 -75751 -71595 -350368
653329289733383680 -52227 -75646 -71616 -350384
653329289740822016 -52146 -75618 -71578 -350325
653329289748260352 -52072 -75606 -71512 -350305
653329289755698688 -52207 -75625 -71521 -350284
653329289763137024 -52140 -75553 -71479 -350358
653329289770575360 -52143 -75552 -71283 -350280
653329289778013696 -52156 -75540 -71469 -350324
653329289785452032 -52119 -75575 -71404 -350350
653329289792890368 -52068 -75499 -71328 -350214
653329289800328704 -51948 -75430 -71281 -350167
653329289807767040 -52049 -75481 -71334 -350344
653329289815205376 -51796 -75798 -71574 -350319
653329289822643712 -51839 -75630 -71431 -350333
653329289830082048 -52118 -75559 -71381 -350042
653329289837520384 -52078 -75643 -71415 -350263
653329289844958720 -52174 -75625 -71395 -350271
653329289852397056 -52004 -74626 -70269 -349258
653329289859835392 -51987 -75238 -70966 -349762
653329289867273728 -52036 -75376 -71262 -350091
653329289874712064 -52192 -75603 -71388 -350331
653329289882150400 -50954 -75087 -70335 -349205
653329289889588736 -51621 -75306 -71000 -349780
653329289897027072 -51997 -75573 -71210 -350162
653329289904465408 -52111 -75646 -71422 -350216
653329289911903744 -52052 -75643 -71495 -350237
653329289919342080 -52049 -75541 -71466 -350213
653329289926780416 -52176 -75525 -71553 -350293
653329289934218752 -52215 -75496 -71415 -350258
653329289941657088 -52152 -75501 -71449 -350246
653329289949095424 -52156 -75426 -71430 -350248
653329289956533760 -52208 -75489 -71483 -350307
653329289964033993 -51935 -75300 -71555 -349981
653329289971468688 -51907 -75246 -71502 -350096
653329289978903383 -52018 -75405 -71454 -350222
653329289986338078 -52294 -75516 -71570 -350338
653329289993772773 -52295 -75607 -71517 -350296
653329290001207468 -52106 -75577 -71395 -350194
653329290008642163 -52239 -75550 -71349 -350222
653329290016076858 -52235 -75663 -71446 -350299
653329290023511553 -52161 -75566 -71338 -350330
653329290030946248 -51955 -75400 -71190 -350128
653329290038380943 -52041 -75516 -71388 -350269
653329290045815638 -51955 -75538 -71286 -350248
653329290053250333 -52030 -75482 -71451 -350263
653329290060685028 -51982 -75449 -71312 -350267
653329290068119723 -51945 -75457 -71378 -350332
