timestamp,ch1,ch2,ch3
653329022034315666,-41858,-70104,-65262
653329022041746720,-41867,-70082,-65233
653329022049177774,-41880,-70307,-65166
653329022056608828,-41977,-70313,-65141
653329022064039882,-41916,-70172,-65183
653329022071470936,-41887,-70179,-65223
653329022078901990,-41918,-70151,-65285
653329022086333044,-42033,-70112,-65125
653329022093764098,-41813,-70007,-65167
653329022101195152,-41821,-70202,-65303
653329022108626206,-41899,-70212,-65340
653329022116057260,-41823,-70183,-65340
653329022123488314,-41553,-69830,-64943
653329022130919368,-41741,-70032,-65121
653329022138350422,-41882,-70052,-65258
653329022145781476,-41983,-70192,-65272
653329022153212530,-41760,-70089,-65251
653329022160643584,-41840,-70016,-65164
653329022167888968,-41669,-69881,-64979
653329022175330944,-41684,-69973,-65076
653329022182772920,-41973,-69963,-65120
653329022190214896,-41884,-69935,-65171
653329022197656872,-41886,-69930,-65171
653329022205098848,-41921,-69882,-65123
653329022212540824,-41810,-69961,-65090
653329022219982800,-41844,-69899,-65154
653329022227424776,-41843,-69978,-65235
653329022234866752,-41779,-70002,-65150
653329022242308728,-41711,-69898,-65070
653329022249750704,-41680,-69904,-65132
653329022257192680,-41631,-69869,-65025
653329022264634656,-41632,-69297,-64978
653329022272076632,-41608,-69483,-64906
653329022279518608,-41663,-69645,-64952
653329022286960584,-41538,-69746,-64886
653329022294402560,-40404,-68491,-63516
653329022302030226,-40729,-69306,-64219
653329022309461280,-41142,-69479,-64414
653329022316892334,-41375,-69635,-64665
653329022324323388,-40104,-69512,-63961
653329022331754442,-40890,-69481,-64319
653329022339185496,-41109,-69500,-64487
653329022346616550,-41254,-69443,-64586
653329022354047604,-41253,-69430,-64607
653329022361478658,-41297,-69433,-64478
653329022368909712,-41330,-69438,-64500
653329022376340766,-41373,-69466,-64553
653329022383771820,-41270,-69349,-64526
653329022391202874,-41172,-69351,-64392
653329022398633928,-41036,-69368,-64432
653329022406064982,-41081,-69456,-64458
653329022413496036,-41138,-69226,-64431
653329022420927090,-41053,-69317,-64368
653329022428358144,-41140,-69186,-64466
653329022435665408,-40899,-69043,-64315
653329022443103744,-40769,-68947,-64100
653329022450542080,-40903,-69050,-64272
653329022457980416,-40939,-69213,-64323
653329022465418752,-40936,-69171,-64336
653329022472857088,-40660,-69131,-64301
653329022480295424,-40915,-69136,-64335
653329022487733760,-41126,-69181,-64424
653329022495172096,-40991,-69129,-64386
653329022502610432,-41011,-69117,-64287
653329022510048768,-41058,-69221,-64206
653329022517487104,-41169,-69419,-64392
653329022524925440,-41212,-69287,-64435
653329022532363776,-41199,-69456,-64379
653329022539802112,-41252,-69534,-64371
653329022547240448,-41340,-69628,-64518
653329022554678784,-41321,-69502,-64503
653329022562117120,-41336,-69637,-64476
653329022569617353,-41300,-69832,-64559
653329022577052048,-41365,-69803,-64521
653329022584486743,-41453,-68530,-64531
653329022591921438,-41512,-69001,-64475
653329022599356133,-41471,-69407,-64660
653329022606790828,-41591,-69659,-64621
653329022614225523,-40293,-68433,-63375
653329022621660218,-41034,-69129,-64192
653329022629094913,-41413,-69681,-64556
653329022636529608,-41544,-69725,-64652
653329022643964303,-40308,-69817,-64741
653329022651398998,-40989,-69892,-64782
653329022658833693,-41544,-69991,-65054
653329022666268388,-41717,-70056,-65051
653329022673703083,-41801,-70109,-64655
653329022681137778,-41851,-70062,-64824
653329022688572473,-41899,-70081,-64905
653329022696007168,-41959,-70056,-64938
653329022703379968,-42041,-69965,-65114
653329022710818304,-41936,-69998,-64938
653329022718256640,-41989,-70140,-65137
653329022725694976,-41881,-70073,-65117
653329022733133312,-41897,-69863,-64909
653329022740571648,-42072,-70100,-65170
653329022748009984,-42008,-70142,-65187
653329022755448320,-42033,-70258,-65157
653329022762886656,-42040,-70044,-65037
653329022770324992,-41972,-70068,-65101
653329022777763328,-42086,-70280,-65187
653329022785201664,-42048,-70302,-65116
6.53329E+17,-41790,-70168,-64994
653329022800078336,-41923,-70343,-65128
653329022807516672,-42032,-70307,-65122
653329022814955008,-42080,-70236,-65200
653329022822393344,-41978,-70264,-65239
653329022829831680,-42019,-70210,-65288
653329022837331913,-42106,-70168,-64903
653329022844766608,-42157,-70277,-65151
653329022852201303,-42067,-70169,-65192
653329022859635998,-42212,-70116,-65164
653329022867070693,-42343,-70322,-65315
653329022874505388,-42273,-70205,-65178
653329022881940083,-42092,-70064,-65128
653329022889374778,-42210,-70141,-65208
653329022896809473,-42279,-70137,-65208
653329022904244168,-42245,-68819,-64894
653329022911678863,-42156,-69562,-65108
653329022919113558,-42216,-69986,-65247
653329022926548253,-42170,-70067,-65265
653329022933982948,-40728,-68765,-63924
653329022941417643,-41504,-69569,-64612
653329022948852338,-41966,-69955,-64884
653329022956287033,-42035,-70068,-65117
653329022963721728,-40731,-70021,-65229
653329022971094528,-41469,-69969,-65005
653329022978532864,-41848,-70080,-65105
653329022985971200,-41942,-70008,-65162
653329022993409536,-41966,-69972,-65148
653329023000847872,-41939,-70019,-65223
653329023008286208,-42037,-70034,-65333
653329023015724544,-42101,-70107,-65384
653329023023162880,-42178,-70082,-65245
653329023030601216,-42062,-70027,-65205
653329023038039552,-42154,-70109,-65315
653329023045477888,-42083,-70067,-65304
653329023052916224,-41995,-69848,-65080
653329023060354560,-41964,-70002,-64936
653329023067792896,-41929,-70141,-64985
653329023075231232,-41965,-70039,-65053
653329023082669568,-41776,-69926,-64858
653329023090107904,-41835,-70002,-65038
653329023097546240,-41894,-70004,-65121
653329023105046473,-41739,-69636,-65295
653329023112481168,-41572,-69762,-65102
653329023119915863,-41752,-69865,-65118
653329023127350558,-41957,-69870,-65169
653329023134785253,-41910,-69874,-65063
653329023142219948,-41831,-69829,-65097
653329023149654643,-41833,-69897,-65118
653329023157089338,-41840,-69818,-65053
653329023164524033,-41724,-69779,-64986
653329023171958728,-41755,-69760,-64977
653329023179393423,-41809,-69721,-65038
653329023186828118,-41765,-69711,-64972
653329023194262813,-41816,-69619,-64998
653329023201697508,-41739,-69623,-64898
653329023209132203,-41764,-69677,-64906
653329023216566898,-41709,-69642,-64942
653329023224001593,-41694,-68381,-64449
653329023231436288,-41594,-69164,-64557
653329023238809088,-41399,-69433,-64927
653329023246247424,-41575,-69471,-64902
653329023253685760,-40282,-68197,-63558
653329023261124096,-41106,-68919,-64146
653329023268562432,-41399,-69327,-64540
653329023276000768,-41456,-69486,-64644
653329023283439104,-40135,-69478,-64640
653329023290877440,-40924,-69630,-64736
653329023298315776,-41355,-69583,-64695
653329023305754112,-41551,-69536,-64690
653329023313192448,-41453,-69265,-64629
653329023320630784,-41415,-69325,-64555
653329023328069120,-41470,-69496,-64682
653329023335507456,-41472,-69485,-64665
653329023342945792,-41455,-69353,-64582
653329023350384128,-41509,-69311,-64531
653329023357822464,-41492,-69328,-64543
653329023365260800,-41316,-69318,-64601
653329023372822930,-41080,-69467,-63932
653329023380253984,-41247,-69303,-64231
653329023387685038,-41290,-69356,-64439
653329023395116092,-41246,-69247,-64359
653329023402547146,-41137,-69180,-64271
653329023409978200,-41221,-69279,-64363
653329023417409254,-41228,-69334,-64413
653329023424840308,-41362,-69345,-64415
653329023432271362,-41176,-69401,-64468
653329023439702416,-41278,-69362,-64522
653329023447133470,-41525,-69447,-64709
653329023454564524,-41514,-69453,-64568
653329023461995578,-41543,-69511,-64588
653329023469426632,-41514,-69472,-64606
653329023476857686,-41682,-69558,-64700
653329023484288740,-41759,-69532,-64868
653329023491719794,-41699,-69509,-64735
653329023499150848,-41825,-69657,-64845
653329023506458112,-41995,-69938,-65199
653329023513896448,-41749,-69788,-64967
653329023521334784,-41756,-69637,-64965
653329023528773120,-41818,-69783,-64997
653329023536211456,-41825,-69856,-65035
653329023543649792,-41725,-68538,-64031
653329023551088128,-41716,-69081,-64489
653329023558526464,-41787,-69539,-64800
653329023565964800,-41769,-69665,-64914
653329023573403136,-40545,-68550,-63686
653329023580841472,-41370,-69186,-64348
653329023588279808,-41818,-69562,-64658
653329023595718144,-41928,-69774,-65008
653329023603156480,-40638,-69801,-65012
653329023610594816,-41452,-69791,-65131
653329023618033152,-41760,-69888,-64979
653329023625471488,-41772,-69935,-65003
653329023632909824,-41789,-69896,-64947
653329023640410057,-41724,-70076,-64731
653329023647844752,-41896,-69991,-65031
653329023655279447,-41959,-69999,-65079
653329023662714142,-41915,-69860,-65007
653329023670148837,-41835,-69909,-65008
653329023677583532,-41940,-69914,-65049
653329023685018227,-41947,-69868,-64911
653329023692452922,-41859,-69676,-64565
653329023699887617,-41872,-69750,-64870
653329023707322312,-41913,-69832,-64985
653329023714757007,-41738,-69740,-64834
653329023722191702,-41640,-69469,-64773
653329023729626397,-41789,-69694,-65025
653329023737061092,-41903,-69749,-65011
653329023744495787,-41980,-69688,-65052
653329023751930482,-41825,-69689,-65033
653329023759365177,-41779,-69645,-64963
653329023766799872,-41775,-69680,-64914
653329023774172672,-41846,-69659,-64598
653329023781611008,-41888,-69751,-64656
653329023789049344,-41838,-69875,-64670
653329023796487680,-41772,-69715,-64818
653329023803926016,-41853,-69670,-64741
653329023811364352,-41834,-69746,-64728
653329023818802688,-41827,-69740,-64763
653329023826241024,-41863,-69703,-64895
653329023833679360,-41775,-69733,-64916
653329023841117696,-41693,-69768,-64802
653329023848556032,-41677,-69773,-64807
653329023855994368,-41714,-69670,-64828
653329023863432704,-41706,-68364,-63510
653329023870871040,-41767,-69057,-64280
653329023878309376,-41693,-69553,-64535
653329023885747712,-41694,-69589,-64734
653329023893186048,-40270,-68349,-63414
653329023900624384,-41085,-68990,-64210
653329023908124617,-41180,-69230,-64336
653329023915559312,-41349,-69316,-64531
653329023922994007,-40231,-69405,-64606
653329023930428702,-41083,-69490,-64575
653329023937863397,-41317,-69390,-64643
653329023945298092,-41461,-69416,-64607
653329023952732787,-41413,-69353,-64501
653329023960167482,-41506,-69371,-64567
653329023967602177,-41500,-69374,-64620
653329023975036872,-41459,-69408,-64530
653329023982471567,-41368,-69307,-64446
653329023989906262,-41380,-69242,-64459
653329023997340957,-41374,-69198,-64519
653329024004775652,-41357,-69239,-64448
653329024012210347,-41342,-69060,-64248
653329024019645042,-41461,-69172,-64443
653329024027079737,-41382,-69147,-64524
653329024034514432,-41262,-69089,-64438
653329024041949129,-40839,-68709,-64131
653329024049383824,-41043,-68991,-64287
653329024056818519,-41201,-69145,-64360
653329024064253214,-41070,-69153,-64249
653329024071687909,-41089,-69097,-64292
653329024079122604,-41179,-69047,-64374
653329024086557299,-41191,-69165,-64304
653329024093991994,-41033,-69049,-64132
653329024101426689,-41040,-69033,-64197
653329024108861384,-41162,-69003,-64120
653329024116296079,-41197,-68964,-64190
653329024123730774,-41089,-68829,-64176
653329024131165469,-40919,-68833,-64099
653329024138600164,-40965,-68905,-64085
653329024146034859,-41099,-68886,-64042
653329024153469554,-41074,-68764,-64303
653329024160904249,-40894,-68736,-64185
653329024168338944,-40912,-68909,-64126
653329024175711744,-40912,-68461,-64025
653329024183150080,-40779,-67238,-62669
653329024190588416,-40755,-67975,-63374
653329024198026752,-40811,-68534,-63678
653329024205465088,-40707,-68546,-63843
653329024212903424,-39487,-67336,-62584
653329024220341760,-40191,-68070,-63268
653329024227780096,-40517,-68460,-63553
653329024235218432,-40686,-68435,-63702
653329024242656768,-39440,-68429,-63688
653329024250095104,-40110,-68493,-63721
653329024257533440,-40328,-68419,-63643
653329024264971776,-40383,-68314,-63643
653329024272410112,-40513,-68236,-63656
653329024279848448,-40551,-68351,-63709
653329024287286784,-40511,-68407,-63666
653329024294725120,-40507,-68464,-63536
653329024302163456,-40381,-68445,-63449
653329024309663689,-40754,-68324,-63750
653329024317098384,-40700,-68415,-63524
653329024324533079,-40494,-68487,-63430
653329024331967774,-40445,-68348,-63237
653329024339402469,-40441,-68462,-63256
653329024346837164,-40477,-68499,-63367
653329024354271859,-40344,-68420,-63409
653329024361706554,-40157,-68151,-63216
653329024369141249,-40263,-68313,-63315
653329024376575944,-40507,-68437,-63476
653329024384010639,-40452,-68417,-63480
653329024391445334,-40257,-68386,-63479
653329024398880029,-40387,-68368,-63476
653329024406314724,-40429,-68421,-63545
653329024413749419,-40339,-68481,-63468
653329024421184114,-40426,-68488,-63429
653329024428618809,-40531,-68564,-63417
653329024436053504,-40523,-68544,-63374
653329024443426304,-40548,-68296,-63208
653329024450864640,-40332,-68386,-63316
653329024458302976,-40369,-68395,-63437
653329024465741312,-40417,-68469,-63445
653329024473179648,-40373,-68495,-63304
653329024480617984,-40208,-68403,-63257
653329024488056320,-40213,-68432,-63301
653329024495494656,-40310,-68443,-63439
653329024502932992,-40217,-66939,-62238
653329024510371328,-40234,-67839,-62808
653329024517809664,-40432,-68187,-63273
6.53329E+17,-40275,-68363,-63353
653329024532686336,-39000,-67148,-62008
653329024540124672,-39736,-67767,-62904
653329024547563008,-40044,-68104,-63134
653329024555001344,-40069,-68210,-63179
653329024562439680,-38822,-68395,-63190
653329024569878016,-39601,-68299,-63300
653329024577378249,-39898,-68322,-63398
653329024584812944,-40009,-68368,-63427
653329024592247639,-40066,-68268,-63334
653329024599682334,-40114,-68264,-63194
653329024607117029,-40231,-68390,-63323
653329024614551724,-40241,-68336,-63346
653329024621986419,-40280,-68212,-63391
653329024629421114,-40302,-68258,-63428
653329024636855809,-40215,-68278,-63422
653329024644290504,-40165,-68255,-63522
653329024651725199,-40359,-68113,-63340
653329024659159894,-40402,-68376,-63468
653329024666594589,-40478,-68356,-63453
653329024674029284,-40382,-68289,-63490
653329024681463979,-40015,-68126,-63271
653329024688898674,-40313,-68326,-63466
653329024696333369,-40313,-68355,-63554
653329024703768064,-40230,-68394,-63443
653329024711202761,-39951,-68171,-63642
653329024718637456,-40148,-68205,-63671
653329024726072151,-40274,-68298,-63686
653329024733506846,-40255,-68229,-63566
653329024740941541,-40199,-68158,-63528
653329024748376236,-40211,-68123,-63496
653329024755810931,-40188,-68205,-63524
653329024763245626,-40207,-68169,-63348
653329024770680321,-40229,-68207,-63349
653329024778115016,-40379,-68161,-63433
653329024785549711,-40358,-68133,-63502
653329024792984406,-40176,-68134,-63510
653329024800419101,-40289,-68121,-63485
653329024807853796,-40319,-68178,-63562
653329024815288491,-40311,-68129,-63477
653329024822723186,-40241,-66824,-63025
653329024830157881,-40265,-67576,-63321
653329024837592576,-40267,-67895,-63464
653329024845027273,-39855,-68209,-63187
653329024852461968,-38647,-66807,-62059
653329024859896663,-39456,-67464,-62805
653329024867331358,-39827,-67783,-63080
653329024874766053,-39893,-67896,-63182
653329024882200748,-38680,-68031,-63189
653329024889635443,-39429,-68005,-63318
653329024897070138,-39763,-67916,-63310
653329024904504833,-39896,-67914,-63251
653329024911939528,-39975,-67824,-63175
653329024919374223,-39984,-67803,-63148
653329024926808918,-40058,-67806,-63246
653329024934243613,-40095,-67780,-63280
653329024941678308,-39935,-67810,-63148
653329024949113003,-39941,-67790,-63204
653329024956547698,-39995,-67771,-63155
653329024963982393,-39923,-67826,-63142
653329024971417088,-39876,-67515,-62926
653329024978789888,-39904,-67958,-62807
653329024986228224,-39865,-67811,-63021
653329024993666560,-39897,-67708,-63049
653329025001104896,-39727,-67607,-62840
653329025008543232,-39882,-67797,-63034
653329025015981568,-39861,-67707,-63050
653329025023419904,-39745,-67615,-63123
653329025030858240,-39583,-67769,-63009
653329025038296576,-39872,-67737,-63095
653329025045734912,-39790,-67800,-63147
653329025053173248,-39732,-67698,-63019
653329025060611584,-39767,-67580,-63002
653329025068049920,-39814,-67690,-63058
653329025075488256,-39781,-67651,-63014
653329025082926592,-39681,-67555,-62994
653329025090364928,-39593,-67617,-63042
653329025097803264,-39630,-67508,-62950
653329025105241600,-39681,-67557,-62998
653329025112741833,-39674,-67481,-62734
653329025120176528,-39620,-67441,-62920
653329025127611223,-39780,-67436,-62926
653329025135045918,-39790,-67513,-62870
653329025142480613,-39648,-66188,-62157
653329025149915308,-39650,-66895,-62485
653329025157350003,-39606,-67174,-62752
653329025164784698,-39500,-67185,-62815
653329025172219393,-38141,-65920,-61501
653329025179654088,-39042,-66789,-62256
653329025187088783,-39432,-67053,-62654
653329025194523478,-39403,-67155,-62690
653329025201958173,-38050,-67117,-62666
653329025209392868,-38815,-67214,-62634
653329025216827563,-39052,-67207,-62633
653329025224262258,-39197,-67202,-62673
653329025231696953,-39221,-67076,-62581
653329025239131648,-39401,-67161,-62636
653329025246628242,-39533,-67303,-62644
653329025254059296,-39504,-67222,-62600
653329025261490350,-39544,-67242,-62628
653329025268921404,-39557,-67402,-62648
653329025276352458,-39508,-67229,-62598
653329025283783512,-39446,-67188,-62664
653329025291214566,-39445,-67138,-62650
653329025298645620,-39529,-67193,-62797
653329025306076674,-39444,-67265,-62819
653329025313507728,-39401,-67254,-62742
653329025320938782,-39352,-67095,-62648
653329025328369836,-39492,-67349,-62659
653329025335800890,-39588,-67460,-62754
653329025343231944,-39317,-67392,-62779
653329025350662998,-39479,-67401,-62915
653329025358094052,-39649,-67589,-63032
653329025365525106,-39663,-67508,-62946
653329025372956160,-39804,-67461,-62919
653329025380263424,-39508,-67343,-63125
653329025387701760,-39678,-67427,-63138
653329025395140096,-39693,-67525,-63120
653329025402578432,-39687,-67449,-63048
653329025410016768,-39695,-67502,-63009
653329025417455104,-39822,-67614,-63025
653329025424893440,-39693,-67622,-62973
653329025432331776,-39930,-67789,-63052
653329025439770112,-39914,-67715,-63239
653329025447208448,-39888,-67684,-63163
653329025454646784,-39880,-67640,-63204
653329025462085120,-39871,-66310,-61909
653329025469523456,-39769,-67039,-62602
653329025476961792,-39817,-67422,-62944
653329025484400128,-39802,-67496,-62968
653329025491838464,-38522,-66265,-61771
653329025499276800,-39281,-67069,-62619
653329025506715136,-39576,-67401,-62959
653329025514153472,-39783,-67611,-62784
653329025521591808,-38660,-67651,-62968
653329025529030144,-39333,-67632,-63217
653329025536468480,-39623,-67689,-63386
653329025543906816,-39620,-67510,-63182
653329025551345152,-39828,-67543,-63261
653329025558783488,-39923,-67555,-63285
653329025566221824,-39952,-67646,-63274
653329025573660160,-39833,-67594,-63164
653329025581098496,-39956,-67507,-63191
653329025588536832,-39976,-67708,-63360
653329025595975168,-40055,-67632,-63354
653329025603413504,-40029,-67619,-63340
653329025610851840,-39938,-67439,-63032
653329025618290176,-39969,-67623,-63217
653329025625728512,-40026,-67720,-63333
653329025633166848,-39897,-67614,-63225
653329025640605184,-39789,-67424,-63259
653329025648167314,-39678,-67666,-63523
653329025655598368,-39843,-67571,-63341
653329025663029422,-39800,-67485,-63323
653329025670460476,-39847,-67578,-63213
653329025677891530,-39922,-67564,-63271
653329025685322584,-40045,-67590,-63108
653329025692753638,-39899,-67570,-63162
653329025700184692,-39864,-67488,-63219
653329025707615746,-40027,-67572,-63315
653329025715046800,-39994,-67474,-63244
653329025722477854,-39850,-67388,-63156
653329025729908908,-39863,-67458,-63147
653329025737339962,-39831,-67486,-63193
653329025744771016,-39889,-67462,-63330
653329025752202070,-39788,-67403,-63178
653329025759633124,-39776,-67528,-63170
653329025767064178,-39839,-67426,-63222
653329025774495232,-39809,-67307,-63039
653329025781802496,-39537,-66097,-61602
653329025789240832,-39592,-66819,-62456
653329025796679168,-39709,-67107,-62884
653329025804117504,-39799,-67112,-62992
653329025811555840,-38632,-65920,-61801
653329025818994176,-39158,-66737,-62523
653329025826432512,-39481,-67024,-62960
653329025833870848,-39643,-67167,-63044
653329025841309184,-38600,-67229,-63147
653329025848747520,-39271,-67202,-63165
653329025856185856,-39592,-67334,-63177
653329025863624192,-39547,-67075,-63060
653329025871062528,-39573,-67085,-62973
653329025878500864,-39735,-67205,-62991
653329025885939200,-39637,-67182,-62997
653329025893377536,-39570,-67119,-62970
653329025900815872,-39436,-67121,-62892
653329025908254208,-39560,-67183,-63062
653329025915692544,-39393,-67331,-62814
653329025923130880,-39489,-67239,-62825
653329025930569216,-39430,-66995,-62679
653329025938007552,-39563,-67107,-62797
653329025945445888,-39580,-67158,-62861
653329025952884224,-39398,-67019,-62832
653329025960322560,-39230,-66878,-62835
653329025967760896,-39387,-66964,-62836
653329025975199232,-39393,-66940,-62904
653329025982637568,-39351,-66960,-62730
653329025990075904,-39386,-66876,-62866
653329025997514240,-39431,-66879,-62957
653329026004952576,-39410,-66807,-62874
653329026012390912,-39247,-66894,-62745
653329026019829248,-39280,-66860,-62766
653329026027267584,-39311,-66834,-62747
653329026034705920,-39246,-66926,-62688
653329026042144256,-39308,-66764,-62713
653329026049644489,-39287,-66875,-62842
653329026057079184,-39189,-66897,-62579
653329026064513879,-39051,-66721,-62581
653329026071948574,-39016,-66671,-62562
653329026079383269,-39087,-66683,-62620
653329026086817964,-39118,-66590,-62438
653329026094252659,-38912,-66618,-62323
653329026101687354,-38800,-65246,-61072
653329026109122049,-38992,-66087,-61784
653329026116556744,-39016,-66414,-62170
653329026123991439,-38760,-66327,-62272
653329026131426134,-37512,-65028,-60982
653329026138860829,-38223,-65797,-61716
653329026146295524,-38592,-66089,-62107
653329026153730219,-38664,-66301,-62118
653329026161164914,-37673,-66308,-62136
653329026168599609,-38299,-66393,-62181
653329026176034304,-38543,-66394,-62193
653329026183407104,-38397,-66172,-62305
653329026190845440,-38576,-66361,-62311
653329026198283776,-38741,-66401,-62229
653329026205722112,-38889,-66446,-62060
653329026213160448,-38831,-66384,-62191
653329026220598784,-38776,-66436,-62100
653329026228037120,-38911,-66550,-62309
653329026235475456,-38905,-66515,-62372
653329026242913792,-38852,-66510,-62224
653329026250352128,-38777,-66454,-62021
653329026257790464,-38913,-66512,-62181
653329026265228800,-38817,-66445,-62266
653329026272667136,-38862,-66467,-62219
653329026280105472,-38656,-66452,-62034
653329026287543808,-38850,-66603,-62272
653329026294982144,-38834,-66504,-62271
653329026302420480,-38752,-66559,-62284
653329026309858816,-38800,-66642,-62296
653329026317420946,-38710,-66672,-62101
6.53329E+17,-38806,-66636,-62381
653329026332283054,-38885,-66572,-62398
653329026339714108,-38949,-66647,-62426
653329026347145162,-39002,-66668,-62463
653329026354576216,-38933,-66542,-62439
653329026362007270,-38892,-66478,-62395
653329026369438324,-38918,-66556,-62463
653329026376869378,-38982,-66577,-62522
653329026384300432,-39000,-66536,-62496
653329026391731486,-38859,-66546,-62311
653329026399162540,-38947,-66541,-62325
653329026406593594,-38998,-66518,-62381
653329026414024648,-38908,-66492,-62392
653329026421455702,-38945,-65186,-61165
653329026428886756,-38841,-65917,-61830
653329026436317810,-38833,-66354,-62086
653329026443748864,-38822,-66469,-62105
653329026451056128,-37840,-65245,-60965
653329026458494464,-38659,-66130,-61678
653329026465932800,-38815,-66345,-61958
653329026473371136,-38765,-66321,-62082
653329026480809472,-37677,-66295,-62100
653329026488247808,-38405,-66387,-62299
653329026495686144,-38593,-66547,-62267
653329026503124480,-38746,-66438,-62328
653329026510562816,-38771,-66488,-62288
653329026518001152,-38907,-66456,-62411
653329026525439488,-38884,-66387,-62412
653329026532877824,-38764,-66397,-62406
653329026540316160,-38771,-66378,-62326
653329026547754496,-38905,-66379,-62267
653329026555192832,-38866,-66394,-62275
653329026562631168,-38756,-66298,-62208
653329026570069504,-38694,-66239,-61986
653329026577507840,-38670,-66390,-62027
653329026585008073,-38442,-66518,-61850
653329026592442768,-38515,-66285,-62093
653329026599877463,-38422,-66165,-61917
653329026607312158,-38406,-66307,-62080
653329026614746853,-38608,-66234,-62051
653329026622181548,-38743,-66284,-62001
653329026629616243,-38625,-66275,-62064
653329026637050938,-38562,-66218,-62070
653329026644485633,-38470,-66200,-61986
653329026651920328,-38500,-66048,-62026
653329026659355023,-38575,-66291,-62131
653329026666789718,-38508,-66258,-62025
653329026674224413,-38461,-66226,-61884
653329026681659108,-38396,-66125,-61805
653329026689093803,-38428,-66075,-61975
653329026696528498,-38501,-66052,-61968
653329026703963193,-38473,-66020,-61957
653329026711397888,-38181,-66008,-61861
653329026718770688,-38424,-66090,-62006
653329026726209024,-38299,-66051,-61823
653329026733647360,-38229,-65868,-61787
653329026741085696,-38181,-64622,-60480
653329026748524032,-38235,-65288,-61149
653329026755962368,-38175,-65592,-61473
653329026763400704,-38163,-65833,-61533
653329026770839040,-36833,-64488,-60333
653329026778277376,-37538,-65252,-61070
653329026785715712,-37865,-65647,-61386
653329026793154048,-37956,-65699,-61333
653329026800592384,-37080,-65788,-61458
653329026808030720,-37672,-65936,-61491
653329026815469056,-37826,-65862,-61442
653329026822907392,-37889,-65784,-61469
653329026830345728,-37928,-65746,-61413
653329026837784064,-37969,-65748,-61425
653329026845222400,-37962,-65677,-61401
653329026852722633,-37786,-65682,-61530
653329026860157328,-37804,-65596,-61380
653329026867592023,-37922,-65520,-61380
653329026875026718,-37801,-65425,-61276
653329026882461413,-37903,-65476,-61178
653329026889896108,-37873,-65376,-61003
653329026897330803,-37687,-65417,-61155
653329026904765498,-37644,-65500,-61092
653329026912200193,-37657,-65347,-61131
653329026919634888,-37457,-65246,-61052
653329026927069583,-37545,-65326,-61123
653329026934504278,-37475,-65204,-61015
653329026941938973,-37528,-65202,-61026
653329026949373668,-37507,-65230,-61010
653329026956808363,-37456,-65318,-61042
653329026964243058,-37355,-65164,-60923
653329026971677753,-37394,-65042,-60850
653329026979112448,-37369,-65205,-60996
653329026986547145,-37484,-65136,-60834
653329026993981840,-37421,-65154,-60888
653329027001416535,-37363,-65090,-60850
653329027008851230,-37422,-65057,-60922
653329027016285925,-37382,-65118,-60944
653329027023720620,-37248,-65077,-60851
653329027031155315,-37299,-64983,-60774
653329027038590010,-37285,-65116,-60764
653329027046024705,-37443,-65103,-60861
653329027053459400,-37392,-65028,-60867
653329027060894095,-37344,-63793,-59522
653329027068328790,-37441,-64535,-60207
653329027075763485,-37416,-64867,-60548
653329027083198180,-37347,-64932,-60705
653329027090632875,-36015,-63770,-59471
653329027098067570,-36852,-64616,-60202
653329027105502265,-37176,-64838,-60473
653329027112936960,-37257,-65019,-60643
653329027120371657,-35981,-64926,-60714
653329027127806352,-36773,-65126,-60865
653329027135241047,-37152,-65087,-60814
653329027142675742,-37203,-65143,-60888
653329027150110437,-37432,-65144,-60933
653329027157545132,-37389,-65258,-60950
653329027164979827,-37504,-65189,-60906
653329027172414522,-37502,-65207,-60968
653329027179849217,-37591,-65251,-60893
653329027187283912,-37586,-65261,-60994
653329027194718607,-37577,-65226,-60897
653329027202153302,-37569,-65213,-60897
653329027209587997,-37568,-65126,-60844
653329027217022692,-37579,-65246,-60845
653329027224457387,-37517,-65311,-60914
653329027231892082,-37474,-65386,-60895
653329027239326777,-37339,-65428,-60810
653329027246761472,-37417,-65302,-60878
653329027254134272,-37392,-65101,-60842
653329027261572608,-37376,-65223,-60889
653329027269010944,-37503,-65252,-61071
653329027276449280,-37529,-65252,-60975
653329027283887616,-37497,-65306,-61027
653329027291325952,-37532,-65389,-61018
653329027298764288,-37571,-65388,-61003
653329027306202624,-37491,-65288,-60944
653329027313640960,-37523,-65318,-60918
653329027321079296,-37481,-65226,-60929
653329027328517632,-37436,-65292,-60924
653329027335955968,-37746,-65264,-60924
653329027343394304,-37558,-65297,-60874
653329027350832640,-37329,-65156,-60841
653329027358270976,-37528,-65311,-60987
653329027365709312,-37472,-65237,-60918
653329027373147648,-37362,-65256,-60887
653329027380585984,-37373,-64067,-59641
653329027388086217,-37501,-64714,-60428
653329027395520912,-37511,-65034,-60610
653329027402955607,-37388,-65028,-60703
653329027410390302,-36180,-63917,-59603
653329027417824997,-36984,-64660,-60309
653329027425259692,-37189,-65025,-60684
653329027432694387,-37331,-65124,-60876
653329027440129082,-36421,-65295,-60825
653329027447563777,-37013,-65211,-60856
653329027454998472,-37108,-65213,-60707
653329027462433167,-37211,-65181,-60714
653329027469867862,-37275,-65153,-60875
653329027477302557,-37371,-65142,-60919
653329027484737252,-37244,-65171,-60760
653329027492171947,-37285,-65106,-60754
653329027499606642,-37241,-65137,-60689
653329027507041337,-37438,-65099,-60787
653329027514476032,-37184,-65091,-60794
653329027521910729,-37231,-65208,-60672
653329027529345424,-37270,-64886,-60613
653329027536780119,-37293,-65025,-60648
653329027544214814,-37177,-65104,-60666
653329027551649509,-37265,-64966,-60684
653329027559084204,-37052,-64915,-60479
653329027566518899,-37177,-65001,-60599
653329027573953594,-37085,-64984,-60631
653329027581388289,-37120,-64992,-60728
653329027588822984,-37166,-64936,-60725
653329027596257679,-37117,-64967,-60612
653329027603692374,-36969,-64792,-60571
653329027611127069,-36941,-64773,-60636
653329027618561764,-37121,-64935,-60546
653329027625996459,-37026,-64819,-60588
653329027633431154,-36885,-64716,-60619
653329027640865849,-36986,-64902,-60482
653329027648300544,-36906,-64827,-60516
653329027655673344,-37261,-64496,-60321
653329027663111680,-37029,-64695,-60294
653329027670550016,-36948,-64636,-60371
653329027677988352,-37138,-64735,-60356
653329027685426688,-37150,-64775,-60421
653329027692865024,-37019,-64755,-60275
653329027700303360,-36900,-63522,-59052
653329027707741696,-36827,-64195,-59886
653329027715180032,-36863,-64410,-60054
653329027722618368,-36945,-64528,-60231
653329027730056704,-35624,-63288,-59058
653329027737495040,-36439,-64083,-59875
653329027744933376,-36684,-64333,-60192
653329027752371712,-36714,-64539,-60262
653329027759810048,-35887,-64553,-60462
653329027767248384,-36411,-64571,-60481
653329027774686720,-36705,-64519,-60455
653329027782125056,-36721,-64472,-60434
653329027789687186,-36880,-64413,-60106
653329027797118240,-36958,-64551,-60404
653329027804549294,-36832,-64694,-60244
653329027811980348,-36757,-64541,-60263
653329027819411402,-36735,-64512,-60376
653329027826842456,-36730,-64502,-60324
653329027834273510,-36714,-64428,-60174
653329027841704564,-36770,-64415,-60223
653329027849135618,-36639,-64331,-60118
653329027856566672,-36634,-64326,-60171
653329027863997726,-36556,-64266,-60152
653329027871428780,-36579,-64308,-60227
653329027878859834,-36429,-64326,-60008
653329027886290888,-36518,-64363,-59960
653329027893721942,-36607,-64265,-60055
653329027901152996,-36492,-64260,-60025
653329027908584050,-36530,-64336,-60057
653329027916015104,-36522,-64340,-60051
653329027923260488,-36527,-64542,-60235
653329027930702464,-36571,-64337,-60212
653329027938144440,-36658,-64450,-60108
653329027945586416,-36688,-64547,-60074
653329027953028392,-36658,-64509,-60050
653329027960470368,-36629,-64514,-60110
653329027967912344,-36849,-64683,-60374
653329027975354320,-36762,-64500,-60274
653329027982796296,-36741,-64486,-60201
653329027990238272,-36756,-64581,-60290
653329027997680248,-36819,-64636,-60487
653329028005122224,-36926,-64570,-60370
653329028012564200,-36916,-64709,-60447
653329028020006176,-36898,-63445,-59187
653329028027448152,-37054,-64155,-60105
653329028034890128,-36989,-64421,-60318
653329028042332104,-36983,-64604,-60364
653329028049774080,-35881,-63401,-59202
653329028057401746,-36313,-64219,-59903
653329028064832800,-36773,-64596,-60365
653329028072263854,-36933,-64835,-60662
653329028079694908,-36175,-64995,-60862
653329028087125962,-36704,-64959,-60826
653329028094557016,-36967,-64977,-60825
653329028101988070,-37074,-64943,-60810
653329028109419124,-37093,-64984,-60870
653329028116850178,-37311,-64876,-60918
653329028124281232,-37306,-65057,-60800
653329028131712286,-37187,-65057,-60751
653329028139143340,-37233,-64996,-60895
653329028146574394,-37438,-65090,-60931
653329028154005448,-37397,-65100,-60933
653329028161436502,-37349,-65118,-61045
653329028168867556,-37315,-64920,-60835
653329028176298610,-37430,-65067,-60969
653329028183729664,-37386,-65069,-60866
653329028191036928,-37446,-65127,-60743
653329028198475264,-37352,-65091,-60757
653329028205913600,-37328,-65246,-60912
653329028213351936,-37524,-65147,-60941
653329028220790272,-37500,-65087,-60967
653329028228228608,-37511,-65166,-61013
653329028235666944,-37371,-65082,-61109
653329028243105280,-37482,-65120,-61028
653329028250543616,-37393,-65059,-61012
653329028257981952,-37381,-65130,-61124
653329028265420288,-37580,-65174,-61115
653329028272858624,-37466,-65067,-61010
653329028280296960,-37491,-65046,-61087
653329028287735296,-37498,-65177,-61221
653329028295173632,-37503,-65115,-61175
653329028302611968,-37615,-65121,-61173
653329028310050304,-37521,-65122,-61143
653329028317488640,-37517,-65162,-61224
653329028324988873,-37434,-65080,-61384
653329028332423568,-37465,-65109,-61269
653329028339858263,-37463,-63876,-59835
653329028347292958,-37498,-64656,-60692
653329028354727653,-37448,-64880,-60923
653329028362162348,-37486,-65038,-61121
653329028369597043,-36337,-63959,-59858
653329028377031738,-37037,-64654,-60645
653329028384466433,-37238,-64989,-60805
653329028391901128,-37442,-65164,-61189
653329028399335823,-36178,-65119,-61230
653329028406770518,-36845,-65181,-61162
653329028414205213,-37233,-65235,-61216
653329028421639908,-37360,-65157,-61140
653329028429074603,-37393,-65194,-61281
653329028436509298,-37521,-65144,-61233
653329028443943993,-37518,-65118,-61187
653329028451378688,-37494,-65152,-61196
653329028458813385,-37433,-65009,-61429
653329028466248080,-37461,-65140,-61420
653329028473682775,-37390,-65133,-61168
653329028481117470,-37513,-65256,-61210
653329028488552165,-37591,-65122,-60935
653329028495986860,-37520,-65075,-61103
653329028503421555,-37568,-65031,-61106
653329028510856250,-37498,-65015,-61116
653329028518290945,-37291,-64903,-60952
653329028525725640,-37478,-65085,-61059
653329028533160335,-37529,-65049,-61209
653329028540595030,-37526,-65012,-61218
653329028548029725,-37442,-65107,-61318
653329028555464420,-37501,-65098,-61271
653329028562899115,-37517,-65005,-61333
653329028570333810,-37438,-65043,-61355
653329028577768505,-37404,-65064,-61208
653329028585203200,-37446,-65032,-61234
653329028592637897,-37472,-64504,-61065
653329028600072592,-37548,-64816,-61048
653329028607507287,-37467,-65041,-61218
653329028614941982,-37419,-65004,-61193
653329028622376677,-37294,-64934,-61209
653329028629811372,-37406,-64977,-61241
653329028637246067,-37438,-64935,-61189
653329028644680762,-37409,-64887,-61164
653329028652115457,-37302,-64929,-61026
653329028659550152,-37280,-63627,-59746
653329028666984847,-37236,-64487,-60557
653329028674419542,-37214,-64758,-60823
653329028681854237,-37295,-64786,-61027
653329028689288932,-36107,-63523,-59943
653329028696723627,-36886,-64301,-60712
653329028704158322,-37119,-64535,-60991
653329028711593017,-37240,-64820,-61039
653329028719027712,-36078,-64830,-61141
653329028726462409,-36922,-64934,-61109
653329028733897104,-37107,-64817,-61077
653329028741331799,-37138,-64719,-61081
653329028748766494,-37326,-64828,-61105
653329028756201189,-37342,-64869,-61041
653329028763635884,-37302,-64892,-60941
653329028771070579,-37248,-64815,-61032
653329028778505274,-37290,-64757,-61110
653329028785939969,-37268,-64752,-61094
653329028793374664,-37258,-64687,-61098
653329028800809359,-37216,-64699,-61064
653329028808244054,-37233,-64736,-60943
653329028815678749,-37158,-64738,-60883
653329028823113444,-37206,-64891,-60973
653329028830548139,-37277,-64872,-60973
653329028837982834,-37146,-64675,-60934
653329028845417529,-37299,-64797,-61100
653329028852852224,-37276,-64855,-61120
653329028860163144,-37477,-64977,-61139
653329028867605120,-37497,-65050,-61285
653329028875047096,-37552,-65033,-61244
653329028882489072,-37532,-65106,-61138
653329028889931048,-37598,-65268,-61234
653329028897373024,-37563,-65335,-61357
6.53329E+17,-37742,-65276,-61349
653329028912256976,-37648,-65238,-61297
653329028919698952,-37642,-65311,-61320
653329028927140928,-37813,-65331,-61522
653329028934582904,-37774,-65303,-61505
653329028942024880,-37721,-65323,-61471
653329028949466856,-37714,-65458,-61551
653329028956908832,-37847,-65437,-61746
653329028964350808,-37816,-65548,-61740
653329028971792784,-37964,-65505,-61803
653329028979234760,-37865,-64228,-60658
653329028986676736,-37875,-65028,-61262
653329028994304402,-37831,-64971,-61296
653329029001735456,-38025,-65494,-61592
653329029009166510,-36681,-64386,-60481
653329029016597564,-37603,-65148,-61393
653329029024028618,-37823,-65425,-61716
653329029031459672,-37927,-65559,-61899
653329029038890726,-36799,-65793,-61948
653329029046321780,-37685,-65832,-62163
653329029053752834,-38016,-65694,-62115
653329029061183888,-38044,-65685,-62134
653329029068614942,-38192,-65811,-62191
653329029076045996,-38243,-65803,-62191
653329029083477050,-38217,-65838,-62153
653329029090908104,-38162,-65815,-62103
653329029098339158,-38371,-65800,-62332
653329029105770212,-38227,-65820,-62214
653329029113201266,-38223,-65751,-62267
653329029120632320,-38237,-65827,-62269
653329029128001481,-38285,-65465,-62429
653329029135436176,-38363,-65656,-62273
653329029142870871,-38171,-65734,-62210
653329029150305566,-38270,-65832,-62289
653329029157740261,-38169,-65770,-62286
653329029165174956,-38303,-65828,-62472
653329029172609651,-38377,-66002,-62372
653329029180044346,-38425,-66039,-62389
653329029187479041,-38557,-66018,-62454
653329029194913736,-38431,-66029,-62476
653329029202348431,-38421,-65900,-62421
653329029209783126,-38458,-66026,-62462
653329029217217821,-38626,-66110,-62413
653329029224652516,-38539,-66021,-62452
653329029232087211,-38417,-66010,-62418
653329029239521906,-38534,-66048,-62462
653329029246956601,-38537,-66111,-62572
653329029254391296,-38533,-66110,-62502
653329029261764096,-38281,-66335,-62120
653329029269202432,-38406,-66195,-62514
653329029276640768,-38555,-66172,-62584
653329029284079104,-38664,-66213,-62568
653329029291517440,-38666,-66015,-62661
653329029298955776,-38593,-64923,-61364
653329029306394112,-38634,-65424,-62020
653329029313832448,-38602,-65705,-62345
653329029321270784,-38501,-65778,-62402
653329029328709120,-36730,-64872,-61411
653329029336147456,-37857,-65724,-61991
653329029343585792,-38183,-65851,-62425
653329029351024128,-38312,-66043,-62491
653329029358462464,-37301,-66202,-62413
653329029365900800,-38201,-66056,-62503
653329029373339136,-38424,-66066,-62590
653329029380777472,-38623,-66189,-62640
653329029388215808,-38694,-66274,-62627
653329029395716041,-38381,-66248,-62315
653329029403150736,-38516,-66208,-62514
653329029410585431,-38595,-66183,-62677
653329029418020126,-38613,-66194,-62810
653329029425454821,-38622,-66090,-62834
653329029432889516,-38642,-66018,-62737
653329029440324211,-38586,-66034,-62702
653329029447758906,-38722,-65926,-62688
653329029455193601,-38711,-66046,-62818
653329029462628296,-38602,-66087,-62741
653329029470062991,-38658,-66069,-62748
653329029477497686,-38519,-66000,-62598
653329029484932381,-38616,-66107,-62589
653329029492367076,-38678,-66207,-62548
653329029499801771,-38646,-66112,-62619
653329029507236466,-38531,-66149,-62734
653329029514671161,-38486,-66017,-62631
653329029522105856,-38570,-66042,-62669
653329029529478656,-38777,-66311,-63090
653329029536916992,-38701,-66092,-62812
653329029544355328,-38718,-66041,-62574
653329029551793664,-38652,-65979,-62658
6.53329E+17,-38491,-65941,-62669
653329029566670336,-38598,-65950,-62711
653329029574108672,-38616,-65980,-62646
653329029581547008,-38606,-66015,-62627
653329029588985344,-38537,-66080,-62692
653329029596423680,-38585,-66022,-62550
653329029603862016,-38536,-65962,-62515
653329029611300352,-38471,-65930,-62453
653329029618738688,-38442,-64671,-61234
653329029626177024,-38483,-65388,-62038
653329029633615360,-38441,-65612,-62402
653329029641053696,-38369,-65750,-62425
653329029648492032,-37017,-64624,-61152
653329029655930368,-37887,-65223,-61900
653329029663492498,-38421,-65583,-61948
653329029670923552,-38351,-65662,-62139
653329029678354606,-37001,-65638,-62285
653329029685785660,-37612,-65697,-62275
653329029693216714,-37889,-65572,-62346
653329029700647768,-38029,-65725,-62352
653329029708078822,-38301,-65865,-62329
653329029715509876,-38247,-65678,-62301
653329029722940930,-38216,-65638,-62301
653329029730371984,-38271,-65670,-62351
653329029737803038,-38208,-65747,-62352
653329029745234092,-38242,-65737,-62359
653329029752665146,-38117,-65775,-62287
653329029760096200,-38266,-65776,-62369
653329029767527254,-38327,-65676,-62394
653329029774958308,-38325,-65767,-62373
653329029782389362,-38314,-65912,-62408
653329029789820416,-38346,-65878,-62516
653329029797127680,-38287,-65990,-62165
653329029804566016,-38496,-65930,-62410
653329029812004352,-38428,-66031,-62558
653329029819442688,-38560,-66028,-62666
653329029826881024,-38577,-66224,-62789
653329029834319360,-38583,-66073,-62693
653329029841757696,-38539,-66254,-62718
653329029849196032,-38562,-66339,-62816
653329029856634368,-38708,-66420,-62932
653329029864072704,-38686,-66414,-62931
653329029871511040,-38624,-66377,-62916
653329029878949376,-38720,-66476,-62882
653329029886387712,-38678,-66487,-62850
653329029893826048,-38680,-66397,-62865
653329029901264384,-38659,-66424,-62867
653329029908702720,-38854,-66423,-62842
653329029916141056,-38911,-66451,-63043
653329029923579392,-38885,-66297,-63037
653329029931079625,-38975,-66544,-62682
653329029938514320,-39024,-65262,-62249
653329029945949015,-39014,-65973,-62613
653329029953383710,-38850,-66199,-62763
653329029960818405,-38740,-66393,-62912
653329029968253100,-37492,-65194,-61736
653329029975687795,-38128,-65988,-62420
653329029983122490,-38514,-66189,-62783
653329029990557185,-38710,-66389,-62932
653329029997991880,-37593,-66472,-63134
653329030005426575,-38236,-66513,-63175
653329030012861270,-38600,-66491,-63186
653329030020295965,-38859,-66450,-63137
653329030027730660,-38959,-66587,-63185
653329030035165355,-38979,-66498,-63247
653329030042600050,-38910,-66584,-63194
653329030050034745,-38854,-66576,-63169
653329030057469440,-38886,-66620,-63137
653329030064966034,-38615,-66342,-62845
653329030072397088,-38810,-66512,-62930
653329030079828142,-38895,-66634,-63177
653329030087259196,-38929,-66441,-63096
653329030094690250,-38943,-66567,-63170
653329030102121304,-38841,-66575,-63103
653329030109552358,-38840,-66526,-63072
653329030116983412,-38652,-66367,-63075
653329030124414466,-38813,-66434,-63043
653329030131845520,-38871,-66541,-63211
653329030139276574,-38893,-66552,-63177
653329030146707628,-38837,-66565,-63164
653329030154138682,-38820,-66557,-63137
653329030161569736,-38826,-66563,-63198
653329030169000790,-38900,-66583,-63216
653329030176431844,-38937,-66621,-63118
653329030183862898,-38839,-66617,-63004
653329030191293952,-38818,-66569,-62970
653329030198539336,-38619,-66779,-62830
653329030205981312,-38705,-66736,-63015
653329030213423288,-38741,-66594,-63103
653329030220865264,-38782,-66541,-63053
653329030228307240,-38969,-66643,-63035
653329030235749216,-38888,-66760,-63141
653329030243191192,-38783,-66710,-62995
653329030250633168,-38760,-66686,-63004
653329030258075144,-38857,-65318,-62895
653329030265517120,-38738,-66064,-62984
653329030272959096,-38776,-66288,-62989
653329030280401072,-38795,-66482,-63121
653329030287843048,-37526,-65318,-61966
653329030295285024,-38090,-66129,-62551
6.53329E+17,-38509,-66295,-62813
653329030310168976,-38696,-66408,-62910
653329030317610952,-37455,-66425,-62949
653329030325052928,-38062,-66518,-63017
653329030332680594,-38005,-66269,-63081
653329030340111648,-38282,-66362,-63018
653329030347542702,-38605,-66444,-63003
653329030354973756,-38577,-66465,-62915
653329030362404810,-38562,-66395,-62932
653329030369835864,-38545,-66486,-63058
653329030377266918,-38568,-66514,-62954
653329030384697972,-38400,-66415,-62936
653329030392129026,-38502,-66402,-62859
653329030399560080,-38497,-66389,-63000
653329030406991134,-38480,-66208,-62867
653329030414422188,-38488,-66236,-62798
653329030421853242,-38488,-66214,-62912
653329030429284296,-38431,-66322,-62997
653329030436715350,-38265,-66154,-62715
653329030444146404,-38320,-66211,-62753
653329030451577458,-38259,-66264,-62753
653329030459008512,-38360,-66228,-62864
653329030466315776,-37975,-66132,-62733
653329030473754112,-38200,-66117,-62718
653329030481192448,-38237,-66245,-62836
653329030488630784,-38401,-66246,-62851
653329030496069120,-38362,-66319,-62741
653329030503507456,-38255,-66215,-62750
653329030510945792,-38285,-66095,-62786
653329030518384128,-38408,-66146,-62827
653329030525822464,-38345,-66152,-62688
653329030533260800,-38195,-66169,-62677
653329030540699136,-38166,-66129,-62631
653329030548137472,-38200,-66296,-62647
653329030555575808,-38317,-66195,-62594
653329030563014144,-38150,-66167,-62547
653329030570452480,-38245,-66202,-62662
653329030577890816,-38364,-65038,-62557
653329030585329152,-38318,-65730,-62614
653329030592767488,-38156,-65990,-62584
653329030600205824,-38486,-66183,-62646
653329030607644160,-37101,-65075,-61487
653329030615082496,-37696,-65732,-62199
653329030622520832,-38080,-66099,-62490
653329030629959168,-38198,-66254,-62676
653329030637397504,-36966,-66348,-62789
653329030644835840,-37858,-66406,-62908
653329030652274176,-38167,-66512,-62868
653329030659712512,-38261,-66680,-62890
653329030667150848,-38410,-66702,-62965
653329030674589184,-38439,-66731,-62940
653329030682027520,-38475,-66889,-62964
653329030689465856,-38720,-66763,-63055
653329030696904192,-38760,-66755,-63149
653329030704342528,-38667,-66765,-63196
653329030711780864,-38629,-67039,-63340
653329030719219200,-38740,-66934,-63323
653329030726657536,-38786,-66739,-63123
653329030734157769,-38787,-66927,-63210
653329030741592464,-38709,-66943,-63233
653329030749027159,-38756,-67009,-63348
653329030756461854,-38650,-66933,-63112
653329030763896549,-38766,-67002,-63176
653329030771331244,-38855,-67104,-63206
653329030778765939,-38798,-67068,-63359
653329030786200634,-38712,-67178,-63341
653329030793635329,-38705,-67149,-63292
653329030801070024,-38764,-67011,-63567
653329030808504719,-38930,-67181,-63506
653329030815939414,-38970,-67196,-63331
653329030823374109,-38897,-67140,-63360
653329030830808804,-38856,-67112,-63427
653329030838243499,-38835,-67099,-63462
653329030845678194,-38822,-67285,-63425
653329030853112889,-38823,-67156,-63460
653329030860547584,-38856,-67069,-63441
653329030867920384,-39090,-67443,-63770
653329030875358720,-38979,-67404,-63631
653329030882797056,-38820,-67236,-63570
653329030890235392,-38766,-67132,-63517
653329030897673728,-38823,-66365,-63615
653329030905112064,-38915,-66783,-63586
653329030912550400,-38905,-66937,-63435
653329030919988736,-38831,-67157,-63522
653329030927427072,-37618,-65905,-62264
653329030934865408,-38288,-66687,-62963
653329030942303744,-38565,-66949,-63253
653329030949742080,-38740,-67010,-63437
653329030957180416,-37611,-67128,-62618
653329030964618752,-38319,-67192,-63195
653329030972057088,-38704,-67315,-63382
653329030979495424,-38838,-67342,-63518
653329030986933760,-39004,-67328,-63571
653329030994372096,-39094,-67362,-63539
653329031001872329,-38664,-67411,-63752
653329031009307024,-38812,-67312,-63657
653329031016741719,-38896,-67266,-63583
653329031024176414,-38868,-67251,-63548
653329031031611109,-38942,-67187,-63568
653329031039045804,-38931,-67244,-63617
653329031046480499,-38889,-67079,-63527
653329031053915194,-38964,-67148,-63555
653329031061349889,-38829,-67234,-63539
653329031068784584,-38854,-67309,-63607
653329031076219279,-38691,-67147,-63357
653329031083653974,-38808,-67191,-63415
653329031091088669,-38762,-67166,-63413
653329031098523364,-38965,-67267,-63539
653329031105958059,-38841,-67268,-63555
653329031113392754,-38787,-67269,-63518
653329031120827449,-38784,-67250,-63420
653329031128262144,-38776,-67324,-63463
653329031135696841,-38968,-67001,-63697
653329031143131536,-38991,-67044,-63500
653329031150566231,-38924,-67217,-63404
653329031158000926,-38896,-67293,-63471
653329031165435621,-38889,-67229,-63445
653329031172870316,-38806,-67232,-63453
653329031180305011,-38731,-67256,-63438
653329031187739706,-38805,-67244,-63404
653329031195174401,-38906,-67167,-63455
653329031202609096,-38786,-67301,-63453
653329031210043791,-38729,-67126,-63498
653329031217478486,-38738,-66789,-63520
653329031224913181,-38983,-66981,-63493
653329031232347876,-38863,-67039,-63518
653329031239782571,-38808,-67109,-63392
653329031247217266,-37411,-65882,-62164
653329031254651961,-38178,-66456,-62762
653329031262086656,-38474,-66779,-63155
653329031269459456,-38889,-66620,-62948
653329031276897792,-37554,-66893,-62216
653329031284336128,-38091,-66948,-62770
653329031291774464,-38442,-67050,-62965
653329031299212800,-38458,-67206,-63203
653329031306651136,-38444,-67145,-63254
653329031314089472,-38517,-67007,-63219
653329031321527808,-38458,-66975,-63232
653329031328966144,-38720,-67016,-63512
653329031336404480,-38692,-66978,-63422
653329031343842816,-38556,-66984,-63329
653329031351281152,-38441,-66903,-63175
653329031358719488,-38458,-67041,-63323
653329031366157824,-38644,-66819,-63258
653329031373596160,-38611,-66850,-63175
653329031381034496,-38571,-66798,-63074
653329031388472832,-38497,-66902,-63159
653329031395911168,-38327,-66827,-62943
653329031403473298,-38120,-66900,-62692
653329031410904352,-38174,-66796,-62940
653329031418335406,-38283,-66866,-63102
653329031425766460,-38103,-66777,-63050
653329031433197514,-38278,-66866,-63086
653329031440628568,-38394,-66753,-63059
653329031448059622,-38355,-66893,-63048
653329031455490676,-38434,-67086,-63075
653329031462921730,-38446,-67034,-63123
653329031470352784,-38572,-67024,-63149
653329031477783838,-38562,-67111,-63187
653329031485214892,-38564,-67131,-63336
653329031492645946,-38632,-67195,-63273
6.53329E+17,-38762,-67192,-63453
653329031507508054,-38923,-67338,-63569
653329031514939108,-38872,-67453,-63601
653329031522370162,-38798,-67439,-63591
653329031529801216,-38864,-67425,-63687
653329031537108480,-38871,-67413,-63471
653329031544546816,-38959,-67487,-63638
653329031551985152,-38865,-67481,-63788
653329031559423488,-39128,-67759,-63753
653329031566861824,-37940,-66560,-62555
653329031574300160,-38605,-67178,-63271
653329031581738496,-38889,-67420,-63647
653329031589176832,-39259,-67718,-63912
653329031596615168,-38001,-67908,-63001
653329031604053504,-38705,-67929,-63509
653329031611491840,-39085,-68080,-63875
653329031618930176,-39263,-68074,-64036
653329031626368512,-39359,-68125,-64197
653329031633806848,-39550,-68126,-64329
653329031641245184,-39511,-68119,-64346
653329031648683520,-39440,-68164,-64278
653329031656121856,-39661,-68175,-64539
653329031663560192,-39566,-68136,-64457
653329031671060425,-39381,-68210,-64140
653329031678495120,-39635,-68309,-64348
653329031685929815,-39711,-68220,-64449
653329031693364510,-39615,-68185,-64445
653329031700799205,-39671,-68297,-64575
653329031708233900,-39795,-68408,-64623
653329031715668595,-39679,-68233,-64487
653329031723103290,-39627,-68260,-64573
653329031730537985,-39778,-68334,-64728
653329031737972680,-39851,-68408,-64808
653329031745407375,-39602,-68361,-64757
653329031752842070,-39739,-68390,-64609
653329031760276765,-39840,-68519,-64681
653329031767711460,-39857,-68511,-64782
653329031775146155,-39831,-68571,-64780
653329031782580850,-39832,-68616,-64697
653329031790015545,-39908,-68615,-64709
653329031797450240,-40025,-68688,-64898
653329031804823040,-39690,-68874,-64751
653329031812261376,-39815,-68706,-64802
653329031819699712,-40002,-68789,-65050
653329031827138048,-40147,-68885,-64892
653329031834576384,-40079,-68885,-64937
653329031842014720,-39992,-68804,-64988
653329031849453056,-39992,-68835,-64883
653329031856891392,-40202,-68924,-64992
653329031864329728,-40242,-68772,-64917
653329031871768064,-40278,-68862,-64860
653329031879206400,-40245,-68710,-64968
653329031886644736,-39625,-67508,-63796
653329031894083072,-39851,-68230,-64504
653329031901521408,-40090,-68580,-64827
653329031908959744,-40169,-68671,-65003
653329031916398080,-38996,-68697,-63831
653329031923836416,-39654,-68760,-64655
653329031931274752,-40053,-68748,-64946
653329031938774985,-39879,-68579,-64807
653329031946209680,-40045,-68699,-64985
653329031953644375,-40105,-68674,-65081
653329031961079070,-40135,-68838,-65155
653329031968513765,-40290,-69032,-65119
653329031975948460,-40274,-68882,-65165
653329031983383155,-40275,-68733,-65049
653329031990817850,-40292,-68717,-65152
653329031998252545,-40376,-68804,-65265
653329032005687240,-40302,-68671,-65101
653329032013121935,-40116,-68733,-65073
653329032020556630,-40178,-68687,-65086
653329032027991325,-40196,-68800,-65065
653329032035426020,-40018,-68679,-65074
653329032042860715,-40024,-68799,-65091
653329032050295410,-40141,-68871,-65166
653329032057730105,-40164,-68912,-65287
653329032065164800,-40117,-68794,-65223
653329032072661394,-40293,-68894,-65354
653329032080092448,-40182,-68836,-65326
653329032087523502,-40157,-68819,-65236
653329032094954556,-40198,-68786,-65208
653329032102385610,-40170,-68694,-65166
653329032109816664,-40155,-68821,-65126
653329032117247718,-40067,-68823,-65219
653329032124678772,-40145,-68818,-64996
653329032132109826,-40215,-68755,-65139
653329032139540880,-40278,-68783,-65176
653329032146971934,-40186,-68896,-65134
653329032154402988,-40129,-68781,-65099
653329032161834042,-40199,-68685,-65102
653329032169265096,-40271,-68682,-65057
653329032176696150,-40220,-68744,-65086
653329032184127204,-40101,-68658,-65103
653329032191558258,-40090,-68717,-65041
653329032198989312,-40100,-68683,-65076
653329032206234696,-39599,-67358,-64026
653329032213676672,-39865,-68172,-64489
653329032221118648,-40014,-68494,-64764
653329032228560624,-40078,-68581,-64933
653329032236002600,-38927,-68265,-63782
653329032243444576,-39585,-68618,-64426
653329032250886552,-39813,-68632,-64776
653329032258328528,-39912,-68636,-64934
653329032265770504,-39997,-68759,-64965
653329032273212480,-40022,-68648,-64973
653329032280654456,-39969,-68639,-64998
653329032288096432,-40042,-68724,-65083
653329032295538408,-40083,-68689,-65101
653329032302980384,-40020,-68686,-65054
653329032310422360,-40038,-68705,-64848
653329032317864336,-40144,-68652,-65084
653329032325306312,-40083,-68683,-64997
653329032332748288,-40008,-68607,-65012
653329032340252160,-39899,-68400,-64767
653329032347690496,-40118,-68707,-65018
653329032355128832,-40022,-68494,-64935
653329032362567168,-40079,-68795,-64930
653329032370005504,-40106,-68834,-64945
653329032377443840,-40314,-68801,-65016
653329032384882176,-40009,-68792,-64892
653329032392320512,-40052,-68779,-64982
653329032399758848,-40234,-68871,-65259
653329032407197184,-40445,-68946,-65271
653329032414635520,-40467,-68936,-65322
653329032422073856,-40485,-69060,-65306
653329032429512192,-40484,-69121,-65425
653329032436950528,-40569,-69261,-65605
653329032444388864,-40594,-69319,-65575
653329032451827200,-40549,-69245,-65508
653329032459265536,-40732,-69360,-65627
653329032466703872,-40920,-69486,-65789
653329032474266002,-40964,-69656,-65458
653329032481697056,-40896,-69622,-65741
653329032489128110,-40851,-69676,-65868
653329032496559164,-41018,-69667,-65840
653329032503990218,-40987,-69610,-65959
653329032511421272,-41005,-69737,-65962
653329032518852326,-41132,-69749,-65987
653329032526283380,-41058,-68670,-64811
653329032533714434,-41149,-69380,-65574
653329032541145488,-41198,-69624,-65848
653329032548576542,-41350,-69917,-66076
653329032556007596,-39993,-68909,-64933
653329032563438650,-40688,-69442,-65646
653329032570869704,-40999,-69664,-66026
653329032578300758,-41160,-70035,-66257
653329032585731812,-41296,-70110,-66292
653329032593162866,-41260,-70072,-66336
653329032600593920,-41354,-70102,-66356
653329032607901184,-41391,-70283,-66508
653329032615339520,-41430,-70241,-66546
653329032622777856,-41485,-70158,-66455
653329032630216192,-41541,-70307,-66461
653329032637654528,-41543,-70364,-66590
653329032645092864,-41540,-70234,-66498
653329032652531200,-41415,-70218,-66499
653329032659969536,-41489,-70194,-66503
653329032667407872,-41562,-70253,-66662
653329032674846208,-41404,-70089,-66587
653329032682284544,-41496,-70189,-66535
653329032689722880,-41524,-70362,-66663
653329032697161216,-41587,-70339,-66667
653329032704599552,-41541,-70514,-66606
653329032712037888,-41516,-70413,-66589
653329032719476224,-41577,-70505,-66711
653329032726914560,-41704,-70468,-66881
653329032734352896,-41742,-70443,-66828
653329032741853129,-41452,-70547,-66828
653329032749287824,-41572,-70535,-66861
653329032756722519,-41629,-70482,-66927
653329032764157214,-41640,-70432,-66837
653329032771591909,-41612,-70400,-66826
653329032779026604,-41712,-70425,-66979
653329032786461299,-41726,-70424,-66870
653329032793895994,-41712,-70404,-66919
653329032801330689,-41756,-70448,-66884
653329032808765384,-41785,-70517,-67076
653329032816200079,-41953,-70561,-66964
653329032823634774,-41757,-70583,-67005
653329032831069469,-41806,-70612,-66981
653329032838504164,-41812,-70664,-67029
653329032845938859,-41915,-69277,-65750
653329032853373554,-42025,-70086,-66468
653329032860808249,-41922,-70219,-66652
653329032868242944,-42028,-70398,-66964
653329032875615744,-40887,-69922,-66055
653329032883054080,-41526,-70339,-66548
653329032890492416,-41660,-70576,-66840
653329032897930752,-41782,-70639,-67044
653329032905369088,-41787,-70494,-66960
653329032912807424,-41775,-70402,-66857
653329032920245760,-41942,-70458,-67069
653329032927684096,-42059,-70647,-67169
653329032935122432,-41970,-70663,-67058
653329032942560768,-41936,-70650,-67070
653329032949999104,-41872,-70557,-66958
653329032957437440,-41898,-70679,-67050
653329032964875776,-42018,-70597,-67063
653329032972314112,-41921,-70516,-67033
653329032979752448,-41944,-70475,-67069
653329032987190784,-41977,-70506,-67061
653329032994629120,-41782,-70357,-66846
653329033002067456,-41784,-70480,-66897
653329033009629586,-41978,-70420,-66838
653329033017060640,-41994,-70475,-66953
653329033024491694,-41762,-70452,-66770
653329033031922748,-41867,-70450,-66870
653329033039353802,-41893,-70472,-66918
653329033046784856,-41979,-70511,-67050
653329033054215910,-41858,-70499,-67046
653329033061646964,-41820,-70571,-67012
653329033069078018,-41841,-70557,-66993
653329033076509072,-41897,-70553,-67060
653329033083940126,-41859,-70456,-66944
653329033091371180,-41817,-70424,-66824
653329033098802234,-41838,-70508,-66950
653329033106233288,-41751,-70540,-67021
653329033113664342,-41721,-70548,-66975
653329033121095396,-41712,-70467,-66985
653329033128526450,-41728,-70407,-66948
653329033135957504,-41654,-70553,-66907
653329033143326665,-41631,-70446,-66849
653329033150761360,-41761,-70454,-66962
653329033158196055,-41793,-70406,-67013
653329033165630750,-41663,-69157,-65719
653329033173065445,-41672,-69794,-66372
653329033180500140,-41622,-70064,-66572
653329033187934835,-41643,-70205,-66713
653329033195369530,-40352,-69097,-65597
653329033202804225,-41063,-69874,-66214
653329033210238920,-41369,-69967,-66533
653329033217673615,-41464,-70171,-66742
653329033225108310,-41363,-70220,-66798
653329033232543005,-41443,-70239,-66742
653329033239977700,-41432,-70224,-66691
653329033247412395,-41453,-70255,-66803
653329033254847090,-41439,-70133,-66602
653329033262281785,-41492,-70171,-66618
653329033269716480,-41510,-70215,-66812
653329033277151177,-41557,-70028,-66827
653329033284585872,-41739,-70263,-66871
653329033292020567,-41689,-70358,-66794
653329033299455262,-41726,-70358,-66824
653329033306889957,-41681,-70561,-66894
653329033314324652,-41604,-70327,-66696
653329033321759347,-41717,-70548,-66843
653329033329194042,-41713,-70677,-66757
653329033336628737,-41755,-70796,-66894
653329033344063432,-41905,-70789,-66832
653329033351498127,-41912,-70778,-66939
653329033358932822,-41832,-70846,-66977
653329033366367517,-42035,-70790,-67096
653329033373802212,-42131,-70808,-67134
653329033381236907,-41976,-70975,-67143
653329033388671602,-41959,-71006,-67251
653329033396106297,-41954,-71058,-67249
653329033403540992,-41978,-70900,-67263
653329033410913792,-42142,-71116,-67263
653329033418352128,-42104,-71060,-67286
653329033425790464,-42267,-71114,-67325
653329033433228800,-42170,-71146,-67334
653329033440667136,-42016,-71095,-67393
653329033448105472,-42065,-71123,-67495
653329033455543808,-42094,-71164,-67474
653329033462982144,-42119,-71063,-67522
653329033470420480,-42190,-71201,-67400
653329033477858816,-42182,-71232,-67423
653329033485297152,-42240,-69969,-66223
653329033492735488,-42051,-70576,-66906
653329033500173824,-42178,-71065,-67286
653329033507612160,-42181,-71180,-67406
653329033515050496,-40942,-70021,-66210
653329033522488832,-41593,-70776,-66823
653329033529927168,-41919,-70927,-67213
653329033537365504,-42189,-71117,-67438
653329033544803840,-41872,-71012,-67816
653329033552242176,-41913,-71053,-67613
653329033559680512,-42046,-71180,-67481
653329033567118848,-42135,-71214,-67502
653329033574557184,-42143,-71191,-67434
653329033581995520,-42206,-71184,-67444
653329033589433856,-42100,-71244,-67449
653329033596872192,-42205,-71222,-67519
653329033604310528,-42204,-71216,-67470
653329033611748864,-42098,-71179,-67470
653329033619187200,-42084,-71256,-67459
653329033626625536,-42161,-71344,-67463
653329033634063872,-42011,-71086,-67225
653329033641502208,-42039,-71106,-67290
653329033648940544,-42100,-71200,-67379
653329033656378880,-42151,-71273,-67402
653329033663817216,-41991,-71206,-67278
653329033671255552,-42110,-71219,-67362
653329033678755785,-42297,-71422,-67596
653329033686190480,-42229,-71377,-67653
653329033693625175,-42135,-71277,-67549
653329033701059870,-42101,-71327,-67424
653329033708494565,-42215,-71239,-67373
653329033715929260,-42188,-71234,-67320
653329033723363955,-42166,-71266,-67316
653329033730798650,-41892,-71199,-67248
653329033738233345,-41881,-71222,-67315
653329033745668040,-41988,-71406,-67338
653329033753102735,-41951,-71258,-67290
653329033760537430,-41935,-71134,-67274
653329033767972125,-41852,-71083,-67163
653329033775406820,-41928,-71168,-67283
653329033782841515,-41824,-70994,-67182
653329033790276210,-41998,-71015,-67195
653329033797710905,-41976,-71106,-67282
653329033805145600,-41879,-69749,-65984
653329033812580297,-41926,-70308,-66681
653329033820014992,-41885,-70650,-67013
653329033827449687,-41868,-70985,-67077
653329033834884382,-40620,-69864,-65758
653329033842319077,-41237,-70449,-66488
653329033849753772,-41494,-70655,-66859
653329033857188467,-41677,-70791,-66979
653329033864623162,-41580,-70819,-66960
653329033872057857,-41660,-70778,-67032
653329033879492552,-41674,-70818,-66939
653329033886927247,-41703,-70774,-67015
653329033894361942,-41557,-70729,-66867
653329033901796637,-41534,-70733,-66898
653329033909231332,-41466,-70751,-66831
653329033916666027,-41558,-70821,-66959
653329033924100722,-41585,-70728,-66927
653329033931535417,-41487,-70634,-66866
653329033938970112,-41410,-70609,-66805
653329033946342912,-41633,-70803,-67113
653329033953781248,-41507,-70637,-66808
653329033961219584,-41443,-70676,-66681
653329033968657920,-41507,-70662,-66715
653329033976096256,-41561,-70732,-66756
653329033983534592,-41238,-70648,-66533
653329033990972928,-41263,-70514,-66630
653329033998411264,-41318,-70527,-66814
653329034005849600,-41314,-70438,-66535
653329034013287936,-41253,-70497,-66607
653329034020726272,-41222,-70439,-66502
653329034028164608,-41152,-70596,-66563
653329034035602944,-41326,-70574,-66474
653329034043041280,-41200,-70502,-66412
653329034050479616,-41161,-70336,-66451
653329034057917952,-41162,-70329,-66446
653329034065356288,-41012,-70237,-66440
653329034072794624,-40964,-70355,-66374
653329034080356754,-41115,-70114,-66412
653329034087787808,-41142,-70219,-66285
653329034095218862,-41128,-70327,-66281
653329034102649916,-41024,-70285,-66316
653329034110080970,-41130,-70271,-66267
653329034117512024,-41092,-70254,-66231
653329034124943078,-40874,-68966,-65029
653329034132374132,-41017,-69639,-65877
653329034139805186,-41142,-70031,-66163
653329034147236240,-41040,-70352,-66342
653329034154667294,-39790,-69239,-65130
653329034162098348,-40472,-69892,-65721
653329034169529402,-40895,-70337,-66151
653329034176960456,-41089,-70530,-66290
653329034184391510,-40165,-70520,-66493
653329034191822564,-40728,-70532,-66410
653329034199253618,-41034,-70725,-66573
653329034206684672,-41168,-70803,-66564
653329034213991936,-41362,-70745,-66685
653329034221430272,-41236,-70601,-66561
653329034228868608,-41347,-70776,-66646
653329034236306944,-41359,-70912,-66734
653329034243745280,-41318,-70863,-66736
653329034251183616,-41387,-70762,-66639
653329034258621952,-41457,-70853,-66742
653329034266060288,-41590,-70907,-66797
653329034273498624,-41561,-70757,-66519
653329034280936960,-41537,-70866,-66544
653329034288375296,-41503,-71070,-66793
653329034295813632,-41582,-71055,-66877
653329034303251968,-41397,-70804,-66604
653329034310690304,-41494,-70909,-66766
653329034318128640,-41584,-71001,-66796
653329034325566976,-41525,-70992,-66854
653329034333005312,-41459,-71043,-66830
653329034340443648,-41366,-71079,-66788
653329034347881984,-41638,-70995,-66901
653329034355320320,-41620,-71042,-66806
653329034362758656,-41588,-71038,-66709
653329034370196992,-41671,-71031,-66734
653329034377635328,-41764,-71020,-66748
653329034385073664,-41593,-70962,-66773
6.53329E+17,-41530,-70871,-66673
653329034399950336,-41524,-70823,-66870
653329034407388672,-41641,-70868,-66943
653329034414827008,-41492,-70847,-66915
653329034422265344,-41411,-70877,-66695
653329034429703680,-41454,-70908,-66873
653329034437142016,-41621,-70934,-66982
653329034444580352,-41466,-69688,-65593
653329034452018688,-41543,-70301,-66198
653329034459457024,-41462,-70655,-66419
653329034466895360,-41512,-70851,-66643
653329034474333696,-40259,-69614,-65518
653329034481895826,-40892,-70525,-66235
653329034489326880,-41307,-70827,-66549
653329034496757934,-41409,-70920,-66734
653329034504188988,-40178,-70856,-66756
653329034511620042,-40895,-70873,-66677
653329034519051096,-41300,-70985,-66763
653329034526482150,-41414,-70987,-66679
653329034533913204,-41334,-70890,-66567
653329034541344258,-41401,-70957,-66640
653329034548775312,-41319,-70816,-66663
653329034556206366,-41492,-70873,-66802
653329034563637420,-41514,-70873,-66715
653329034571068474,-41427,-70822,-66731
653329034578499528,-41394,-70801,-66660
653329034585930582,-41393,-70983,-66660
653329034593361636,-41229,-70808,-66483
653329034600792690,-41306,-70839,-66581
653329034608223744,-41288,-70834,-66576
653329034615469128,-41383,-70899,-66645
653329034622911104,-41021,-70718,-66516
653329034630353080,-41089,-70599,-66424
653329034637795056,-41263,-70703,-66524
653329034645237032,-41326,-70809,-66658
653329034652679008,-41221,-70835,-66531
653329034660120984,-41193,-70757,-66488
653329034667562960,-41319,-70778,-66484
653329034675004936,-41289,-70705,-66571
653329034682446912,-41328,-70619,-66537
653329034689888888,-41337,-70668,-66603
653329034697330864,-41215,-70664,-66475
653329034704772840,-41227,-70587,-66499
653329034712214816,-41203,-70587,-66439
653329034719656792,-41048,-70536,-66408
653329034727098768,-41141,-70629,-66441
653329034734540744,-41111,-70607,-66333
653329034741982720,-40955,-70570,-66242
653329034749610386,-41026,-70541,-65927
653329034757041440,-41243,-70571,-66205
653329034764472494,-41203,-69333,-65337
653329034771903548,-41149,-69965,-65751
653329034779334602,-41089,-70257,-66091
653329034786765656,-41075,-70343,-66335
653329034794196710,-39647,-69172,-64886
653329034801627764,-40352,-69743,-65611
653329034809058818,-40652,-70171,-65862
653329034816489872,-40869,-70311,-66007
653329034823920926,-39709,-70228,-66178
653329034831351980,-40373,-70295,-66199
653329034838783034,-40565,-70257,-66049
653329034846214088,-40777,-70317,-66124
653329034853645142,-40771,-70301,-66040
653329034861076196,-40822,-70266,-66114
653329034868507250,-40899,-70311,-66123
653329034875938304,-41002,-70202,-66152
653329034883245568,-40665,-70292,-65851
653329034890683904,-40699,-70249,-65995
653329034898122240,-40862,-70293,-65971
653329034905560576,-40720,-70164,-65981
653329034912998912,-40712,-69962,-65807
653329034920437248,-40768,-70001,-65854
653329034927875584,-40786,-70050,-65951
653329034935313920,-40762,-70031,-65796
653329034942752256,-40519,-69839,-65635
653329034950190592,-40581,-69965,-65729
653329034957628928,-40536,-70062,-65754
653329034965067264,-40643,-70045,-65866
653329034972505600,-40476,-70066,-65759
653329034979943936,-40587,-70086,-65773
653329034987382272,-40478,-70081,-65912
653329034994820608,-40606,-70170,-65878
653329035002258944,-40675,-70156,-65973
653329035009697280,-40790,-70263,-65959
653329035017135616,-41028,-70519,-65788
653329035024573952,-40908,-70386,-65983
653329035032012288,-40966,-70343,-65996
653329035039450624,-40923,-70431,-66148
653329035046888960,-40971,-70413,-66190
653329035054327296,-40959,-70501,-66107
653329035061765632,-40948,-70505,-66032
653329035069203968,-40953,-70459,-66088
653329035076642304,-41186,-70552,-66266
653329035084080640,-41062,-69247,-65409
653329035091518976,-41019,-69930,-65820
653329035098957312,-41038,-70375,-66076
653329035106395648,-41102,-70602,-66216
653329035113833984,-39868,-69470,-64888
653329035121272320,-40646,-70089,-65688
653329035128710656,-41066,-70484,-66117
653329035136148992,-41193,-70692,-66351
653329035143587328,-39995,-70720,-66448
653329035151149458,-40446,-70651,-66512
653329035158580512,-40904,-70826,-66513
653329035166011566,-41170,-70819,-66533
653329035173442620,-41274,-70834,-66480
653329035180873674,-41300,-70855,-66281
653329035188304728,-41419,-70878,-66484
653329035195735782,-41391,-70905,-66503
653329035203166836,-41233,-70802,-66465
653329035210597890,-41287,-70829,-66447
653329035218028944,-41241,-70848,-66395
653329035225459998,-41360,-70968,-66446
653329035232891052,-41281,-70735,-66268
653329035240322106,-41238,-70693,-66394
653329035247753160,-41467,-70970,-66448
653329035255184214,-41393,-70876,-66441
653329035262615268,-41248,-70619,-66266
653329035270046322,-41443,-70812,-66431
653329035277477376,-41554,-71063,-66634
653329035284722760,-41508,-70756,-66353
653329035292164736,-41368,-70782,-66456
653329035299606712,-41268,-70814,-66732
653329035307048688,-41387,-70841,-66680
653329035314490664,-41444,-71029,-66689
653329035321932640,-41443,-70874,-66599
653329035329374616,-41533,-70912,-66690
653329035336816592,-41606,-70927,-66749
653329035344258568,-41556,-71115,-66556
653329035351700544,-41430,-70979,-66541
653329035359142520,-41428,-70872,-66552
653329035366584496,-41450,-71099,-66615
653329035374026472,-41484,-71113,-66673
653329035381468448,-41406,-70874,-66516
653329035388910424,-41457,-70864,-66627
653329035396352400,-41471,-71102,-66564
653329035403794376,-41518,-69725,-65923
653329035411236352,-41504,-70404,-66346
653329035418864018,-41483,-70699,-66711
653329035426295072,-41442,-70805,-66713
653329035433726126,-40210,-69530,-65390
653329035441157180,-40740,-70219,-66020
653329035448588234,-41158,-70566,-66383
653329035456019288,-41245,-70766,-66496
653329035463450342,-40145,-70734,-66609
653329035470881396,-40821,-70850,-66582
653329035478312450,-41092,-70815,-66523
653329035485743504,-41247,-70793,-66561
653329035493174558,-41302,-70748,-66521
653329035500605612,-41329,-70867,-66486
653329035508036666,-41315,-70823,-66565
653329035515467720,-41420,-70819,-66538
653329035522898774,-41410,-70648,-66557
653329035530329828,-41379,-70667,-66572
653329035537760882,-41314,-70728,-66522
653329035545191936,-41420,-70737,-66590
653329035552499200,-41157,-70525,-66504
653329035559937536,-41202,-70510,-66527
653329035567375872,-41283,-70649,-66481
653329035574814208,-41331,-70613,-66497
653329035582252544,-41094,-70434,-66278
653329035589690880,-41205,-70545,-66364
653329035597129216,-41174,-70642,-66413
653329035604567552,-41297,-70650,-66311
653329035612005888,-41075,-70518,-66230
653329035619444224,-41147,-70528,-66329
653329035626882560,-41237,-70594,-66402
653329035634320896,-41217,-70449,-66316
653329035641759232,-41171,-70445,-66245
653329035649197568,-41238,-70493,-66324
653329035656635904,-41268,-70433,-66359
653329035664074240,-41120,-70402,-66348
653329035671512576,-41148,-70365,-66277
653329035678950912,-41171,-70334,-66311
653329035686451145,-41102,-70078,-66515
653329035693885840,-41300,-70314,-66379
653329035701320535,-41191,-70456,-66182
653329035708755230,-41154,-70400,-66264
653329035716189925,-41170,-70382,-66326
653329035723624620,-41155,-69119,-65601
653329035731059315,-41062,-69752,-66004
653329035738494010,-41027,-70040,-66156
653329035745928705,-41027,-70288,-66257
653329035753363400,-39787,-69079,-64887
653329035760798095,-40477,-69682,-65570
653329035768232790,-40723,-69998,-65859
653329035775667485,-40889,-70102,-65994
653329035783102180,-39613,-70062,-66052
653329035790536875,-40435,-70020,-66137
653329035797971570,-40670,-70096,-66026
653329035805406265,-40748,-70115,-66039
653329035812840960,-40844,-70137,-65998
653329035820337554,-40585,-69847,-66129
653329035827768608,-40847,-70037,-66064
653329035835199662,-40755,-70019,-65960
653329035842630716,-40897,-69994,-65928
653329035850061770,-40956,-70133,-65953
653329035857492824,-40928,-70047,-65893
653329035864923878,-40853,-70170,-65893
653329035872354932,-40870,-69843,-65759
653329035879785986,-40875,-69964,-65809
653329035887217040,-41045,-70047,-66025
653329035894648094,-41053,-70107,-66097
653329035902079148,-40837,-69901,-65813
653329035909510202,-40836,-69994,-65911
653329035916941256,-40874,-70160,-66031
653329035924372310,-40908,-70283,-65971
653329035931803364,-40839,-70249,-65920
653329035939234418,-40944,-70253,-65989
653329035946665472,-41072,-70324,-66028
653329035953910856,-41135,-70429,-66197
653329035961352832,-41073,-70283,-66157
653329035968794808,-41100,-70306,-66212
653329035976236784,-41234,-70327,-66328
653329035983678760,-41185,-70356,-66209
653329035991120736,-41221,-70392,-66233
653329035998562712,-41437,-70455,-66308
653329036006004688,-41287,-70549,-66336
653329036013446664,-41364,-70467,-66370
653329036020888640,-41495,-70579,-66357
653329036028330616,-41501,-70638,-66476
653329036035772592,-41535,-70638,-66586
653329036043214568,-41667,-69362,-66111
653329036050656544,-41521,-70071,-66354
653329036058098520,-41590,-70442,-66485
653329036065540496,-41546,-70721,-66491
653329036072982472,-40368,-69522,-65236
653329036080424448,-41031,-70189,-66083
653329036088052114,-41503,-70713,-66591
653329036095483168,-41683,-70837,-66751
653329036102914222,-40501,-70807,-66674
653329036110345276,-41227,-70994,-66698
653329036117776330,-41584,-71019,-66860
653329036125207384,-41683,-70846,-66892
653329036132638438,-41727,-70765,-66897
653329036140069492,-41829,-70781,-66816
653329036147500546,-41867,-70911,-66842
653329036154931600,-41898,-71027,-66813
653329036162362654,-41833,-70818,-66847
653329036169793708,-41949,-70809,-66813
653329036177224762,-41853,-70878,-66832
653329036184655816,-41909,-70932,-66937
653329036192086870,-41747,-70628,-66704
653329036199517924,-41750,-70791,-66787
653329036206948978,-41774,-70966,-66841
653329036214380032,-41762,-70826,-66903
653329036221687296,-41714,-70498,-66291
653329036229125632,-41750,-70609,-66610
653329036236563968,-41963,-70918,-66763
653329036244002304,-41953,-70924,-66824
653329036251440640,-41862,-70985,-66765
653329036258878976,-41902,-70994,-66865
653329036266317312,-41902,-70941,-66896
653329036273755648,-41943,-70837,-66845
653329036281193984,-42003,-70864,-66961
653329036288632320,-41933,-70825,-66877
653329036296070656,-42006,-71005,-66868
653329036303508992,-41892,-70826,-66737
653329036310947328,-41870,-70834,-66799
653329036318385664,-41928,-70878,-66979
6.53329E+17,-41910,-70918,-66901
653329036333262336,-41886,-70897,-66975
653329036340700672,-41943,-70890,-66975
653329036348139008,-42019,-70944,-66983
653329036355577344,-42178,-70462,-66710
653329036363015680,-41976,-69435,-66311
653329036370454016,-41903,-70149,-66612
653329036377892352,-41875,-70517,-66679
653329036385330688,-41772,-70712,-66823
653329036392769024,-40573,-69404,-65582
653329036400207360,-41285,-70158,-66364
653329036407645696,-41649,-70642,-66645
653329036415084032,-41960,-70770,-66752
653329036422522368,-40720,-70677,-66735
653329036429960704,-41313,-70722,-66794
653329036437399040,-41786,-70728,-66940
653329036444837376,-41967,-70803,-66930
653329036452275712,-41782,-70633,-66814
653329036459714048,-41817,-70710,-66813
653329036467152384,-42136,-70725,-66844
653329036474590720,-42005,-70786,-66866
653329036482029056,-41946,-70653,-66879
653329036489591186,-41852,-70863,-66686
653329036497022240,-41888,-70755,-66741
653329036504453294,-41786,-70613,-66803
653329036511884348,-41837,-70412,-66608
653329036519315402,-41891,-70486,-66785
653329036526746456,-41979,-70630,-66714
653329036534177510,-41887,-70551,-66766
653329036541608564,-41551,-70337,-66484
653329036549039618,-41672,-70417,-66622
653329036556470672,-41724,-70580,-66624
653329036563901726,-41739,-70505,-66556
653329036571332780,-41478,-70421,-66594
653329036578763834,-41703,-70457,-66687
653329036586194888,-41732,-70454,-66794
653329036593625942,-41653,-70398,-66588
653329036601056996,-41656,-70322,-66569
653329036608488050,-41670,-70393,-66481
653329036615919104,-41699,-70439,-66488
653329036623164488,-41405,-70097,-66730
653329036630606464,-41561,-70208,-66604
653329036638048440,-41603,-70303,-66707
653329036645490416,-41641,-70379,-66721
653329036652932392,-41611,-70308,-66662
653329036660374368,-41593,-70251,-66593
653329036667816344,-41745,-70255,-66706
653329036675258320,-41640,-70211,-66602
653329036682700296,-41638,-68964,-66423
653329036690142272,-41599,-69568,-66417
653329036697584248,-41626,-69878,-66519
653329036705026224,-41629,-70016,-66531
653329036712468200,-40265,-68831,-65108
653329036719910176,-40957,-69447,-65837
653329036727352152,-41159,-69799,-66167
653329036734794128,-41206,-69944,-66283
653329036742236104,-40130,-69929,-66339
653329036749678080,-40890,-69901,-66201
653329036757243849,-41415,-70176,-66335
653329036764678544,-41459,-70004,-66386
653329036772113239,-41384,-69896,-66354
653329036779547934,-41414,-69932,-66405
653329036786982629,-41420,-69923,-66441
653329036794417324,-41301,-69886,-66344
653329036801852019,-41312,-69727,-66228
653329036809286714,-41324,-69798,-66126
653329036816721409,-41410,-69857,-66260
653329036824156104,-41345,-69812,-66237
653329036831590799,-41181,-69619,-66020
653329036839025494,-41210,-69765,-66009
653329036846460189,-41154,-69860,-66017
653329036853894884,-41155,-69834,-66112
653329036861329579,-40959,-69601,-65970
653329036868764274,-41164,-69897,-66005
653329036876198969,-41288,-70045,-66154
653329036883633664,-41326,-69905,-66130
653329036891130258,-41298,-70090,-66168
653329036898561312,-41358,-70121,-66357
653329036905992366,-41471,-70096,-66389
653329036913423420,-41579,-70149,-66297
653329036920854474,-41727,-70185,-66364
653329036928285528,-41718,-70223,-66451
653329036935716582,-41804,-70236,-66504
653329036943147636,-41648,-70175,-66394
653329036950578690,-41662,-70186,-66402
653329036958009744,-41853,-70178,-66948
653329036965440798,-41776,-70237,-66565
653329036972871852,-41761,-70219,-66554
653329036980302906,-41798,-70190,-66617
653329036987733960,-41845,-70297,-66656
653329036995165014,-41863,-70296,-66689
653329037002596068,-41783,-69065,-66641
653329037010027122,-41802,-69806,-66681
653329037017458176,-42080,-70100,-66820
653329037024765440,-42267,-70354,-66775
653329037032203776,-40879,-69147,-65574
653329037039642112,-41608,-69935,-66371
653329037047080448,-41871,-70304,-66729
653329037054518784,-42114,-70440,-66777
653329037061957120,-40970,-70534,-66445
653329037069395456,-41637,-70508,-66727
653329037076833792,-42065,-70520,-66870
653329037084272128,-42189,-70601,-66956
653329037091710464,-42076,-70483,-66951
653329037099148800,-42274,-70570,-66985
653329037106587136,-42386,-70545,-67096
653329037114025472,-42341,-70476,-67069
653329037121463808,-42233,-70534,-67045
653329037128902144,-42238,-70550,-67097
653329037136340480,-42400,-70632,-67093
653329037143778816,-42311,-70563,-67059
653329037151217152,-42319,-70363,-66962
653329037158717385,-42571,-70584,-67055
653329037166152080,-42474,-70615,-67080
653329037173586775,-42386,-70472,-66937
653329037181021470,-42271,-70461,-66806
653329037188456165,-42327,-70581,-66902
653329037195890860,-42451,-70557,-66899
653329037203325555,-42432,-70579,-66933
653329037210760250,-42258,-70559,-66942
653329037218194945,-42459,-70630,-66954
653329037225629640,-42443,-70687,-67187
653329037233064335,-42303,-70528,-67118
653329037240499030,-42356,-70507,-67140
653329037247933725,-42512,-70587,-67191
653329037255368420,-42420,-70493,-67180
653329037262803115,-42438,-70536,-67021
653329037270237810,-42449,-70469,-67113
653329037277672505,-42477,-70465,-67174
653329037285107200,-42497,-70540,-67199
653329037292418120,-42428,-70546,-67257
653329037299860096,-42425,-70475,-67124
653329037307302072,-42414,-70535,-67157
653329037314744048,-42308,-70419,-67334
653329037322186024,-42412,-69929,-67087
6.53329E+17,-42236,-70007,-67324
653329037337069976,-42311,-70281,-67340
653329037344511952,-42311,-70302,-67071
653329037351953928,-41174,-69130,-65741
653329037359395904,-41734,-69936,-66330
653329037366837880,-42173,-70278,-66708
653329037374279856,-42339,-70346,-66996
653329037381721832,-41007,-70273,-65949
653329037389163808,-41773,-70413,-66491
653329037396605784,-42059,-70345,-66831
653329037404047760,-42131,-70346,-66806
653329037411489736,-42305,-70312,-66923
653329037418931712,-42260,-70244,-67036
653329037426559378,-42251,-70284,-66994
653329037433990432,-42288,-70358,-66867
653329037441421486,-42264,-70406,-66953
653329037448852540,-42167,-70310,-66968
653329037456283594,-42276,-70178,-66850
653329037463714648,-42329,-70200,-66804
653329037471145702,-42315,-70158,-66773
653329037478576756,-42246,-70120,-66764
653329037486007810,-42222,-70216,-66812
653329037493438864,-42091,-70082,-66810
653329037500869918,-41885,-69833,-66625
653329037508300972,-42016,-69959,-66712
653329037515732026,-42091,-69979,-66725
653329037523163080,-42070,-70018,-66735
653329037530594134,-41842,-69859,-66695
653329037538025188,-41947,-69900,-66556
653329037545456242,-41950,-69918,-66598
653329037552887296,-41892,-69866,-66476
653329037560194560,-41610,-69842,-66512
653329037567632896,-41780,-69782,-66502
653329037575071232,-41917,-69932,-66524
653329037582509568,-41767,-69686,-66445
653329037589947904,-41840,-69614,-66420
653329037597386240,-41693,-69696,-66436
653329037604824576,-41779,-69705,-66442
653329037612262912,-41680,-69664,-66206
653329037619701248,-41735,-69598,-66282
653329037627139584,-41733,-69594,-66319
653329037634577920,-41680,-69585,-66395
653329037642016256,-41630,-69333,-66301
653329037649454592,-41489,-69449,-66230
653329037656892928,-41711,-69585,-66329
653329037664331264,-41705,-69453,-66239
653329037671769600,-40431,-68170,-65042
653329037679207936,-40999,-68865,-65643
653329037686646272,-41331,-69217,-65903
653329037694146505,-41223,-69505,-65910
653329037701581200,-40067,-69445,-64770
653329037709015895,-40796,-69296,-65484
653329037716450590,-41056,-69206,-65769
653329037723885285,-41189,-69243,-65949
653329037731319980,-41219,-69215,-65957
653329037738754675,-41257,-69137,-66010
653329037746189370,-41311,-69351,-66007
653329037753624065,-41241,-69340,-65949
653329037761058760,-41167,-69167,-65762
653329037768493455,-41184,-69125,-65790
653329037775928150,-41103,-69086,-65786
653329037783362845,-41161,-69009,-65668
653329037790797540,-41179,-68776,-65733
653329037798232235,-41116,-68931,-65728
653329037805666930,-41050,-68841,-65631
653329037813101625,-41112,-68994,-65545
653329037820536320,-40984,-68848,-65442
653329037827971017,-41177,-69087,-65602
653329037835405712,-41163,-69098,-65644
653329037842840407,-41102,-69134,-65557
653329037850275102,-40850,-69120,-65543
653329037857709797,-41010,-69132,-65563
653329037865144492,-41142,-69086,-65694
653329037872579187,-41027,-69035,-65630
653329037880013882,-41001,-69128,-65545
653329037887448577,-41161,-69277,-65583
653329037894883272,-41246,-69180,-65636
653329037902317967,-41274,-69166,-65742
653329037909752662,-41343,-69154,-65842
653329037917187357,-41325,-69249,-65890
653329037924622052,-41239,-69176,-65853
653329037932056747,-41162,-69256,-65683
653329037939491442,-41176,-69376,-65730
653329037946926137,-41385,-69304,-65876
653329037954360832,-41398,-69367,-65805
653329037961733632,-41036,-69442,-65596
653329037969171968,-41099,-69340,-65783
653329037976610304,-41427,-69393,-65889
653329037984048640,-41377,-69303,-65772
653329037991486976,-40268,-67922,-64492
653329037998925312,-40962,-68715,-65286
653329038006363648,-41164,-69043,-65621
653329038013801984,-41241,-69212,-65678
653329038021240320,-39884,-69163,-64452
653329038028678656,-40662,-69106,-65219
653329038036116992,-41049,-69140,-65526
653329038043555328,-41405,-69164,-65724
653329038050993664,-41255,-69144,-65678
6.53329E+17,-41294,-69185,-65698
653329038065870336,-41255,-69244,-65748
653329038073308672,-41214,-69197,-65719
653329038080747008,-41267,-69072,-65715
653329038088185344,-41230,-69189,-65731
653329038095747474,-41128,-68875,-65535
653329038103178528,-41201,-68963,-65652
653329038110609582,-41191,-68854,-65643
653329038118040636,-41154,-68984,-65663
653329038125471690,-41174,-69017,-65613
653329038132902744,-41249,-69005,-65606
653329038140333798,-41160,-68906,-65384
653329038147764852,-41178,-69106,-65568
653329038155195906,-41124,-69073,-65613
653329038162626960,-41091,-68997,-65576
653329038170058014,-40932,-69075,-65494
653329038177489068,-41158,-68930,-65645
653329038184920122,-41176,-68943,-65729
653329038192351176,-41098,-68897,-65498
653329038199782230,-41145,-68953,-65493
653329038207213284,-41160,-69076,-65491
653329038214644338,-41171,-68941,-65561
653329038222075392,-41011,-68903,-65405
653329038229382656,-41084,-69056,-65364
653329038236820992,-41069,-69124,-65579
653329038244259328,-40984,-68874,-65442
653329038251697664,-40933,-68829,-65526
6.53329E+17,-40990,-68839,-65339
653329038266574336,-40964,-68835,-65301
653329038274012672,-40927,-68734,-65269
653329038281451008,-40908,-68172,-65398
653329038288889344,-40810,-68476,-65310
653329038296327680,-40905,-68568,-65245
653329038303766016,-40931,-68590,-65297
653329038311204352,-39667,-67280,-64058
653329038318642688,-40377,-68028,-64662
653329038326081024,-40529,-68278,-64874
653329038333519360,-40544,-68391,-65004
653329038340957696,-39340,-68390,-64085
653329038348396032,-40114,-68458,-64618
653329038355834368,-40528,-68584,-64954
653329038363334601,-40790,-68442,-64665
653329038370769296,-40622,-68280,-64741
653329038378203991,-40606,-68359,-64817
653329038385638686,-40472,-68454,-64782
653329038393073381,-40486,-68341,-64792
653329038400508076,-40493,-68478,-64816
653329038407942771,-40558,-68485,-64895
653329038415377466,-40539,-68347,-64943
653329038422812161,-40422,-68287,-64842
653329038430246856,-40408,-68075,-64710
653329038437681551,-40493,-68159,-64772
653329038445116246,-40541,-68366,-64797
653329038452550941,-40387,-68356,-64550
653329038459985636,-40271,-68075,-64416
653329038467420331,-40326,-68207,-64502
653329038474855026,-40301,-68148,-64590
653329038482289721,-40249,-68092,-64584
653329038489724416,-40028,-68073,-64567
653329038497097216,-40376,-67883,-64292
653329038504535552,-40330,-67991,-64350
653329038511973888,-40249,-67976,-64351
653329038519412224,-40138,-67853,-64324
653329038526850560,-40120,-67919,-64453
653329038534288896,-40236,-67947,-64396
653329038541727232,-39985,-67850,-64285
653329038549165568,-39998,-67806,-64209
653329038556603904,-40062,-67750,-64247
653329038564042240,-39972,-67773,-64204
653329038571480576,-39992,-67733,-64140
653329038578918912,-39970,-67656,-64166
653329038586357248,-39762,-67649,-64117
653329038593795584,-39819,-67631,-64136
653329038601233920,-39623,-66758,-63983
653329038608672256,-39718,-67187,-64057
653329038616110592,-39761,-67406,-64086
653329038623548928,-39695,-67550,-64044
653329038631049161,-38104,-66196,-62406
653329038638483856,-38945,-66968,-63224
653329038645918551,-39288,-67220,-63630
653329038653353246,-39527,-67324,-63666
653329038660787941,-38351,-67230,-62985
653329038668222636,-38981,-67250,-63403
653329038675657331,-39208,-67281,-63619
653329038683092026,-39309,-67167,-63637
653329038690526721,-39347,-67138,-63695
653329038697961416,-39374,-67132,-63703
653329038705396111,-39372,-67096,-63633
653329038712830806,-39317,-67080,-63673
653329038720265501,-39360,-67063,-63563
653329038727700196,-39320,-67094,-63600
653329038735134891,-39258,-67005,-63578
653329038742569586,-39289,-67030,-63580
653329038750004281,-39336,-66796,-63412
653329038757438976,-39226,-66847,-63468
653329038764811776,-38915,-66747,-63181
653329038772250112,-38969,-66751,-63288
653329038779688448,-38886,-66641,-63070
653329038787126784,-39031,-66864,-63293
653329038794565120,-39068,-66889,-63351
653329038802003456,-39068,-66860,-63334
653329038809441792,-38907,-66943,-63333
653329038816880128,-39018,-67101,-63281
653329038824318464,-39239,-67050,-63359
653329038831756800,-39351,-66978,-63424
653329038839195136,-39277,-66936,-63378
653329038846633472,-39310,-67146,-63376
653329038854071808,-39294,-67169,-63381
653329038861510144,-39166,-67154,-63428
653329038868948480,-39216,-67167,-63357
653329038876386816,-39298,-67167,-63450
653329038883825152,-39381,-67149,-63535
653329038891263488,-39315,-67172,-63532
653329038898825618,-39387,-66857,-63471
653329038906256672,-39616,-67156,-63529
653329038913687726,-39549,-67110,-63538
653329038921118780,-39391,-66465,-63537
653329038928549834,-39474,-66906,-63546
653329038935980888,-39398,-67086,-63513
653329038943411942,-39343,-67116,-63524
653329038950842996,-38118,-65810,-62255
653329038958274050,-38811,-66512,-62961
653329038965705104,-39199,-66910,-63260
653329038973136158,-39409,-66996,-63314
653329038980567212,-38244,-67126,-62630
653329038987998266,-38983,-67164,-63123
653329038995429320,-39251,-67206,-63385
653329039002860374,-39347,-67283,-63447
653329039010291428,-39437,-67230,-63548
653329039017722482,-39462,-67116,-63643
653329039025153536,-39434,-67153,-63515
653329039032522697,-39512,-67069,-63582
653329039039957392,-39436,-66969,-63585
653329039047392087,-39543,-67112,-63652
653329039054826782,-39582,-67195,-63617
653329039062261477,-39537,-67137,-63514
653329039069696172,-39548,-67016,-63572
653329039077130867,-39466,-67004,-63480
653329039084565562,-39406,-67085,-63550
653329039092000257,-39351,-67033,-63429
653329039099434952,-39157,-66849,-63227
653329039106869647,-39339,-67121,-63447
653329039114304342,-39525,-67222,-63589
653329039121739037,-39419,-67118,-63482
653329039129173732,-39349,-67174,-63420
653329039136608427,-39430,-67136,-63604
653329039144043122,-39437,-67083,-63523
653329039151477817,-39315,-67013,-63399
653329039158912512,-39401,-67044,-63504
653329039166285312,-39780,-66923,-63336
653329039173723648,-39583,-67004,-63404
653329039181161984,-39465,-66916,-63445
653329039188600320,-39498,-67036,-63577
653329039196038656,-39561,-67167,-63607
653329039203476992,-39588,-67269,-63500
653329039210915328,-39528,-67038,-63501
653329039218353664,-39482,-67097,-63543
6.53329E+17,-39522,-67127,-63482
653329039233230336,-39545,-67220,-63548
653329039240668672,-39419,-66510,-63547
653329039248107008,-39470,-66812,-63601
653329039255545344,-39490,-66920,-63533
653329039262983680,-39430,-66892,-63466
653329039270422016,-38189,-65595,-62172
653329039277860352,-38856,-66397,-62938
653329039285298688,-39312,-66708,-63231
653329039292737024,-39427,-66762,-63287
653329039300175360,-37825,-66896,-62277
653329039307613696,-38812,-66910,-62974
653329039315052032,-39122,-66909,-63268
653329039322490368,-39158,-66798,-63262
653329039329928704,-39013,-66859,-63273
653329039337367040,-39117,-66848,-63287
653329039344805376,-39390,-66772,-63336
653329039352243712,-39204,-66804,-63276
653329039359682048,-39248,-66698,-63225
653329039367120384,-39285,-66706,-63323
653329039374558720,-39219,-66657,-63289
653329039381997056,-39235,-66655,-63403
653329039389435392,-39239,-66610,-63223
653329039396873728,-39256,-66604,-63268
653329039404312064,-39246,-66737,-63244
653329039411750400,-39157,-66578,-63095
653329039419188736,-38985,-66379,-62976
653329039426627072,-39024,-66577,-63132
653329039434189202,-39280,-66452,-62889
653329039441620256,-39217,-66419,-63037
653329039449051310,-39169,-66557,-63151
653329039456482364,-39202,-66651,-63164
653329039463913418,-39148,-66672,-63079
653329039471344472,-39049,-66516,-63104
653329039478775526,-39068,-66371,-63124
653329039486206580,-39054,-66483,-63109
653329039493637634,-39060,-66450,-63081
653329039501068688,-39038,-66414,-63180
653329039508499742,-38980,-66463,-63084
653329039515930796,-38998,-66463,-63035
653329039523361850,-39014,-66416,-63128
653329039530792904,-38948,-66315,-63040
653329039538223958,-38998,-66307,-62959
653329039545655012,-38911,-66331,-62948
653329039553086066,-38913,-66387,-62940
653329039560517120,-38842,-66028,-62864
653329039567824384,-38846,-66202,-62918
653329039575262720,-38797,-66202,-62918
653329039582701056,-38752,-66107,-62897
653329039590139392,-37519,-64840,-61553
653329039597577728,-38181,-65567,-62300
653329039605016064,-38552,-65832,-62632
653329039612454400,-38615,-65955,-62733
653329039619892736,-37343,-66027,-61547
653329039627331072,-38117,-66149,-62117
653329039634769408,-38407,-66113,-62448
653329039642207744,-38530,-65913,-62505
653329039649646080,-38720,-65991,-62707
653329039657084416,-38782,-66054,-62814
653329039664522752,-38661,-66053,-62698
653329039671961088,-38517,-65956,-62724
653329039679399424,-38520,-65960,-62603
653329039686837760,-38544,-65963,-62745
653329039694276096,-38518,-65900,-62618
653329039701714432,-38626,-66055,-62586
653329039709152768,-38466,-65640,-62534
653329039716591104,-38530,-65752,-62549
653329039724029440,-38471,-65754,-62581
653329039731467776,-38408,-65825,-62529
653329039738906112,-38231,-65696,-62353
653329039746344448,-38383,-65704,-62477
653329039753782784,-38548,-65802,-62651
653329039761221120,-38547,-65801,-62513
653329039768659456,-38380,-65849,-62633
653329039776097792,-38715,-65817,-62698
653329039783536128,-38672,-65908,-62703
653329039790974464,-38576,-65871,-62526
653329039798412800,-38760,-65997,-62643
653329039805851136,-38695,-65990,-62718
653329039813289472,-38681,-66031,-62681
653329039820727808,-38595,-65991,-62636
653329039828166144,-38660,-66065,-62687
653329039835728274,-38652,-65778,-62589
653329039843159328,-38825,-65916,-62591
653329039850590382,-38868,-65960,-62761
653329039858021436,-38841,-66074,-62841
653329039865452490,-38886,-66151,-62822
653329039872883544,-38817,-66109,-62835
653329039880314598,-38808,-65923,-62864
653329039887745652,-38789,-66227,-62872
653329039895176706,-38915,-66252,-62869
653329039902607760,-38888,-66195,-62851
653329039910038814,-37609,-64997,-61630
653329039917469868,-38333,-65746,-62313
653329039924900922,-38857,-66201,-62802
653329039932331976,-38997,-66362,-62803
653329039939763030,-37762,-66294,-61685
653329039947194084,-38565,-66361,-62547
653329039954625138,-38975,-66369,-62954
653329039962056192,-38973,-66483,-62948
653329039969363456,-39020,-66666,-62793
653329039976801792,-39148,-66707,-63107
653329039984240128,-39227,-66662,-63171
653329039991678464,-39260,-66567,-63298
653329039999116800,-39344,-66537,-63270
653329040006555136,-39308,-66505,-63241
653329040013993472,-39361,-66441,-63187
653329040021431808,-39395,-66424,-63183
653329040028870144,-39414,-66279,-63363
653329040036308480,-39503,-66398,-63461
653329040043746816,-39327,-66479,-63404
653329040051185152,-39322,-66423,-63359
653329040058623488,-39166,-66387,-63080
653329040066061824,-39286,-66548,-63159
653329040073500160,-39342,-66567,-63156
653329040080938496,-39470,-66498,-63230
653329040088376832,-39389,-66556,-63388
653329040095815168,-39513,-66595,-63464
653329040103315401,-39250,-66506,-63009
653329040110750096,-39401,-66580,-63237
653329040118184791,-39464,-66608,-63247
653329040125619486,-39430,-66487,-63310
653329040133054181,-39375,-66430,-63307
653329040140488876,-39380,-66424,-63300
653329040147923571,-39437,-66444,-63481
653329040155358266,-39445,-66506,-63369
653329040162792961,-39428,-66394,-63404
653329040170227656,-39412,-66475,-63404
653329040177662351,-39457,-66620,-63392
653329040185097046,-39496,-66515,-63461
653329040192531741,-39402,-66521,-63367
653329040199966436,-39351,-66433,-63444
653329040207401131,-39494,-66397,-63326
653329040214835826,-39520,-66402,-63532
653329040222270521,-39466,-66412,-63565
653329040229705216,-38693,-65068,-62229
653329040237078016,-38901,-65878,-62710
653329040244516352,-39181,-66202,-63097
653329040251954688,-39298,-66282,-63263
653329040259393024,-38049,-66387,-62093
653329040266831360,-38941,-66396,-62961
653329040274269696,-39202,-66419,-63305
653329040281708032,-39394,-66390,-63279
653329040289146368,-39470,-66381,-63245
653329040296584704,-39446,-66415,-63380
653329040304023040,-39374,-66369,-63376
653329040311461376,-39248,-66252,-63290
653329040318899712,-39388,-66347,-63343
653329040326338048,-39499,-66324,-63416
653329040333776384,-39465,-66319,-63354
653329040341214720,-39489,-66286,-63381
653329040348653056,-39400,-66163,-63309
653329040356091392,-39377,-66250,-63341
653329040363529728,-39307,-66219,-63319
653329040371029961,-39459,-65989,-63467
653329040378464656,-39325,-66083,-63185
653329040385899351,-39353,-66248,-63346
653329040393334046,-39304,-66325,-63352
653329040400768741,-39354,-66335,-63241
653329040408203436,-39115,-66363,-63091
653329040415638131,-39214,-66257,-63208
653329040423072826,-39323,-66262,-63298
653329040430507521,-39397,-66269,-63247
653329040437942216,-39458,-66391,-63260
653329040445376911,-39455,-66248,-63400
653329040452811606,-39397,-66183,-63384
653329040460246301,-39210,-66140,-63342
653329040467680996,-39301,-66322,-63248
653329040475115691,-39210,-66178,-63254
653329040482550386,-39237,-66135,-63180
653329040489985081,-39243,-66090,-63205
653329040497419776,-39246,-66111,-63230
653329040504854473,-39022,-65775,-63451
653329040512289168,-39081,-65868,-63236
653329040519723863,-39218,-65954,-63204
653329040527158558,-39139,-66052,-63250
653329040534593253,-39090,-66005,-63209
653329040542027948,-39232,-66039,-63063
653329040549462643,-38756,-64892,-61818
653329040556897338,-39044,-65452,-62628
653329040564332033,-39162,-65761,-62914
653329040571766728,-39193,-65951,-62955
653329040579201423,-37882,-65772,-61677
653329040586636118,-38607,-65923,-62556
653329040594070813,-38851,-65871,-62805
653329040601505508,-38933,-65937,-62858
653329040608940203,-38928,-65905,-62893
653329040616374898,-39078,-65993,-63006
653329040623809593,-39088,-65893,-62988
653329040631244288,-38998,-65950,-63035
653329040638678985,-38901,-65927,-62876
653329040646113680,-39002,-65976,-62955
653329040653548375,-38993,-65917,-63054
653329040660983070,-38982,-65696,-63071
653329040668417765,-39014,-65625,-63040
653329040675852460,-39056,-65736,-63056
653329040683287155,-39063,-65861,-62999
653329040690721850,-39047,-65778,-62893
653329040698156545,-39024,-65810,-62780
653329040705591240,-39002,-65773,-62929
653329040713025935,-39046,-65774,-62960
653329040720460630,-39017,-65697,-62896
653329040727895325,-38781,-65771,-62933
653329040735330020,-38992,-65809,-62922
653329040742764715,-39079,-65735,-63021
653329040750199410,-39029,-65793,-62982
653329040757634105,-39072,-65920,-63090
653329040765068800,-39138,-66075,-63188
653329040772441600,-39303,-66014,-63105
653329040779879936,-39304,-66027,-63095
653329040787318272,-39223,-66082,-63221
653329040794756608,-39319,-66026,-63302
653329040802194944,-39223,-66029,-63302
653329040809633280,-39379,-66109,-63390
653329040817071616,-39458,-66214,-63383
653329040824509952,-39426,-66283,-63447
653329040831948288,-39391,-66269,-63371
653329040839386624,-39446,-66196,-63446
653329040846824960,-39473,-66167,-63464
653329040854263296,-39590,-66158,-63521
653329040861701632,-39559,-66213,-63492
653329040869139968,-38602,-65088,-62285
653329040876578304,-39259,-65938,-63022
653329040884016640,-39575,-66139,-63516
653329040891454976,-39704,-66321,-63728
653329040898893312,-38576,-66514,-62430
653329040906455442,-39477,-66586,-63007
653329040913886496,-39718,-66594,-63579
653329040921317550,-39735,-66514,-63829
653329040928748604,-39908,-66506,-63923
653329040936179658,-39964,-66670,-63953
653329040943610712,-39929,-66515,-63956
653329040951041766,-39955,-66664,-63954
653329040958472820,-40092,-66795,-63978
653329040965903874,-40067,-66853,-64112
653329040973334928,-40060,-66790,-64146
653329040980765982,-40057,-66744,-64059
653329040988197036,-40070,-66496,-64107
653329040995628090,-40174,-66691,-64116
653329041003059144,-40223,-66685,-64138
653329041010490198,-40260,-66663,-64205
653329041017921252,-40015,-66513,-63994
653329041025352306,-40234,-66674,-64236
653329041032783360,-40236,-66737,-64384
653329041040090624,-40065,-66925,-64347
653329041047528960,-39985,-66778,-64230
653329041054967296,-40179,-66735,-64309
653329041062405632,-40281,-66666,-64224
653329041069843968,-40273,-66708,-64304
653329041077282304,-40284,-66713,-64307
653329041084720640,-40390,-66793,-64463
653329041092158976,-40342,-66775,-64340
653329041099597312,-40257,-66872,-64219
653329041107035648,-40363,-66958,-64269
653329041114473984,-40379,-66949,-64249
653329041121912320,-40336,-66983,-64282
653329041129350656,-40294,-66839,-64352
653329041136788992,-40339,-66823,-64480
653329041144227328,-40411,-66780,-64405
653329041151665664,-40358,-66916,-64243
6.53329E+17,-40381,-66179,-64255
653329041166542336,-40504,-66577,-64468
653329041173980672,-40540,-66785,-64210
653329041181419008,-40384,-66771,-64353
653329041188857344,-39132,-65577,-63190
653329041196295680,-39961,-66284,-63820
653329041203734016,-40172,-66577,-64168
653329041211172352,-40231,-66617,-64253
653329041218610688,-39113,-66766,-63564
653329041226049024,-39830,-66809,-64025
653329041233487360,-40142,-66771,-64245
653329041240925696,-40178,-66608,-64301
653329041248364032,-40289,-66661,-64355
653329041255802368,-40515,-66814,-64435
653329041263240704,-40532,-66705,-64437
653329041270679040,-40425,-66731,-64416
653329041278117376,-40364,-66834,-64213
653329041285555712,-40428,-66875,-64376
653329041292994048,-40530,-66746,-64486
653329041300432384,-40455,-66788,-64325
653329041307932617,-40707,-66617,-64540
653329041315367312,-40538,-66719,-64562
653329041322802007,-40422,-66717,-64468
653329041330236702,-40361,-66550,-64573
653329041337671397,-40257,-66524,-64320
653329041345106092,-40282,-66712,-64356
653329041352540787,-40300,-66542,-64345
653329041359975482,-40234,-66610,-64319
653329041367410177,-40138,-66771,-64528
653329041374844872,-40400,-66649,-64494
653329041382279567,-40358,-66741,-64439
653329041389714262,-40301,-66654,-64321
653329041397148957,-40308,-66606,-64383
653329041404583652,-40278,-66561,-64477
653329041412018347,-40300,-66654,-64446
653329041419453042,-40332,-66645,-64362
653329041426887737,-40363,-66617,-64377
653329041434322432,-40424,-66734,-64504
653329041441757129,-40052,-66925,-64452
653329041449191824,-40124,-66731,-64370
653329041456626519,-40245,-66658,-64367
653329041464061214,-40275,-66611,-64296
653329041471495909,-40148,-66503,-64339
653329041478930604,-40192,-65488,-64396
653329041486365299,-40194,-66103,-64431
653329041493799994,-40285,-66279,-64379
653329041501234689,-40173,-66401,-64289
653329041508669384,-38894,-65239,-63129
653329041516104079,-39595,-66020,-63800
653329041523538774,-40045,-66237,-64049
653329041530973469,-40037,-66321,-64182
653329041538408164,-38731,-66479,-63619
653329041545842859,-39537,-66546,-63941
653329041553277554,-39852,-66550,-64038
653329041560712249,-40001,-66335,-64144
653329041568146944,-39980,-66351,-64179
653329041575581641,-40259,-66074,-63973
653329041583016336,-40089,-66292,-63927
653329041590451031,-39951,-66186,-64004
653329041597885726,-39910,-66205,-64053
653329041605320421,-40005,-66214,-64074
653329041612755116,-39920,-66211,-64055
653329041620189811,-39809,-66063,-64029
653329041627624506,-39882,-66121,-63867
653329041635059201,-39914,-66135,-64004
653329041642493896,-39795,-66135,-63966
653329041649928591,-39771,-66099,-63975
653329041657363286,-39646,-66002,-63857
653329041664797981,-39804,-66203,-63819
653329041672232676,-39714,-66063,-63789
653329041679667371,-39865,-66007,-63882
653329041687102066,-39699,-66118,-63968
653329041694536761,-39950,-66185,-64090
653329041701971456,-39899,-66243,-63941
653329041709406153,-39626,-65993,-64126
653329041716840848,-39715,-66142,-64032
653329041724275543,-39947,-66241,-64016
653329041731710238,-39972,-66185,-63959
653329041739144933,-40020,-66283,-63930
653329041746579628,-39933,-66412,-64002
653329041754014323,-39852,-66419,-64052
653329041761449018,-40082,-66395,-64065
653329041768883713,-40078,-66433,-64035
653329041776318408,-40000,-66480,-64120
653329041783753103,-40116,-66639,-64265
653329041791187798,-40032,-66705,-64185
653329041798622493,-40108,-65564,-64234
653329041806057188,-40230,-66231,-64269
653329041813491883,-40305,-66502,-64292
653329041820926578,-40242,-66538,-64274
653329041828361273,-38898,-65515,-62983
653329041835795968,-39711,-66240,-63799
653329041843168768,-40046,-66548,-63922
653329041850607104,-40208,-66706,-64198
653329041858045440,-39067,-66662,-64405
653329041865483776,-39834,-66656,-64434
653329041872922112,-40125,-66719,-64414
653329041880360448,-40275,-66706,-64480
653329041887798784,-40356,-66725,-64536
653329041895237120,-40402,-66814,-64603
653329041902675456,-40520,-66930,-64544
653329041910113792,-40498,-66769,-64470
653329041917552128,-40621,-66865,-64483
653329041924990464,-40485,-66903,-64537
653329041932428800,-40514,-66866,-64576
653329041939867136,-40411,-66910,-64576
653329041947305472,-40409,-66734,-64401
653329041954743808,-40467,-66849,-64487
653329041962182144,-40494,-66906,-64526
653329041969620480,-40490,-66833,-64516
653329041977120713,-40456,-66569,-64473
653329041984555408,-40551,-66805,-64449
653329041991990103,-40419,-66920,-64576
653329041999424798,-40408,-66937,-64494
653329042006859493,-40296,-66805,-64553
653329042014294188,-40323,-66853,-64563
653329042021728883,-40619,-66846,-64603
653329042029163578,-40380,-66868,-64584
653329042036598273,-40447,-66966,-64700
653329042044032968,-40433,-66996,-64569
653329042051467663,-40485,-66861,-64586
653329042058902358,-40459,-66977,-64597
653329042066337053,-40554,-67038,-64640
653329042073771748,-40544,-66970,-64725
653329042081206443,-40502,-67017,-64538
653329042088641138,-40425,-67015,-64520
653329042096075833,-40504,-67026,-64561
653329042103510528,-40504,-67001,-64603
653329042110945225,-40443,-67101,-64797
653329042118379920,-40442,-65871,-64390
653329042125814615,-40504,-66448,-64589
653329042133249310,-40536,-66772,-64538
653329042140684005,-40521,-66974,-64499
653329042148118700,-39330,-65746,-63315
653329042155553395,-40042,-66395,-64077
653329042162988090,-40279,-66660,-64316
653329042170422785,-40260,-66775,-64444
653329042177857480,-39064,-66897,-64502
653329042185292175,-39731,-66954,-64530
653329042192726870,-40071,-66889,-64630
653329042200161565,-40153,-66791,-64597
653329042207596260,-40267,-66846,-64589
653329042215030955,-40266,-66867,-64561
653329042222465650,-40205,-66703,-64425
653329042229900345,-40322,-66809,-64525
653329042237335040,-40424,-66815,-64577
653329042244769737,-40387,-67055,-64265
653329042252204432,-40332,-66846,-64331
653329042259639127,-40318,-66868,-64414
653329042267073822,-40246,-66633,-64177
653329042274508517,-40240,-66807,-64309
653329042281943212,-40179,-66772,-64383
653329042289377907,-40144,-66724,-64333
653329042296812602,-40151,-66484,-64332
653329042304247297,-40155,-66609,-64475
653329042311681992,-40031,-66577,-64313
653329042319116687,-40048,-66560,-64290
653329042326551382,-39981,-66604,-64287
653329042333986077,-39982,-66611,-64237
653329042341420772,-39950,-66584,-64292
653329042348855467,-40025,-66703,-64303
653329042356290162,-40082,-66612,-64268
653329042363724857,-40126,-66533,-64246
653329042371159552,-39988,-66504,-64136
653329042378594249,-40086,-66773,-64425
653329042386028944,-40052,-66754,-64273
653329042393463639,-40052,-66561,-64279
653329042400898334,-39988,-66475,-64114
653329042408333029,-39983,-66491,-64042
653329042415767724,-40016,-66608,-64153
653329042423202419,-39890,-66603,-64048
653329042430637114,-39990,-66434,-64015
653329042438071809,-39939,-65218,-62846
653329042445506504,-39910,-65899,-63471
653329042452941199,-39733,-66198,-63786
653329042460375894,-39700,-66346,-63852
653329042467810589,-38422,-65230,-62665
653329042475245284,-39181,-65867,-63374
653329042482679979,-39494,-66006,-63688
653329042490114674,-39583,-66109,-63852
653329042497549369,-38306,-66197,-63990
653329042504984064,-39018,-66248,-63857
653329042512356864,-39248,-65944,-63738
653329042519795200,-39301,-66046,-63741
653329042527233536,-39566,-66262,-63770
653329042534671872,-39513,-66249,-63772
653329042542110208,-39474,-66133,-63847
653329042549548544,-39532,-66227,-63794
653329042556986880,-39582,-66156,-63845
653329042564425216,-39521,-66161,-63841
653329042571863552,-39406,-66086,-63751
653329042579301888,-39395,-66055,-63794
653329042586740224,-39396,-65858,-63563
653329042594178560,-39387,-66024,-63553
653329042601616896,-39452,-66139,-63655
653329042609055232,-39410,-66209,-63666
653329042616493568,-39471,-66098,-63539
653329042623931904,-39514,-66225,-63675
653329042631370240,-39471,-66197,-63670
653329042638808576,-39449,-66254,-63685
653329042646308809,-39914,-66438,-63578
653329042653743504,-39765,-66583,-63692
653329042661178199,-39700,-66512,-63779
653329042668612894,-39687,-66616,-63702
653329042676047589,-39775,-66550,-63854
653329042683482284,-39833,-66646,-63786
653329042690916979,-39744,-66553,-63867
653329042698351674,-39783,-66598,-63981
653329042705786369,-39753,-66727,-64021
653329042713221064,-39796,-66783,-64053
653329042720655759,-39745,-66773,-64019
653329042728090454,-39893,-66824,-64108
653329042735525149,-39937,-66758,-64179
653329042742959844,-40033,-66827,-64177
653329042750394539,-40140,-66763,-64257
653329042757829234,-39939,-65547,-62937
653329042765263929,-40034,-66415,-63673
653329042772698624,-40005,-66604,-64051
653329042780133321,-39720,-67082,-63954
653329042787568016,-38591,-65739,-62903
653329042795002711,-39445,-66437,-63810
653329042802437406,-39727,-66770,-64066
653329042809872101,-39899,-66848,-64279
653329042817306796,-39015,-67015,-64468
653329042824741491,-39644,-67003,-64332
653329042832176186,-39885,-66977,-64326
653329042839610881,-39977,-67100,-64387
653329042847045576,-40018,-67135,-64384
653329042854480271,-40214,-67133,-64482
653329042861914966,-40143,-67083,-64482
653329042869349661,-40182,-66966,-64334
653329042876784356,-40192,-67092,-64437
653329042884219051,-40177,-67092,-64486
653329042891653746,-40174,-67092,-64526
653329042899088441,-40219,-67100,-64564
653329042906523136,-40191,-66969,-64323
653329042913957833,-40470,-67028,-64172
653329042921392528,-40287,-67105,-64432
653329042928827223,-40217,-67047,-64513
653329042936261918,-40082,-67065,-64403
653329042943696613,-40106,-67082,-64455
653329042951131308,-40124,-67117,-64516
653329042958566003,-40311,-67170,-64638
653329042966000698,-40341,-67235,-64641
653329042973435393,-40266,-67357,-64581
653329042980870088,-40308,-67320,-64507
653329042988304783,-40294,-67311,-64554
653329042995739478,-40372,-67261,-64711
653329043003174173,-40362,-67274,-64731
653329043010608868,-40255,-67133,-64823
653329043018043563,-40385,-67193,-64684
653329043025478258,-40287,-67232,-64623
653329043032912953,-40226,-67250,-64654
653329043040347648,-40307,-67243,-64694
653329043047782345,-40475,-67497,-64381
653329043055217040,-40450,-67427,-64612
653329043062651735,-40307,-67343,-64648
653329043070086430,-40347,-67337,-64631
653329043077521125,-40352,-66021,-63431
653329043084955820,-40278,-66793,-64070
653329043092390515,-40282,-66976,-64398
653329043099825210,-40254,-67113,-64573
653329043107259905,-39077,-66051,-63535
653329043114694600,-39827,-66755,-64236
653329043122129295,-40148,-67065,-64525
653329043129563990,-40300,-67291,-64593
653329043136998685,-39848,-67401,-64638
653329043144433380,-40083,-67323,-64806
653329043151868075,-40293,-67425,-64588
653329043159302770,-40222,-67359,-64614
653329043166737465,-40278,-67322,-64714
653329043174172160,-40353,-67395,-64763
653329043181606857,-40153,-67288,-64938
653329043189041552,-40242,-67304,-64780
653329043196476247,-40416,-67405,-64768
653329043203910942,-40378,-67457,-64670
653329043211345637,-40265,-67376,-64627
653329043218780332,-40172,-67299,-64598
653329043226215027,-40139,-67118,-64402
653329043233649722,-40110,-67203,-64577
653329043241084417,-40070,-67197,-64466
653329043248519112,-40191,-67155,-64565
653329043255953807,-40109,-67212,-64521
653329043263388502,-40197,-67235,-64548
653329043270823197,-40096,-67263,-64584
653329043278257892,-40038,-67238,-64559
653329043285692587,-40143,-67113,-64477
653329043293127282,-40029,-67196,-64459
653329043300561977,-40084,-67144,-64579
653329043307996672,-40088,-67138,-64501
653329043315369472,-40040,-67208,-64564
653329043322807808,-40111,-67152,-64421
653329043330246144,-40020,-67156,-64456
653329043337684480,-40058,-67098,-64494
653329043345122816,-39903,-67206,-64559
653329043352561152,-39990,-67182,-64471
653329043359999488,-40053,-67071,-64469
653329043367437824,-39986,-67052,-64572
653329043374876160,-39946,-67150,-64578
653329043382314496,-40091,-67120,-64469
653329043389752832,-39954,-67018,-64373
653329043397191168,-39980,-65808,-63103
653329043404629504,-40118,-66506,-63954
653329043412067840,-40005,-66853,-64155
653329043419506176,-39964,-67078,-64288
653329043426944512,-38774,-66141,-63140
653329043434382848,-39488,-66677,-63892
653329043441821184,-39762,-66785,-64233
653329043449383314,-39867,-66586,-63898
653329043456814368,-39857,-66772,-64254
653329043464245422,-39870,-66910,-64417
653329043471676476,-39863,-66982,-64278
653329043479107530,-39840,-67009,-64419
653329043486538584,-39891,-67152,-64441
653329043493969638,-39856,-67016,-64455
653329043501400692,-39875,-67046,-64374
653329043508831746,-39989,-66929,-64454
653329043516262800,-39948,-66948,-64478
653329043523693854,-40019,-66965,-64523
653329043531124908,-39915,-67041,-64393
653329043538555962,-40002,-67018,-64438
653329043545987016,-39798,-67012,-64376
653329043553418070,-39902,-67132,-64391
653329043560849124,-39934,-67182,-64387
653329043568280178,-39982,-67185,-64511
653329043575711232,-39998,-67417,-64399
653329043583018496,-39810,-67446,-64325
653329043590456832,-40090,-67387,-64614
653329043597895168,-40305,-67548,-64590
653329043605333504,-40373,-67593,-64793
653329043612771840,-40413,-67623,-64783
653329043620210176,-40343,-67635,-64793
653329043627648512,-40499,-67593,-64893
653329043635086848,-40725,-67921,-64980
653329043642525184,-40749,-68005,-64984
653329043649963520,-40667,-67875,-65021
653329043657401856,-40739,-67984,-65126
653329043664840192,-40768,-68012,-65153
653329043672278528,-40826,-67971,-65274
653329043679716864,-40722,-68059,-65245
653329043687155200,-40824,-68117,-65269
653329043694593536,-40836,-68172,-65328
653329043702031872,-40874,-68103,-65350
653329043709470208,-41078,-68229,-65498
653329043716970441,-40840,-66821,-64372
653329043724405136,-40976,-67766,-65141
653329043731839831,-41104,-68082,-65352
653329043739274526,-41125,-68312,-65613
653329043746709221,-39888,-67613,-64455
653329043754143916,-40580,-68029,-65247
653329043761578611,-40995,-68321,-65570
653329043769013306,-41181,-68488,-65715
653329043776448001,-41400,-68596,-65855
653329043783882696,-41514,-68659,-65969
653329043791317391,-41477,-68697,-65988
653329043798752086,-41593,-68694,-65993
653329043806186781,-41645,-68801,-66156
653329043813621476,-41534,-68699,-66063
653329043821056171,-41537,-68702,-66126
653329043828490866,-41516,-68752,-66031
653329043835925561,-41537,-68805,-66048
653329043843360256,-41588,-68851,-66171
653329043850856850,-41478,-68978,-65919
653329043858287904,-41547,-68856,-65994
653329043865718958,-41405,-68711,-65981
653329043873150012,-41558,-68870,-66097
653329043880581066,-41528,-68795,-66134
653329043888012120,-41666,-69032,-66242
653329043895443174,-41565,-69061,-66106
653329043902874228,-41558,-68972,-66180
653329043910305282,-41808,-68910,-66230
653329043917736336,-41757,-68983,-66241
653329043925167390,-41796,-69085,-66250
653329043932598444,-41796,-69150,-66222
653329043940029498,-41792,-69181,-66185
653329043947460552,-41819,-69113,-66381
653329043954891606,-41843,-69126,-66401
653329043962322660,-41847,-69078,-66404
653329043969753714,-41886,-69026,-66414
653329043977184768,-41832,-69082,-66321
653329043984430152,-42039,-69281,-66181
653329043991872128,-42006,-69247,-66244
653329043999314104,-41831,-69152,-66368
653329044006756080,-41946,-69184,-66433
653329044014198056,-42115,-69304,-66403
653329044021640032,-41936,-69240,-66446
653329044029082008,-41960,-69181,-66444
653329044036523984,-41969,-68090,-65191
653329044043965960,-42122,-68694,-65957
653329044051407936,-42152,-68921,-66330
653329044058849912,-41859,-69125,-66423
653329044066291888,-40796,-68518,-65359
653329044073733864,-41409,-69022,-66071
653329044081175840,-41717,-69111,-66339
653329044088617816,-41944,-69163,-66419
653329044096059792,-42162,-69225,-66651
653329044103501768,-42110,-69290,-66693
653329044110943744,-41971,-69210,-66626
653329044118509513,-42002,-69270,-66810
653329044125944208,-42104,-69493,-66762
653329044133378903,-42119,-69461,-66570
653329044140813598,-42114,-69366,-66553
653329044148248293,-42010,-69357,-66581
653329044155682988,-41997,-69332,-66687
653329044163117683,-41949,-69305,-66674
653329044170552378,-41938,-69440,-66588
653329044177987073,-41902,-69440,-66487
653329044185421768,-41954,-69259,-66382
653329044192856463,-41957,-69212,-66526
653329044200291158,-42087,-69242,-66574
653329044207725853,-42031,-69286,-66520
653329044215160548,-41903,-69406,-66419
653329044222595243,-41853,-69296,-66483
653329044230029938,-41989,-69279,-66604
653329044237464633,-41925,-69355,-66602
653329044244899328,-41991,-69409,-66633
653329044252334025,-41630,-69459,-66879
653329044259768720,-41782,-69335,-66690
653329044267203415,-41925,-69345,-66655
653329044274638110,-41954,-69300,-66588
653329044282072805,-41886,-69221,-66550
653329044289507500,-41948,-69180,-66625
653329044296942195,-42025,-69284,-66671
653329044304376890,-42093,-69271,-66739
653329044311811585,-42098,-69152,-66718
653329044319246280,-41934,-69211,-66565
653329044326680975,-41881,-69211,-66530
653329044334115670,-41905,-69268,-66509
653329044341550365,-41800,-69162,-66549
