timestamp,red,green,ir
37747,169449,31521,228285
37756,169460,31531,228271
37766,169466,31517,228305
37777,169430,31534,228302
37787,169454,31540,228276
37796,169448,31532,228287
37806,169465,31522,228287
37816,169466,31523,228285
37827,169446,31534,228325
37836,169443,31534,228299
37846,169465,31528,228317
37856,169481,31529,228327
37867,169462,31532,228318
37876,169474,31527,228312
37886,169469,31534,228336
37896,169461,31518,228325
37907,169468,31518,228307
37916,169469,31532,228318
37926,169434,31528,228308
37936,169463,31528,228297
37947,169460,31523,228300
37957,169464,31516,228330
37966,169468,31509,228330
37976,169471,31535,228314
37986,169456,31518,228319
37996,169466,31531,228302
38006,169450,31534,228297
38016,169450,31527,228285
38026,169451,31533,228312
38037,169454,31516,228330
38046,169444,31516,228296
38056,169450,31526,228272
38066,169451,31526,228306
38076,169463,31525,228309
38086,169449,31514,228292
38096,169446,31526,228314
38106,169451,31540,228314
38116,169450,31512,228297
38125,169441,31520,228297
38136,169447,31513,228293
38146,169425,31522,228302
38156,169431,31525,228270
38166,169431,31510,228280
38176,169421,31508,228271
38186,169416,31518,228241
38196,169424,31508,228247
38206,169415,31517,228219
38215,169408,31525,228234
38226,169388,31509,228249
38236,169373,31524,228231
38246,169399,31509,228218
38255,169385,31517,228236
38266,169387,31515,228224
38276,169385,31523,228216
38286,169382,31524,228241
38295,169381,31520,228229
38306,169409,31517,228226
38316,169397,31527,228224
38326,169400,31503,228240
38336,169427,31516,228245
38345,169401,31515,228233
38356,169406,31513,228273
38366,169400,31510,228297
38375,169443,31510,228293
38386,169416,31519,228300
38396,169430,31515,228288
38406,169436,31512,228319
38416,169434,31519,228314
38425,169436,31509,228350
38435,169463,31520,228330
38446,169435,31510,228339
38456,169449,31519,228348
38465,169458,31497,228378
38476,169450,31512,228385
38486,169448,31500,228366
38496,169451,31504,228365
38506,169452,31508,228381
38516,169459,31512,228364
38526,169459,31500,228365
38536,169467,31514,228356
38545,169470,31502,228355
38555,169456,31513,228341
38565,169442,31504,228368
38576,169465,31497,228371
38585,169451,31499,228371
38596,169458,31489,228359
38605,169455,31501,228362
38616,169454,31485,228352
38625,169446,31502,228350
38635,169442,31518,228341
38646,169444,31501,228345
38656,169420,31506,228336
38666,169433,31500,228345
38675,169412,31501,228333
38685,169424,31505,228321
38695,169422,31502,228353
38706,169427,31512,228343
38715,169437,31479,228336
38725,169436,31506,228349
38735,169446,31503,228357
38745,169454,31492,228358
38754,169450,31508,228384
38765,169465,31500,228363
38775,169450,31502,228370
38785,169476,31515,228398
38794,169469,31488,228413
38805,169469,31483,228408
38815,169489,31509,228432
38825,169495,31481,228415
38835,169507,31496,228433
38845,169487,31504,228455
38855,169502,31490,228422
38866,169473,31498,228442
38875,169466,31489,228432
38885,169485,31493,228415
38895,169482,31493,228433
38905,169480,31472,228436
38916,169492,31481,228441
38925,169493,31489,228403
38935,169477,31490,228410
38946,169459,31494,228443
38956,169490,31474,228410
38965,169471,31482,228429
38975,169480,31487,228423
38985,169481,31480,228429
38995,169478,31493,228410
39005,169470,31484,228418
39015,169462,31481,228427
39025,169478,31478,228443
39035,169475,31463,228430
39045,169481,31475,228424
39055,169485,31477,228425
39065,169477,31477,228428
39075,169441,31480,228427
39084,169477,31476,228421
39095,169472,31471,228437
39105,169476,31473,228416
39116,169524,31474,228430
39125,169493,31477,228418
39135,169495,31481,228450
39145,169484,31482,228455
39155,169473,31483,228470
39165,169485,31495,228453
39174,169508,31478,228478
39185,169507,31467,228488
39195,169473,31474,228472
39205,169505,31477,228485
39214,169482,31480,228475
39225,169491,31488,228486
39235,169502,31465,228502
39245,169511,31471,228501
39254,169517,31472,228491
39264,169499,31464,228487
39274,169489,31466,228511
39285,169503,31449,228487
39294,169459,31466,228495
39304,169522,31462,228486
39314,169470,31466,228469
39325,169497,31463,228483
39334,169449,31464,228484
39344,169514,31463,228476
39354,169458,31466,228471
39365,169470,31467,228483
39375,169432,31473,228459
39384,169474,31464,228473
39395,169488,31477,228487
39405,169469,31470,228478
39416,169513,31471,228489
39424,169489,31475,228497
39435,169488,31453,228457
39445,169493,31463,228482
39455,169488,31466,228505
39464,169476,31471,228475
39474,169477,31458,228528
39485,169482,31472,228482
39495,169520,31453,228489
39504,169497,31443,228495
39515,169514,31457,228543
39524,169500,31450,228489
39535,169504,31439,228489
39544,169479,31449,228496
39555,169470,31429,228488
39565,169492,31447,228505
39575,169459,31452,228492
39584,169479,31452,228481
39594,169465,31450,228476
39604,169480,31450,228507
39615,169489,31444,228480
39625,169473,31454,228457
39635,169484,31448,228488
39644,169478,31448,228464
39655,169501,31445,228477
39665,169456,31449,228470
39675,169477,31451,228463
39684,169474,31441,228454
39695,169501,31438,228479
39705,169485,31433,228477
39714,169480,31426,228476
39724,169463,31432,228455
39735,169462,31433,228461
39745,169464,31439,228472
39754,169440,31425,228423
39764,169443,31431,228447
39774,169471,31442,228449
39785,169446,31436,228442
39794,169466,31429,228451
39804,169464,31425,228440
39814,169447,31435,228454
39825,169444,31424,228461
39834,169471,31430,228439
39844,169466,31412,228444
39854,169455,31425,228425
39865,169446,31419,228457
39875,169441,31429,228418
39884,169435,31433,228448
39894,169449,31433,228452
39905,169437,31430,228424
39915,169430,31425,228425
39924,169440,31426,228433
39934,169424,31419,228436
39945,169450,31413,228436
39955,169420,31420,228410
39964,169444,31429,228409
39974,169441,31392,228418
39984,169421,31415,228431
39994,169416,31420,228420
40003,169441,31407,228409
40014,169437,31390,228420
40024,169403,31419,228393
40035,169416,31402,228415
40044,169426,31411,228418
40054,169411,31407,228397
40064,169418,31413,228409
40074,169423,31410,228375
40084,169386,31430,228399
40094,169411,31418,228409
40104,169417,31415,228422
40114,169377,31423,228406
40125,169409,31410,228388
40134,169398,31414,228402
40144,169420,31420,228395
40154,169392,31421,228393
40165,169408,31413,228402
40174,169417,31410,228396
40184,169394,31405,228404
40194,169412,31412,228399
40204,169399,31406,228398
40214,169409,31409,228389
40224,169405,31409,228414
40234,169412,31403,228423
40245,169428,31389,228447
40254,169448,31408,228433
40264,169438,31391,228460
40274,169431,31391,228467
40284,169434,31397,228484
40294,169441,31382,228474
40303,169462,31395,228486
40314,169450,31375,228482
40324,169438,31397,228429
40334,169420,31394,228475
40344,169435,31384,228464
40354,169406,31384,228437
40364,169408,31392,228451
40374,169416,31384,228447
40384,169409,31394,228457
40394,169383,31382,228455
40404,169387,31372,228396
40414,169379,31393,228372
40423,169375,31390,228418
40433,169393,31401,228405
40444,169372,31385,228387
40454,169375,31373,228406
40463,169375,31372,228359
40474,169369,31366,228382
40484,169360,31377,228363
40494,169357,31389,228371
40503,169356,31393,228351
40513,169363,31357,228362
40524,169352,31389,228334
40534,169370,31371,228311
40543,169353,31377,228336
40562,169350,31372,228322
40565,169347,31371,228337
40574,169351,31347,228314
40583,169341,31395,228318
40593,169347,31373,228328
40603,169345,31383,228330
40614,169332,31374,228335
40624,169347,31376,228317
40642,169311,31384,228308
40645,169339,31371,228324
40654,169324,31372,228304
40664,169311,31375,228319
40673,169327,31361,228317
40683,169334,31372,228291
40693,169326,31363,228317
40704,169333,31376,228309
40713,169331,31384,228321
40723,169330,31357,228305
40733,169331,31383,228342
40744,169335,31382,228314
40753,169329,31385,228318
40763,169336,31364,228329
40774,169325,31371,228310
40784,169333,31371,228319
40793,169341,31382,228305
40803,169326,31376,228333
40813,169331,31380,228332
40824,169318,31385,228331
40833,169335,31377,228350
40843,169333,31376,228325
40854,169343,31358,228302
40863,169319,31376,228313
40874,169331,31358,228318
40883,169323,31378,228336
40894,169327,31351,228319
40904,169323,31376,228327
40914,169312,31376,228333
40923,169333,31354,228333
40933,169319,31377,228265
40943,169336,31376,228330
40954,169343,31356,228321
40962,169324,31378,228311
40973,169327,31373,228326
40984,169327,31366,228328
40994,169335,31361,228332
41003,169303,31367,228330
41013,169336,31382,228339
41023,169328,31373,228317
41033,169329,31374,228337
41043,169330,31399,228331
41053,169324,31368,228339
41063,169324,31367,228323
41073,169339,31406,228349
41083,169325,31356,228340
41093,169335,31368,228362
41103,169320,31363,228340
41114,169323,31362,228325
41124,169320,31361,228294
41133,169322,31359,228340
41143,169294,31370,228339
41153,169323,31368,228346
41164,169336,31365,228327
41173,169316,31374,228347
41183,169318,31381,228324
41193,169323,31364,228305
41204,169324,31370,228335
41213,169328,31350,228320
41223,169330,31366,228331
41243,169312,31373,228321
41245,169313,31354,228335
41252,169318,31352,228336
41263,169314,31361,228320
41273,169320,31373,228309
41283,169303,31368,228328
41293,169321,31366,228347
41303,169315,31364,228316
41313,169319,31370,228332
41324,169302,31374,228314
41333,169301,31361,228294
41343,169292,31361,228313
41353,169316,31364,228309
41364,169283,31368,228307
41374,169300,31365,228314
41383,169276,31366,228330
41393,169310,31357,228303
41403,169263,31364,228319
41413,169300,31341,228301
41423,169318,31360,228299
41433,169274,31385,228331
41443,169306,31348,228283
41453,169285,31378,228326
41462,169294,31356,228305
41472,169292,31359,228308
41483,169289,31352,228292
41493,169285,31356,228314
41502,169292,31352,228302
41512,169279,31333,228304
41522,169300,31360,228284
41533,169306,31349,228281
41542,169274,31362,228286
41553,169274,31336,228289
41563,169276,31346,228273
41573,169276,31365,228302
41583,169288,31367,228281
41592,169285,31357,228293
41603,169283,31361,228277
41613,169274,31345,228308
41623,169275,31355,228283
41633,169251,31364,228300
41643,169287,31355,228290
41653,169291,31353,228284
41663,169263,31364,228285
41672,169273,31353,228298
41683,169272,31361,228290
41693,169283,31362,228320
41703,169270,31357,228269
41712,169258,31346,228267
41723,169277,31335,228295
41733,169280,31329,228257
41743,169274,31342,228266
41752,169258,31341,228292
41762,169280,31353,228285
41772,169250,31348,228304
41783,169258,31351,228295
41792,169268,31340,228277
41802,169282,31326,228298
41813,169278,31353,228274
41823,169288,31339,228271
41833,169258,31337,228286
41843,169266,31333,228303
41853,169267,31333,228291
41863,169255,31336,228296
41873,169268,31333,228287
41882,169242,31347,228281
41892,169271,31343,228299
41903,169269,31345,228282
41913,169268,31356,228291
41922,169263,31349,228297
41932,169276,31331,228287
41942,169279,31337,228281
41953,169267,31333,228263
41962,169269,31345,228276
41972,169259,31341,228302
41983,169275,31347,228305
41993,169268,31334,228296
42001,169270,31345,228297
42012,169271,31360,228313
42023,169261,31342,228278
42033,169266,31332,228307
42042,169272,31340,228298
42052,169281,31339,228311
42062,169272,31343,228307
42072,169277,31334,228319
42083,169280,31341,228298
42092,169262,31347,228292
42102,169284,31336,228307
42112,169256,31338,228324
42123,169260,31347,228327
42132,169264,31356,228323
42142,169282,31337,228314
42152,169271,31345,228332
42162,169283,31314,228332
42172,169269,31338,228324
42183,169274,31338,228300
42193,169268,31344,228325
42203,169278,31342,228323
42212,169275,31331,228321
42222,169284,31349,228323
42232,169260,31342,228320
42243,169285,31326,228330
42252,169283,31339,228315
42262,169275,31325,228322
42272,169268,31352,228300
42282,169277,31328,228329
42291,169279,31340,228304
42301,169271,31355,228325
42312,169250,31341,228320
42323,169272,31338,228317
42333,169241,31341,228314
42342,169286,31333,228329
42352,169258,31335,228319
42362,169263,31347,228326
42372,169274,31343,228311
42382,169267,31336,228331
42392,169275,31325,228317
42402,169274,31342,228328
42412,169278,31333,228338
42421,169284,31344,228326
42431,169292,31318,228339
42442,169281,31343,228361
42453,169282,31336,228342
42462,169283,31344,228317
42472,169258,31349,228330
42482,169276,31349,228340
42492,169277,31335,228334
42501,169276,31344,228337
42511,169266,31337,228338
42522,169280,31345,228363
42533,169293,31346,228343
42542,169293,31340,228332
42552,169298,31358,228353
42562,169274,31347,228316
42572,169262,31349,228341
42582,169276,31329,228339
42591,169279,31359,228322
42602,169282,31352,228329
42612,169288,31361,228352
42622,169283,31348,228346
42631,169247,31340,228365
42641,169268,31341,228359
42651,169281,31333,228363
42663,169284,31331,228332
42671,169280,31339,228345
42682,169282,31328,228359
42692,169287,31350,228363
42702,169281,31354,228350
42711,169290,31364,228360
42722,169294,31342,228341
42731,169292,31352,228369
42742,169286,31353,228363
42751,169297,31331,228361
42762,169272,31346,228353
42771,169292,31354,228352
42783,169286,31341,228358
42791,169278,31353,228322
42801,169270,31356,228360
42812,169286,31354,228375
42822,169284,31350,228387
42832,169292,31329,228353
42841,169284,31334,228360
42851,169269,31351,228363
42861,169277,31343,228389
42871,169286,31342,228377
42882,169296,31330,228369
42892,169285,31356,228351
42902,169291,31352,228388
42912,169307,31332,228382
42921,169301,31348,228371
42931,169284,31332,228377
42942,169272,31343,228380
42952,169286,31355,228380
42961,169294,31370,228389
42971,169294,31341,228376
42981,169290,31357,228378
42992,169283,31333,228382
43002,169282,31360,228381
43012,169298,31347,228394
43022,169296,31347,228374
43032,169297,31355,228392
43041,169289,31345,228373
43051,169264,31351,228393
43062,169293,31345,228386
43072,169292,31339,228403
43082,169289,31354,228375
43091,169288,31354,228412
43101,169276,31351,228379
43111,169296,31350,228394
43122,169292,31342,228389
43131,169298,31353,228397
43141,169300,31351,228394
43151,169297,31339,228392
43162,169289,31331,228385
43171,169292,31345,228393
43181,169292,31350,228404
43191,169294,31350,228393
43201,169267,31350,228387
43210,169293,31360,228385
43222,169280,31354,228396
43231,169301,31367,228400
43242,169292,31353,228402
43251,169296,31351,228397
43261,169285,31366,228412
43271,169296,31357,228395
43281,169296,31369,228394
43291,169299,31351,228403
43301,169309,31358,228391
43311,169311,31365,228411
43321,169291,31339,228401
43331,169309,31349,228425
43341,169298,31327,228397
43351,169304,31368,228394
43361,169293,31348,228395
43372,169297,31362,228398
43381,169288,31353,228414
43391,169292,31356,228376
43401,169286,31367,228388
43411,169293,31344,228428
43420,169305,31365,228394
43431,169287,31364,228410
43441,169294,31376,228398
43451,169272,31353,228391
43460,169290,31364,228383
43470,169300,31363,228392
43481,169288,31360,228398
43491,169296,31350,228401
43501,169299,31353,228403
43511,169276,31362,228391
43521,169274,31363,228406
43531,169296,31366,228397
43541,169295,31371,228394
43550,169290,31355,228414
43561,169280,31339,228396
43571,169298,31358,228384
43581,169299,31357,228408
43590,169290,31368,228386
43601,169267,31362,228401
43611,169302,31371,228376
43623,169266,31361,228393
43630,169303,31353,228418
43640,169298,31354,228403
43650,169307,31355,228405
43662,169304,31362,228393
43671,169288,31371,228381
43683,169293,31355,228388
43691,169295,31374,228400
43701,169293,31351,228412
43710,169291,31355,228403
43721,169283,31354,228407
43731,169294,31369,228387
43741,169276,31363,228406
43750,169285,31363,228399
43760,169281,31369,228396
43770,169299,31352,228413
43781,169280,31353,228412
43791,169295,31364,228410
43800,169307,31346,228427
43810,169293,31362,228419
43820,169302,31364,228423
43831,169283,31366,228420
43840,169285,31380,228422
43850,169307,31357,228425
43861,169303,31355,228414
43871,169281,31369,228429
43880,169279,31368,228405
43890,169280,31367,228422
43901,169308,31345,228429
43911,169298,31363,228430
43920,169300,31349,228416
43930,169297,31367,228435
43940,169291,31349,228442
43950,169264,31368,228422
43960,169285,31359,228424
43970,169283,31371,228416
43981,169284,31368,228442
43991,169290,31364,228435
44000,169297,31368,228410
44010,169286,31342,228425
44020,169270,31364,228415
44030,169280,31362,228435
44040,169298,31363,228451
44050,169280,31354,228430
44061,169304,31350,228424
44071,169290,31369,228423
44081,169291,31357,228439
44090,169289,31359,228422
44100,169302,31365,228434
44110,169291,31370,228435
44120,169285,31368,228446
44130,169295,31353,228431
44141,169293,31368,228418
44164,169307,31362,228441
44170,169300,31355,228447
44180,169291,31370,228447
44190,169292,31363,228441
44200,169280,31352,228437
44210,169282,31363,228435
44220,169290,31372,228439
44230,169294,31360,228456
44241,169293,31360,228453
44250,169294,31354,228431
44260,169291,31351,228428
44270,169288,31356,228438
44280,169313,31350,228447
44291,169297,31366,228461
44300,169304,31370,228453
44310,169299,31361,228459
44320,169294,31362,228455
44330,169300,31356,228461
44339,169315,31362,228483
44350,169301,31333,228453
44360,169305,31368,228475
44370,169307,31338,228476
44379,169288,31351,228463
44390,169286,31357,228472
44400,169302,31373,228461
44410,169289,31357,228445
44420,169288,31359,228459
44430,169294,31364,228459
44440,169293,31369,228459
44451,169291,31363,228437
44460,169276,31375,228459
44470,169294,31345,228448
44480,169276,31342,228425
44490,169278,31360,228447
44500,169289,31353,228438
44509,169273,31357,228446
44519,169271,31361,228439
44530,169276,31350,228423
44540,169278,31352,228437
44549,169277,31340,228434
44560,169275,31352,228426
44570,169269,31357,228400
44580,169263,31360,228446
44589,169276,31351,228438
44600,169255,31355,228428
44610,169270,31359,228417
44624,169276,31371,228430
44629,169272,31357,228449
44640,169286,31359,228442
44649,169262,31339,228431
44660,169283,31357,228429
44669,169289,31362,228456
44679,169256,31357,228448
44690,169272,31352,228455
44700,169261,31356,228439
44709,169266,31367,228447
44719,169259,31352,228438
44730,169276,31366,228435
44740,169256,31365,228461
44750,169263,31378,228455
44759,169258,31351,228454
44770,169262,31343,228435
44780,169275,31352,228465
44790,169281,31356,228462
44799,169279,31367,228435
44810,169293,31349,228453
44820,169271,31371,228455
44830,169278,31352,228453
44839,169288,31360,228420
44850,169285,31350,228447
44860,169269,31361,228448
44870,169276,31342,228443
44879,169270,31354,228449
44890,169264,31357,228443
44900,169256,31343,228415
44910,169258,31354,228461
44919,169266,31342,228428
44929,169252,31358,228445
44940,169242,31363,228458
44950,169256,31343,228452
44959,169252,31354,228442
44969,169260,31354,228427
44979,169273,31348,228445
44990,169253,31366,228442
45000,169259,31357,228438
45009,169266,31363,228457
45019,169271,31332,228444
45030,169261,31360,228434
45040,169242,31359,228450
45049,169253,31349,228443
45059,169257,31350,228437
45069,169257,31355,228424
45083,169259,31364,228414
45089,169255,31362,228437
45099,169252,31343,228426
45110,169267,31348,228424
45120,169252,31352,228413
45129,169252,31339,228435
45139,169230,31357,228423
45150,169260,31354,228440
45160,169243,31346,228422
45169,169258,31351,228433
45179,169254,31347,228429
45189,169242,31357,228405
45199,169215,31364,228426
45223,169244,31354,228426
45230,169245,31353,228420
45240,169244,31345,228411
45250,169250,31354,228439
45259,169236,31356,228429
45269,169239,31346,228418
45279,169238,31340,228410
45290,169219,31346,228401
45299,169247,31348,228426
45309,169234,31346,228405
45319,169243,31346,228436
45329,169242,31353,228404
45339,169215,31364,228419
45349,169245,31357,228423
45359,169251,31348,228393
45369,169223,31351,228420
45379,169227,31340,228415
45389,169237,31346,228412
45399,169228,31354,228414
45410,169232,31349,228430
45422,169238,31357,228408
45429,169237,31349,228422
45439,169224,31364,228425
45449,169230,31350,228427
45459,169233,31352,228434
45468,169238,31340,228399
45479,169238,31327,228416
45489,169230,31347,228400
45500,169220,31365,228425
45508,169232,31351,228435
45519,169252,31337,228410
45529,169220,31345,228405
45540,169214,31328,228424
45548,169244,31344,228411
45559,169226,31358,228409
45569,169239,31344,228391
45580,169234,31321,228400
45589,169218,31352,228395
45599,169199,31346,228389
45609,169229,31348,228399
45619,169206,31327,228422
45629,169212,31333,228404
45639,169210,31341,228383
45649,169211,31363,228407
45659,169216,31345,228400
45668,169216,31342,228417
45679,169221,31333,228406
45689,169209,31345,228411
45699,169211,31354,228414
45709,169208,31339,228409
45719,169203,31355,228423
45729,169205,31336,228412
45739,169205,31360,228432
45749,169208,31342,228413
45758,169208,31351,228428
45769,169214,31341,228423
45779,169224,31328,228416
45789,169220,31321,228412
45799,169205,31340,228405
45809,169226,31351,228397
45819,169218,31351,228433
45829,169224,31342,228405
45839,169194,31345,228427
45849,169220,31356,228405
45859,169219,31347,228414
45869,169227,31334,228419
45878,169212,31336,228443
45888,169219,31321,228424
45903,169240,31344,228416
45923,169214,31338,228445
45928,169229,31341,228440
45938,169215,31337,228429
45949,169223,31337,228438
45959,169210,31335,228435
45969,169213,31340,228409
45979,169219,31334,228404
45989,169209,31338,228431
45999,169218,31338,228428
46008,169202,31335,228433
46019,169204,31336,228406
46028,169199,31336,228432
46039,169218,31340,228408
46048,169215,31328,228415
46059,169223,31347,228412
46069,169207,31346,228399
46079,169173,31333,228408
46088,169214,31345,228402
46098,169206,31347,228416
46109,169205,31332,228402
46119,169213,31338,228414
46128,169208,31355,228402
46138,169201,31335,228392
46148,169192,31343,228420
46158,169192,31335,228417
46168,169215,31336,228421
46179,169200,31337,228411
46189,169207,31346,228416
46199,169198,31328,228409
46208,169203,31343,228411
46218,169216,31355,228410
46228,169187,31354,228410
46238,169189,31336,228424
46249,169206,31341,228390
46258,169207,31332,228419
46268,169215,31340,228430
46279,169192,31334,228435
46289,169217,31344,228436
46298,169217,31348,228408
46308,169195,31329,228432
46318,169210,31347,228423
46329,169208,31321,228428
46338,169201,31339,228417
46348,169216,31332,228427
46358,169222,31339,228433
46368,169208,31327,228430
46377,169216,31331,228413
46388,169185,31341,228414
46398,169200,31339,228411
46408,169203,31341,228431
46417,169212,31338,228418
46428,169189,31340,228449
46438,169201,31323,228445
46449,169205,31334,228394
46458,169209,31336,228421
46468,169206,31337,228434
46478,169213,31340,228438
46488,169217,31330,228426
46498,169206,31333,228445
46508,169191,31343,228433
46518,169213,31333,228440
46528,169222,31330,228438
46538,169211,31329,228433
46548,169210,31315,228438
46558,169195,31338,228436
46568,169202,31337,228427
46578,169204,31315,228440
46588,169215,31330,228422
46598,169204,31317,228447
46608,169211,31322,228430
46618,169211,31332,228454
46627,169229,31327,228438
46638,169207,31331,228433
46648,169225,31334,228435
46659,169209,31327,228461
46667,169211,31331,228432
46678,169194,31330,228462
46688,169217,31328,228449
46699,169210,31315,228455
46708,169212,31330,228401
46718,169202,31337,228429
46728,169197,31324,228450
46738,169208,31334,228456
46749,169216,31322,228449
46758,169215,31331,228469
46768,169198,31314,228439
46778,169201,31334,228454
46789,169203,31315,228442
46798,169199,31330,228464
46808,169227,31310,228448
46818,169203,31327,228437
46828,169204,31327,228432
46838,169211,31324,228452
46848,169210,31335,228440
46858,169207,31330,228427
46868,169192,31322,228456
46877,169205,31324,228430
46888,169187,31335,228434
46898,169209,31327,228438
46908,169171,31342,228443
46917,169188,31323,228444
46928,169180,31324,228446
46938,169198,31333,228438
46948,169188,31319,228433
46958,169187,31333,228441
46968,169192,31314,228446
46978,169195,31320,228441
46988,169195,31330,228442
46998,169191,31330,228441
47007,169191,31338,228436
47017,169190,31337,228442
47028,169195,31327,228439
47038,169185,31315,228425
47047,169186,31336,228431
47057,169200,31314,228435
47068,169176,31334,228420
47078,169201,31309,228411
47087,169179,31335,228421
47097,169184,31323,228403
47108,169172,31323,228424
47118,169182,31319,228432
47127,169189,31323,228428
47137,169173,31318,228434
47148,169181,31323,228419
47158,169180,31328,228419
47167,169184,31311,228405
47177,169184,31330,228423
47188,169197,31328,228420
47198,169160,31323,228420
47208,169174,31314,228403
47217,169178,31324,228426
47227,169175,31326,228427
47238,169181,31323,228425
47248,169186,31312,228423
47257,169166,31315,228428
47267,169164,31312,228409
47277,169154,31332,228436
47288,169180,31323,228424
47297,169179,31305,228415
47307,169158,31321,228421
47317,169175,31320,228414
47328,169186,31321,228402
47337,169158,31314,228414
47347,169153,31318,228417
47357,169163,31338,228399
47367,169152,31315,228405
47377,169148,31322,228430
47387,169173,31310,228408
47398,169168,31319,228415
47407,169173,31311,228383
47417,169166,31300,228421
47427,169166,31320,228421
47437,169166,31330,228401
47448,169161,31314,228412
47458,169177,31322,228403
47467,169155,31325,228412
47477,169170,31315,228409
47488,169156,31305,228418
47498,169165,31316,228406
47507,169158,31319,228429
47517,169167,31300,228415
47527,169163,31313,228388
47537,169169,31300,228394
47547,169162,31326,228409
47557,169176,31301,228420
47567,169155,31320,228400
47577,169161,31319,228411
47587,169165,31320,228412
47597,169171,31305,228425
47607,169158,31300,228435
47618,169169,31300,228443
47627,169156,31316,228405
47637,169164,31311,228407
47647,169144,31307,228429
47657,169163,31308,228439
47667,169171,31313,228435
47677,169166,31313,228457
47687,169186,31301,228440
47697,169169,31309,228438
47708,169180,31312,228428
47717,169162,31313,228443
47727,169173,31308,228433
47737,169179,31307,228453
47747,169149,31297,228446
47756,169166,31305,228425
47767,169175,31301,228436
47777,169156,31307,228454
47787,169173,31295,228445
47797,169156,31304,228437
47806,169151,31308,228452
47817,169149,31305,228435
47828,169186,31301,228446
47837,169169,31302,228442
47847,169174,31296,228457
47857,169170,31311,228451
47867,169160,31308,228477
47876,169172,31305,228444
47887,169163,31281,228445
47897,169166,31311,228437
47907,169161,31314,228448
47916,169171,31287,228436
47926,169161,31295,228445
47937,169150,31291,228430
47946,169161,31299,228444
47957,169148,31296,228428
47966,169174,31303,228433
47977,169158,31297,228421
47986,169161,31314,228431
47997,169160,31287,228442
48007,169143,31311,228413
48017,169153,31298,228403
48027,169137,31297,228426
48037,169135,31296,228426
48047,169142,31282,228441
48057,169151,31298,228410
48067,169149,31288,228421
48077,169134,31297,228421
48086,169146,31291,228396
48096,169139,31300,228403
48107,169148,31297,228413
48117,169129,31301,228412
48126,169160,31301,228402
48136,169113,31297,228413
48147,169160,31293,228409
48157,169133,31289,228406
48166,169138,31287,228404
48176,169145,31289,228416
48186,169140,31294,228427
48196,169135,31298,228407
48207,169141,31276,228401
48216,169129,31279,228405
48227,169127,31266,228405
48237,169137,31272,228399
48247,169111,31284,228409
48256,169135,31285,228391
48267,169124,31272,228421
48277,169132,31279,228411
48287,169123,31280,228384
48296,169121,31273,228403
48306,169112,31278,228393
48317,169114,31288,228381
48327,169113,31272,228376
48342,169121,31279,228387
48346,169123,31269,228386
48357,169088,31272,228389
48367,169116,31272,228392
48376,169119,31285,228391
48386,169119,31271,228393
48396,169104,31278,228383
48406,169108,31275,228393
48416,169128,31253,228382
48426,169113,31270,228373
48437,169120,31263,228365
48447,169109,31265,228391
48457,169111,31261,228366
48466,169073,31280,228384
48476,169100,31273,228375
48486,169118,31282,228360
48496,169119,31279,228372
48506,169081,31278,228384
48516,169127,31271,228379
48526,169095,31259,228367
48536,169100,31259,228382
48546,169106,31269,228356
48556,169098,31276,228369
48566,169100,31278,228361
48576,169093,31265,228390
48586,169108,31253,228371
48596,169105,31276,228390
48606,169102,31251,228394
48616,169088,31261,228385
48625,169104,31259,228387
48636,169073,31266,228394
48646,169105,31264,228365
48656,169096,31269,228382
48666,169103,31249,228393
48676,169115,31261,228387
48686,169093,31266,228355
48697,169095,31246,228382
48707,169089,31250,228354
48716,169085,31257,228369
48726,169084,31252,228387
48736,169090,31248,228378
48746,169087,31255,228390
48755,169088,31263,228392
48766,169085,31248,228395
48776,169082,31258,228385
48787,169081,31246,228376
48796,169081,31250,228358
48806,169099,31245,228377
48816,169071,31267,228370
48826,169086,31250,228374
48835,169089,31253,228396
48846,169072,31248,228385
48856,169080,31268,228373
48866,169079,31268,228381
48875,169091,31252,228359
48885,169063,31242,228359
48896,169096,31250,228381
48906,169073,31250,228375
48916,169092,31230,228348
48925,169076,31238,228341
48936,169085,31256,228347
48946,169073,31250,228350
48957,169076,31234,228350
48965,169074,31245,228306
48976,169054,31242,228355
48986,169076,31245,228311
48996,169066,31233,228327
49006,169060,31246,228318
49016,169059,31255,228345
49026,169069,31237,228343
49036,169029,31243,228334
49045,169066,31251,228334
49055,169053,31245,228335
49066,169049,31239,228324
49076,169059,31246,228329
49085,169057,31246,228336
49095,169049,31243,228326
49106,169051,31245,228339
49116,169057,31235,228326
49125,169064,31222,228318
49135,169038,31244,228343
49146,169064,31224,228312
49156,169046,31232,228303
49166,169035,31237,228345
49175,169053,31238,228328
49186,169032,31223,228307
49196,169045,31236,228317
49206,169047,31249,228334
49215,169046,31244,228311
49226,169053,31248,228311
49236,169041,31236,228337
49246,169047,31236,228328
49255,169048,31242,228298
49266,169026,31247,228309
49276,169040,31235,228324
49286,169052,31224,228320
49295,169042,31249,228303
49305,169026,31250,228309
49316,169032,31235,228319
49326,169034,31234,228294
49335,169042,31223,228316
49346,169051,31217,228303
49356,169057,31226,228314
49366,169019,31243,228313
49375,169046,31240,228306
49385,169053,31230,228293
49395,169037,31221,228313
49406,169034,31225,228325
49416,169033,31228,228309
49425,169026,31227,228297
49435,169042,31211,228311
49446,169029,31223,228308
49456,169037,31223,228307
49465,169036,31229,228291
49475,169037,31197,228324
49486,169024,31245,228300
49496,169034,31221,228314
49505,169043,31220,228290
49515,169027,31224,228306
49526,169044,31230,228318
49536,169032,31222,228307
49545,169052,31221,228289
49555,169024,31233,228298
49565,169028,31212,228333
49576,169022,31207,228327
49585,169037,31213,228290
49595,169061,31222,228314
49605,169030,31218,228333
49616,169046,31226,228306
49625,169035,31224,228325
49635,169048,31229,228348
49645,169032,31201,228324
49655,169009,31227,228321
49666,169031,31197,228321
49675,169010,31224,228319
49685,169018,31209,228302
49695,169038,31223,228320
49705,169028,31216,228323
49714,169023,31212,228337
49725,169030,31233,228321
49736,169038,31216,228360
49746,169032,31212,228328
49755,169065,31219,228328
49765,169018,31221,228315
49775,169049,31210,228317
49785,169036,31206,228303
49794,169040,31229,228344
49824,169037,31215,228340
49826,169055,31218,228346
49835,169025,31217,228346
49845,169040,31212,228328
49855,169035,31221,228329
49865,169028,31224,228327
49875,169054,31212,228319
49885,169045,31211,228336
49895,169033,31215,228329
49905,169034,31219,228344
49915,169024,31209,228326
49924,169041,31216,228339
49934,169052,31209,228326
49945,169047,31199,228327
49956,169042,31191,228329
49964,169044,31211,228304
49975,169061,31198,228341
49985,169040,31206,228322
49995,169035,31217,228325
50005,169043,31200,228339
50015,169048,31197,228330
50025,169028,31210,228320
50035,169031,31207,228331
50044,169057,31201,228344
50055,169061,31208,228333
50065,169041,31208,228343
50075,169049,31207,228343
50084,169046,31212,228337
50095,169032,31182,228350
50105,169057,31197,228329
50115,169031,31195,228325
50125,169021,31188,228344
50134,169052,31202,228350
50145,169032,31186,228356
50155,169040,31187,228334
50165,169034,31199,228335
50174,168984,31204,228355
50185,169038,31181,228333
50195,169045,31198,228327
50205,169029,31202,228332
50215,169008,31201,228329
50225,169025,31214,228348
50235,169011,31189,228297
50245,169027,31194,228329
50254,169023,31204,228334
50265,169022,31199,228302
50275,169033,31195,228335
50285,169008,31192,228330
50294,168994,31192,228327
50304,169022,31186,228341
50315,169029,31190,228321
50324,169002,31189,228315
50334,168983,31190,228318
50345,169011,31193,228348
50355,168992,31184,228309
50365,168984,31191,228345
50375,169009,31183,228336
50384,169003,31186,228317
50394,168982,31169,228316
50404,168993,31180,228320
50414,168999,31197,228340
50425,169011,31170,228331
50435,169004,31195,228335
50445,168999,31191,228336
50455,168996,31185,228329
50464,168994,31192,228340
50474,169026,31194,228313
50485,169007,31184,228331
50495,168998,31197,228328
50504,168999,31187,228320
50514,168969,31192,228338
50525,168990,31189,228340
50535,168998,31182,228341
50544,168993,31180,228333
50554,168976,31189,228321
50565,168990,31182,228312
50575,169001,31181,228327
50584,168997,31179,228318
50594,168990,31182,228317
50604,169005,31179,228346
50614,168978,31179,228309
50625,168976,31181,228334
50634,168996,31185,228342
50644,169011,31166,228338
50654,169004,31187,228339
50664,169007,31171,228328
50673,168995,31191,228345
50684,168982,31173,228318
50694,169006,31172,228326
50705,168992,31191,228345
50714,168985,31185,228322
50724,168988,31171,228335
50734,168999,31167,228330
50744,168988,31184,228336
50753,168965,31184,228335
50764,168978,31182,228329
50774,169000,31185,228303
50784,168974,31182,228337
50793,169006,31191,228324
50804,168997,31184,228342
50814,169004,31180,228289
50824,168982,31174,228353
50834,168993,31166,228350
50844,169001,31179,228316
50854,169002,31181,228367
50864,168989,31164,228340
50874,168991,31164,228314
50884,168990,31175,228308
50894,168987,31179,228330
50904,168975,31189,228340
50922,168982,31187,228320
50925,168988,31177,228335
50934,168992,31171,228312
50944,168972,31178,228330
50954,168992,31186,228317
50963,168984,31176,228326
50974,168998,31159,228321
50984,168987,31173,228294
50994,168985,31170,228334
51004,168982,31163,228328
51014,168986,31183,228340
51024,168975,31174,228313
51034,168976,31186,228330
51043,168985,31174,228303
51053,168965,31151,228330
51064,168993,31183,228310
51074,168980,31172,228327
51083,168989,31156,228333
51094,168979,31159,228317
51103,168984,31170,228325
51114,168991,31154,228324
51125,168978,31164,228316
51134,168994,31162,228293
51144,168968,31177,228322
51154,168983,31184,228335
51164,168948,31170,228319
51173,168975,31157,228331
51184,168973,31167,228293
51194,168989,31153,228322
51204,168968,31169,228304
51213,168970,31172,228319
51223,168965,31162,228319
51234,168973,31141,228324
51244,168995,31159,228295
51254,168958,31152,228290
51264,168987,31160,228291
51274,168979,31165,228332
51284,168974,31165,228321
51293,168973,31168,228332
51304,169001,31160,228320
51314,168980,31141,228331
51324,168970,31164,228320
51333,168986,31161,228336
51343,168986,31158,228318
51353,168971,31165,228322
51363,168990,31163,228317
51374,168980,31143,228269
51383,168979,31149,228298
51394,168966,31153,228328
51404,168980,31153,228299
51414,168980,31155,228338
51424,168977,31143,228303
51434,168981,31168,228328
51444,168979,31164,228321
51454,168980,31136,228316
51463,168975,31147,228329
51473,168971,31157,228302
51484,168981,31161,228337
51494,168980,31155,228338
51503,168968,31164,228315
51513,168982,31151,228293
51524,168987,31166,228322
51534,168983,31136,228301
51564,168988,31146,228318
51566,168975,31158,228326
51573,168971,31160,228322
51583,168967,31165,228325
51593,168970,31158,228304
51603,168991,31144,228334
51613,168978,31151,228296
51624,168960,31173,228336
51633,168955,31192,228318
51643,168960,31142,228336
51653,168981,31167,228321
51663,168977,31148,228319
51673,168970,31149,228335
51683,168974,31161,228325
51694,168967,31135,228311
51704,168975,31161,228322
51713,168981,31161,228349
51724,168985,31155,228325
51734,168976,31159,228333
51744,168979,31157,228326
51753,168975,31154,228341
51764,168963,31153,228334
51773,168959,31148,228315
51783,168954,31146,228332
51792,168966,31158,228316
51802,168971,31143,228317
51813,168962,31139,228299
51823,168958,31149,228316
51833,168966,31151,228321
51843,168969,31145,228308
51853,168962,31158,228309
51863,168971,31147,228327
51873,168952,31148,228306
51883,168956,31151,228282
51893,168956,31156,228332
51903,168969,31152,228321
51913,168951,31148,228325
51922,168956,31148,228294
51933,168954,31137,228317
51943,168963,31137,228308
51954,168975,31145,228318
51963,168961,31154,228322
51973,168945,31149,228321
51983,168969,31131,228303
51993,168959,31157,228322
52002,168943,31159,228320
52012,168948,31148,228281
52023,168948,31129,228286
52033,168963,31132,228305
52042,168960,31133,228305
52052,168951,31141,228311
52063,168957,31118,228296
52073,168950,31147,228306
52083,168951,31141,228278
52093,168950,31124,228316
52103,168944,31143,228297
52113,168934,31158,228315
52124,168940,31135,228284
52133,168940,31119,228293
52143,168941,31143,228301
52153,168933,31130,228262
52163,168933,31132,228269
52172,168948,31139,228311
52183,168948,31137,228300
52193,168951,31143,228280
52203,168924,31131,228299
52212,168922,31115,228268
52223,168935,31128,228298
52233,168943,31142,228294
52243,168930,31136,228287
52252,168927,31116,228284
52262,168924,31123,228305
52273,168934,31118,228284
52283,168949,31137,228271
52292,168923,31136,228290
52302,168910,31124,228276
52312,168914,31127,228290
52323,168926,31136,228291
52333,168927,31134,228289
52343,168926,31147,228285
52352,168942,31132,228281
52362,168949,31108,228284
52373,168920,31121,228303
52383,168928,31135,228258
52393,168913,31136,228276
52403,168931,31128,228273
52413,168919,31122,228273
52422,168927,31132,228297
52432,168927,31132,228278
52442,168922,31137,228298
52452,168911,31135,228297
52462,168928,31119,228269
52472,168930,31130,228291
52483,168945,31124,228278
52493,168930,31131,228292
52502,168933,31128,228261
52512,168923,31118,228285
52522,168926,31131,228295
52532,168931,31130,228296
52542,168908,31129,228293
52553,168923,31115,228283
52563,168933,31134,228288
52573,168904,31120,228299
52583,168926,31133,228291
52592,168922,31121,228285
52603,168927,31129,228288
52613,168924,31143,228280
52623,168895,31126,228278
52632,168926,31133,228263
52642,168918,31119,228255
52652,168936,31116,228255
52663,168928,31131,228282
52672,168937,31120,228269
52682,168913,31144,228280
52692,168931,31119,228282
52702,168901,31124,228285
52711,168909,31138,228250
52722,168910,31115,228263
52733,168923,31137,228275
52743,168927,31125,228245
52752,168902,31130,228267
52762,168909,31131,228262
52772,168917,31123,228249
52783,168909,31134,228276
52792,168907,31141,228274
52802,168914,31134,228255
52812,168890,31143,228280
52823,168907,31128,228260
52833,168889,31137,228263
52842,168908,31125,228240
52852,168904,31127,228272
52862,168904,31114,228256
52872,168891,31139,228229
52882,168895,31139,228247
52892,168892,31142,228256
52903,168897,31132,228274
52912,168916,31137,228252
52922,168887,31144,228235
52931,168897,31135,228239
52943,168908,31132,228241
52952,168908,31123,228236
52962,168905,31130,228230
52971,168911,31144,228250
52983,168894,31120,228245
52992,168897,31139,228247
53002,168914,31133,228238
53012,168909,31125,228248
53022,168902,31140,228262
53043,168889,31130,228232
53052,168892,31140,228234
53062,168916,31139,228221
53072,168915,31121,228234
53083,168898,31147,228229
53091,168908,31150,228220
53103,168872,31142,228212
53112,168899,31153,228211
53122,168863,31130,228239
53132,168878,31152,228214
53142,168893,31146,228207
53152,168889,31142,228228
53163,168899,31134,228212
53172,168898,31152,228201
53182,168882,31146,228229
53192,168874,31147,228197
53202,168885,31133,228185
53211,168879,31136,228212
53221,168878,31148,228218
53231,168894,31146,228205
53243,168896,31132,228223
53252,168884,31141,228213
53262,168877,31130,228197
53272,168879,31125,228212
53282,168897,31134,228206
53291,168887,31130,228204
53301,168883,31130,228230
53311,168884,31147,228200
53322,168885,31142,228215
53332,168891,31127,228220
53341,168886,31149,228208
53351,168882,31150,228221
53361,168892,31141,228230
53372,168892,31147,228221
53382,168893,31145,228213
53392,168898,31152,228219
53402,168896,31141,228229
53412,168882,31147,228213
53421,168893,31146,228227
53431,168905,31143,228208
53442,168898,31139,228208
53451,168893,31155,228196
53462,168895,31124,228216
53471,168903,31141,228221
53482,168897,31151,228207
53492,168888,31146,228212
53501,168885,31151,228211
53511,168890,31150,228190
53521,168875,31153,228219
53531,168891,31147,228220
53542,168888,31152,228212
53551,168891,31147,228198
53562,168883,31137,228213
53572,168881,31152,228231
53582,168865,31161,228232
53591,168889,31155,228236
53601,168883,31149,228226
53611,168882,31150,228247
53622,168902,31143,228217
53631,168890,31158,228229
53641,168905,31142,228223
53651,168899,31147,228242
53662,168908,31151,228233
53671,168899,31155,228225
53681,168893,31157,228243
53692,168903,31168,228263
53702,168892,31153,228247
53711,168891,31164,228222
53723,168901,31157,228251
53744,168906,31163,228239
53751,168901,31161,228256
53761,168915,31152,228212
53771,168901,31162,228246
53781,168872,31167,228252
53791,168901,31163,228221
53801,168902,31163,228239
53811,168917,31158,228239
53823,168902,31182,228246
53831,168926,31153,228264
53841,168912,31151,228239
53851,168916,31158,228234
53863,168895,31166,228259
53871,168918,31161,228249
53881,168903,31156,228246
53891,168902,31170,228257
53901,168913,31169,228252
53911,168916,31169,228244
53920,168897,31168,228238
53931,168903,31147,228236
53942,168914,31148,228260
53952,168913,31154,228220
53961,168924,31168,228246
53971,168905,31147,228254
53981,168914,31172,228248
53991,168909,31165,228260
54001,168918,31147,228253
54011,168901,31165,228248
54021,168922,31159,228230
54031,168910,31174,228256
54041,168914,31164,228255
54050,168917,31168,228271
54060,168914,31181,228275
54071,168926,31146,228246
54082,168914,31158,228274
54091,168916,31172,228244
54101,168915,31163,228263
54111,168927,31169,228248
54121,168928,31177,228264
54130,168917,31150,228262
54141,168931,31157,228275
54151,168903,31151,228260
54161,168914,31163,228245
54171,168928,31175,228270
54181,168923,31174,228261
54191,168921,31159,228282
54201,168909,31178,228285
54210,168914,31180,228278
54220,168910,31172,228294
54231,168924,31139,228279
54242,168907,31186,228303
54251,168916,31171,228286
54261,168931,31173,228268
54271,168940,31163,228300
54281,168921,31185,228278
54291,168921,31167,228301
54300,168925,31172,228250
54310,168934,31173,228302
54321,168918,31170,228282
54331,168932,31167,228301
54340,168928,31168,228284
54351,168938,31181,228306
54361,168918,31168,228301
54371,168913,31176,228302
54380,168933,31174,228295
54390,168926,31183,228316
54400,168928,31181,228311
54411,168927,31159,228301
54421,168929,31166,228315
54431,168928,31178,228294
54441,168913,31172,228308
54451,168923,31175,228313
54460,168927,31170,228306
54470,168925,31155,228316
54480,168926,31184,228312
54491,168946,31169,228309
54501,168916,31183,228322
54511,168945,31176,228307
54521,168930,31180,228296
54531,168951,31172,228306
54541,168938,31196,228311
54550,168954,31186,228298
54560,168939,31179,228318
54570,168918,31195,228331
54580,168941,31190,228338
54590,168936,31164,228331
54601,168929,31182,228320
54611,168938,31187,228323
54621,168953,31188,228316
54630,168929,31176,228329
54640,168923,31192,228329
54664,168958,31178,228341
54670,168958,31188,228348
54683,168934,31175,228338
54704,168936,31185,228333
54710,168941,31179,228340
54720,168942,31180,228296
54731,168923,31190,228332
54741,168943,31179,228326
54750,168965,31187,228339
54760,168930,31181,228326
54771,168936,31188,228320
54781,168959,31189,228336
54791,168952,31198,228320
54800,168940,31191,228322
54810,168947,31177,228324
54820,168932,31162,228317
54831,168942,31193,228308
54840,168928,31182,228308
54850,168945,31181,228327
54861,168932,31188,228321
54871,168943,31192,228303
54880,168932,31188,228338
54890,168943,31186,228326
54900,168943,31196,228334
54910,168946,31185,228337
54922,168936,31185,228347
54930,168947,31177,228333
54941,168946,31188,228332
54951,168943,31183,228333
54960,168951,31188,228323
54970,168923,31194,228319
54980,168931,31187,228319
54991,168957,31193,228310
55000,168949,31189,228341
55010,168937,31188,228335
55020,168946,31192,228338
55030,168934,31198,228329
55040,168946,31173,228337
55050,168942,31184,228308
55060,168942,31200,228309
55070,168933,31186,228339
55080,168935,31184,228310
55089,168940,31179,228327
55099,168950,31192,228339
55110,168940,31174,228313
55121,168936,31198,228339
55130,168948,31189,228307
55140,168940,31183,228345
55150,168956,31189,228325
55160,168927,31188,228339
55170,168933,31205,228337
55180,168940,31185,228328
55190,168940,31196,228333
55201,168933,31164,228338
55210,168931,31190,228319
55220,168929,31186,228327
55230,168945,31173,228355
55240,168941,31204,228343
55250,168942,31181,228348
55260,168942,31195,228331
55270,168953,31180,228349
55280,168951,31190,228343
55290,168951,31180,228340
55300,168932,31181,228339
55310,168947,31193,228332
55320,168946,31186,228322
55331,168945,31194,228352
55340,168952,31193,228319
55350,168911,31209,228349
55360,168948,31193,228344
55370,168940,31196,228355
55382,168945,31191,228334
55429,168933,31201,228349
55440,168950,31196,228365
55450,168937,31186,228343
55459,168940,31200,228317
55469,168933,31194,228357
55479,168938,31194,228339
55490,168931,31196,228370
55500,168955,31188,228356
55510,168932,31189,228325
55520,168944,31191,228332
55530,168931,31197,228356
55540,168934,31203,228355
55550,168930,31181,228350
55560,168938,31190,228367
55570,168935,31192,228365
55580,168950,31203,228330
55590,168915,31198,228354
55600,168947,31209,228342
55610,168946,31174,228345
55620,168939,31193,228374
55629,168945,31184,228372
55640,168927,31201,228377
55650,168940,31190,228356
55660,168909,31198,228359
55669,168937,31194,228356
55679,168941,31208,228338
55689,168943,31192,228351
55700,168940,31189,228350
55709,168940,31201,228363
55719,168945,31194,228360
55730,168943,31200,228349
55740,168913,31220,228351
55750,168944,31202,228338
55759,168928,31199,228332
55769,168923,31201,228337
55779,168945,31200,228312
55790,168916,31207,228351
55799,168921,31208,228333
55809,168913,31198,228341
55820,168916,31209,228327
55830,168913,31217,228328
55842,168895,31199,228330
55849,168926,31204,228341
55859,168926,31194,228336
55870,168909,31201,228323
55879,168923,31206,228305
55889,168905,31206,228316
55899,168938,31200,228318
55910,168908,31188,228337
55919,168919,31196,228326
55929,168919,31211,228314
55940,168900,31218,228342
55950,168916,31202,228326
55959,168909,31191,228314
55969,168895,31213,228336
55979,168919,31179,228310
55989,168919,31209,228322
56000,168929,31191,228302
56009,168906,31218,228324
56019,168903,31209,228316
56030,168895,31204,228319
56040,168911,31208,228328
56049,168907,31206,228313
56059,168907,31204,228307
56069,168890,31211,228316
56080,168929,31184,228313
56088,168917,31196,228314
56099,168903,31198,228303
56110,168902,31201,228299
56120,168904,31205,228295
56129,168915,31201,228298
56139,168911,31207,228309
56149,168905,31196,228320
56160,168906,31210,228311
56169,168912,31216,228310
56179,168900,31211,228302
56189,168896,31193,228316
56199,168902,31197,228288
56209,168907,31198,228315
56219,168900,31213,228266
56229,168905,31205,228297
56239,168899,31191,228276
56250,168906,31210,228300
56259,168879,31208,228298
56269,168883,31223,228266
56279,168888,31206,228317
56290,168902,31204,228293
56299,168890,31203,228309
56309,168889,31199,228302
56319,168899,31219,228304
56329,168887,31208,228296
56339,168902,31206,228288
56349,168888,31195,228287
56359,168873,31204,228296
56369,168879,31234,228292
56378,168896,31200,228274
56389,168901,31222,228290
56399,168895,31199,228295
56409,168890,31215,228312
56418,168886,31200,228299
56428,168899,31183,228308
56439,168881,31217,228302
56449,168876,31216,228306
56459,168900,31207,228314
56469,168891,31194,228292
56479,168898,31206,228302
56489,168890,31206,228289
56499,168879,31213,228291
56508,168892,31223,228285
56518,168892,31218,228295
56529,168896,31207,228309
56539,168903,31214,228307
56564,168895,31219,228321
56569,168909,31220,228328
56579,168884,31224,228321
56589,168877,31216,228318
56599,168894,31201,228315
56609,168880,31219,228314
56619,168876,31221,228314
56628,168907,31220,228296
56638,168901,31209,228305
56649,168899,31207,228285
56659,168883,31218,228281
56668,168891,31226,228306
56678,168894,31217,228303
56688,168889,31202,228297
56699,168877,31201,228295
56708,168894,31215,228287
56718,168895,31212,228287
56729,168895,31204,228311
56739,168879,31211,228314
56749,168873,31215,228311
56758,168884,31210,228303
56769,168900,31198,228305
56779,168896,31223,228281
56789,168885,31205,228298
56798,168900,31223,228285
56808,168904,31230,228304
56818,168897,31215,228284
56829,168894,31216,228294
56838,168896,31217,228280
56848,168883,31222,228306
56858,168901,31223,228300
56869,168886,31212,228279
56878,168894,31214,228286
56888,168894,31217,228308
56899,168903,31222,228308
56908,168892,31226,228296
56917,168900,31216,228306
56928,168914,31222,228310
56939,168882,31209,228303
56949,168885,31217,228273
56958,168895,31223,228278
56968,168878,31226,228291
56978,168870,31220,228306
56989,168891,31225,228306
56999,168860,31217,228303
57008,168890,31221,228273
57018,168892,31218,228286
57028,168903,31211,228302
57038,168883,31221,228307
57047,168894,31212,228287
57058,168892,31215,228319
57068,168898,31220,228317
57079,168892,31218,228323
57088,168888,31224,228292
57098,168886,31223,228306
57109,168917,31209,228313
57119,168892,31225,228323
57128,168894,31218,228310
57138,168905,31218,228312
57149,168892,31221,228330
57159,168900,31215,228314
57168,168894,31218,228343
57178,168895,31221,228338
57188,168896,31220,228321
57198,168895,31223,228333
57208,168905,31224,228312
57218,168906,31234,228326
57228,168907,31219,228323
57239,168907,31227,228328
57249,168914,31218,228302
57258,168905,31225,228315
57268,168874,31232,228330
57278,168904,31227,228329
57289,168891,31224,228307
57298,168871,31228,228314
57308,168902,31239,228306
57318,168898,31229,228305
57328,168897,31221,228301
57337,168882,31224,228314
57348,168895,31211,228280
57358,168869,31227,228286
57368,168862,31235,228302
57377,168864,31244,228292
57387,168859,31223,228278
57398,168858,31224,228282
57408,168845,31244,228229
57417,168846,31243,228250
57427,168822,31243,228254
57438,168814,31246,228243
57448,168823,31257,228242
57458,168823,31251,228280
57468,168826,31251,228274
57478,168833,31238,228334
57488,168811,31238,228320
57498,168801,31248,228313
57508,168786,31249,228284
57518,168783,31242,228318
57528,168795,31234,228356
57538,168801,31236,228334
57547,168793,31261,228343
57557,168797,31257,228342
57568,168794,31257,228348
57578,168788,31258,228361
57587,168804,31260,228326
57598,168772,31255,228288
57608,168755,31252,228207
57618,168741,31242,228162
57627,168713,31236,228127
57637,168688,31240,228100
57648,168686,31236,228067
57658,168682,31223,228024
57684,168668,31217,227974
57688,168639,31220,227910
57698,168652,31211,227873
57708,168604,31208,227769
57718,168584,31200,227704
57728,168563,31197,227588
57738,168556,31195,227539
57748,168520,31186,227499
57757,168509,31200,227413
57768,168470,31196,227394
57778,168480,31194,227363
57788,168499,31173,227325
57797,168484,31193,227334
57807,168491,31182,227354
57817,168510,31180,227397
57828,168544,31175,227470
57837,168562,31187,227524
57847,168564,31185,227546
57858,168577,31192,227552
57868,168617,31176,227561
57877,168615,31205,227588
57887,168658,31186,227644
57903,168632,31200,227682
57924,168723,31174,227751
57928,168717,31186,227790
57938,168723,31179,227823
57947,168724,31187,227859
57962,168769,31172,227897
57967,168780,31180,227939
57978,168815,31185,227983
57987,168796,31164,227990
57997,168802,31180,228019
58007,168797,31173,228049
58067,168829,31146,228157
58069,168827,31162,228163
58078,168812,31164,228124
58103,168794,31160,228062
58124,168775,31162,227980
58127,168754,31164,227943
58137,168713,31178,227920
58187,168641,31179,227684
58203,168616,31195,227611
58208,168597,31186,227592
58217,168577,31196,227571
58227,168593,31203,227515
58237,168576,31206,227522
58248,168587,31192,227515
58257,168579,31194,227485
58284,168587,31192,227506
58304,168594,31193,227583
58307,168626,31184,227587
58317,168629,31177,227687
58327,168667,31176,227699
58386,168653,31176,227825
58404,168603,31154,227837
58407,168625,31160,227857
58416,168569,31163,227889
58427,168574,31179,227839
58437,168531,31166,227835
58447,168515,31147,227827
58462,168489,31170,227771
58551,168409,31224,227745
58557,168408,31246,227707
58567,168420,31244,227722
58577,168410,31261,227718
58587,168398,31265,227684
58597,168370,31270,227664
58692,167826,31214,226656
58697,167710,31214,226468
58724,167423,31146,226031
58727,167272,31148,225819
58737,167150,31147,225638
58747,167103,31136,225478
58763,167033,31141,225295
58767,166948,31151,225059
58777,166813,31183,224705
58787,166692,31207,224294
58797,166509,31245,223797
58806,166276,31265,223188
58817,165958,31298,222516
58826,165614,31283,221873
58836,165313,31282,221403
58847,165151,31286,221133
58857,165072,31320,220919
58867,165033,31355,220713
58876,164980,31381,220437
58886,164885,31397,220123
58896,164789,31407,219872
58907,164623,31396,219499
58916,164295,31341,219042
58926,163954,31323,218528
58936,163512,31299,217973
58947,163026,31301,217357
58957,162656,31325,216922
58966,162328,31346,216435
58977,161903,31396,215760
58986,161460,31467,215109
58997,161068,31551,214547
59006,160885,31675,214266
59017,160731,31776,213913
59027,160391,31881,213408
59037,160008,31985,212812
59046,159719,32108,212170
59056,159505,32203,211817
59066,159320,32230,211606
59077,159292,32286,211536
59086,159239,32302,211475
59096,159236,32364,211473
59107,159269,32399,211441
59117,159279,32431,211444
59126,159325,32480,211528
59136,159369,32526,211581
59146,159457,32579,211668
59156,159532,32637,211760
59166,159561,32660,211806
59176,159648,32743,211897
59186,159751,32784,212052
59197,159824,32825,212120
59206,159886,32868,212184
59215,159960,32913,212268
59226,160044,32957,212335
59237,160096,32981,212417
59246,160217,33043,212569
59256,160320,33091,212675
59266,160422,33155,212782
59277,160532,33192,212922
59286,160641,33240,213017
59296,160761,33280,213162
59306,160915,33323,213317
59317,161026,33356,213439
59326,161156,33431,213554
59336,161282,33453,213685
59346,161374,33512,213758
59356,161484,33553,213914
59367,161575,33595,213970
59376,161664,33631,214078
59386,161742,33666,214171
59396,161786,33694,214207
59406,161867,33708,214258
59416,161912,33756,214337
59426,161958,33772,214343
59436,161950,33788,214306
59446,161976,33793,214282
59456,161991,33823,214299
59466,162128,33883,214484
59476,162290,33932,214666
59486,162302,33928,214679
59496,162176,33909,214496
59506,162059,33880,214396
59516,162095,33924,214494
59526,162129,33973,214651
59536,162200,34019,214833
59546,162310,34032,215055
59556,162385,34067,215210
59566,162373,34079,215280
59576,162414,34099,215439
59586,162561,34128,215768
59596,162848,34203,216217
59606,163128,34257,216683
59616,163367,34303,217101
59625,163566,34323,217459
59636,163771,34329,217832
59646,163977,34363,218187
59656,164163,34368,218509
59666,164216,34339,218726
59675,164316,34317,219019
59748,163794,34002,219503
59750,163626,33959,219464
59763,163512,33958,219478
59766,163450,33952,219531
59776,163273,33984,219326
59786,162992,33965,219026
59795,162755,33976,218829
59805,162559,34003,218697
59816,162302,34010,218414
59826,162002,34035,218030
59843,161749,34039,217676
59845,161479,34079,217272
59864,161232,34092,216929
59866,160912,34087,216565
59875,160622,34084,216236
59885,160451,34064,216129
59904,160181,34018,215780
59924,159854,33975,215380
59926,159754,33938,215218
59935,159679,33933,215094
59945,159687,33919,215118
59963,159693,33932,215197
59965,159790,33945,215353
59984,159851,33963,215409
60028,161381,34128,217306
60036,161713,34204,217748
60045,162109,34220,218208
60055,162393,34227,218529
60066,162613,34241,218843
60076,162892,34250,219211
60085,163150,34278,219529
60095,163333,34256,219762
60105,163453,34245,219873
60116,163400,34237,219881
60125,163367,34228,219800
60135,163231,34182,219595
60146,163142,34158,219515
60156,163167,34130,219619
60166,163498,34142,219843
60175,163818,34182,219993
60185,163892,34165,219821
60196,163973,34170,219785
60206,164070,34169,219710
60215,163832,34135,219263
60225,163354,34085,218506
60236,162824,34009,217658
60264,162143,33975,216376
60308,161974,33968,215441
60315,162147,33981,215401
60326,162178,33984,215312
60343,162558,34031,215585
60345,163062,34094,216070
60355,163454,34172,216237
60366,163607,34170,216175
60375,163554,34182,215763
60385,163410,34177,215334
60395,163235,34188,214946
60405,163328,34209,214979
60415,163680,34264,215248
60425,163967,34301,215431
60435,164059,34283,215346
60445,164166,34284,215308
60455,164287,34331,215302
60465,164350,34342,215213
60475,164294,34315,215012
60485,164242,34334,214939
60495,164176,34359,214868
60504,164220,34373,214824
60514,164237,34406,214776
60525,164263,34436,214793
60535,164329,34483,214835
60544,164373,34513,214891
60555,164438,34542,214892
60565,164481,34583,214892
60575,164489,34604,214910
60585,164537,34641,214948
60595,164561,34662,214951
60604,164617,34681,214978
60615,164640,34686,215000
60625,164700,34736,215046
60635,164724,34771,215094
60645,164797,34780,215142
60655,164867,34811,215193
60665,164908,34838,215227
60674,164940,34848,215258
60684,164975,34846,215267
60695,164998,34886,215297
60705,165024,34892,215302
60715,165009,34871,215360
60724,165019,34880,215351
60735,165014,34871,215379
60745,165011,34840,215405
60754,165023,34812,215485
60765,165014,34796,215605
60775,165082,34785,215793
60785,165210,34773,216062
60794,165316,34776,216247
60804,165337,34743,216395
60814,165396,34731,216524
60825,165446,34705,216684
60834,165538,34711,216928
60844,165642,34750,217171
60855,165797,34730,217498
60865,165924,34741,217771
60883,166118,34783,218104
60886,166300,34805,218417
60895,166428,34814,218673
60905,166581,34828,218886
60915,166704,34814,219141
60924,166789,34780,219401
60934,166903,34751,219875
60945,167179,34739,220447
60955,167453,34742,221015
60964,167609,34716,221439
60974,167750,34680,221832
61047,168061,34593,223362
61050,168153,34612,223454
61054,168188,34590,223479
61065,168219,34622,223583
61075,168210,34608,223653
61084,168289,34609,223757
61094,168313,34604,223750
61104,168276,34588,223711
61114,168283,34581,223775
61125,168265,34567,223761
61134,168251,34519,223740
61144,168200,34516,223725
61154,168143,34510,223621
61165,168064,34449,223581
61174,168008,34446,223548
61184,167944,34433,223543
61194,167896,34389,223493
61205,167832,34365,223427
61214,167808,34370,223424
61224,167778,34335,223396
61235,167754,34322,223374
61245,167726,34315,223376
61254,167719,34330,223378
61264,167705,34314,223346
61274,167685,34304,223354
61284,167704,34293,223389
61293,167675,34294,223352
61304,167829,34364,223530
61314,167857,34383,223589
61324,167903,34357,223635
61333,167920,34375,223658
61343,167920,34359,223670
61354,167948,34337,223665
61365,167956,34344,223703
61375,167937,34341,223717
61384,167955,34324,223725
61394,167948,34326,223746
61404,167956,34298,223769
61414,167959,34312,223790
61424,167955,34294,223805
61434,167973,34298,223813
61444,167975,34280,223810
61455,168001,34280,223846
61464,168000,34258,223852
61474,167989,34237,223864
61484,168009,34249,223847
61494,168056,34256,223874
61504,168125,34271,223950
61514,168238,34286,224018
61524,168324,34293,224121
61534,168419,34323,224183
61543,168532,34375,224200
61554,168391,34342,223790
61564,168313,34330,223576
61575,168326,34353,223323
61584,168308,34402,223080
61594,168215,34404,222624
61604,168006,34376,222035
61623,167735,34388,221343
61625,167471,34338,220725
61634,167172,34322,220139
61643,166896,34297,219618
61654,166660,34269,219211
61665,166532,34248,218913
61674,166386,34244,218603
61684,166230,34249,218307
61694,166071,34221,218052
61704,165939,34198,217795
61713,165763,34180,217560
61723,165593,34152,217356
61733,165490,34157,217235
61744,165394,34127,217115
61754,165432,34166,217110
61764,165413,34173,217036
61774,165236,34152,216713
61784,164939,34115,216280
61793,164810,34115,216035
61803,164749,34133,215847
61813,164639,34142,215597
61824,164465,34129,215307
61833,164328,34121,215031
61843,164270,34152,214889
61854,164232,34169,214796
61864,164181,34169,214667
61874,164187,34208,214648
61884,164188,34220,214621
61894,164175,34250,214569
61904,164126,34247,214528
61914,164100,34255,214436
61924,164084,34286,214436
61934,164090,34298,214382
61944,164090,34321,214391
61954,164123,34366,214433
61963,164175,34388,214450
61973,164199,34412,214485
61984,164209,34441,214506
61994,164223,34478,214532
62003,164231,34471,214494
62013,164242,34492,214543
62023,164279,34509,214562
62033,164319,34552,214606
62043,164361,34563,214665
62053,164404,34613,214700
62063,164425,34621,214745
62074,164471,34646,214778
62083,164499,34653,214805
62093,164503,34687,214823
62103,164522,34677,214824
62113,164474,34685,214720
62124,164436,34672,214685
62133,164429,34691,214759
62143,164434,34662,214793
62153,164379,34658,214734
62164,164220,34568,214530
62173,163998,34497,214312
62183,163773,34426,214153
62193,163621,34379,214042
62204,163571,34350,214172
62213,163579,34303,214307
62223,163688,34364,214644
62233,163913,34407,215083
62243,164187,34444,215624
62253,164522,34508,216145
62263,164784,34552,216537
62273,164946,34570,216867
62284,165058,34596,217097
62293,165237,34602,217464
62303,165544,34675,217995
62313,166026,34759,218686
62324,166537,34835,219451
62333,166939,34892,220125
62343,167236,34869,220701
62353,167439,34828,221285
62363,167600,34788,221793
62374,167830,34716,222396
62382,167824,34647,222680
62393,167629,34573,222637
62404,167485,34535,222704
62414,167449,34497,222799
62423,167381,34498,222815
62444,167409,34532,222947
62453,167328,34531,222777
62462,167045,34496,222287
62484,166598,34456,221776
62493,166413,34445,221646
62503,166228,34452,221455
62513,166030,34436,221285
62523,165881,34448,221143
62533,165705,34498,220987
62543,165515,34480,220771
62553,165252,34519,220534
62563,165071,34553,220341
62573,164807,34633,220097
62583,164494,34640,219703
62593,164317,34646,219664
62603,164197,34642,219710
62613,164127,34676,219773
62623,164063,34668,219898
62632,164112,34693,220076
62643,164225,34702,220316
62653,164426,34714,220584
62663,164698,34780,221011
62672,165030,34817,221473
62682,165403,34853,221936
62693,165826,34932,222468
62703,166315,34958,223065
62712,166799,35001,223668
62723,167188,35044,224161
62733,167580,35034,224628
62743,167905,35065,224919
62752,168138,35067,225240
62763,168325,35040,225435
62773,168399,35036,225451
62783,168379,35028,225485
62792,168457,35006,225372
62803,167970,34962,224735
62813,167628,34911,224340
62823,167567,34903,224243
62833,167543,34881,224050
62842,167383,34884,223804
62852,167228,34878,223528
62863,167143,34865,223318
62873,167183,34857,223239
62883,167234,34865,223142
62893,167219,34864,222907
62903,167177,34870,222637
62913,166974,34863,222190
62923,166713,34837,221646
62933,166507,34829,221204
62943,166229,34792,220738
62953,166079,34760,220448
62963,165866,34741,220056
62973,165770,34710,219901
62983,165729,34691,219666
62993,165597,34671,219346
63002,165636,34671,219264
63012,165753,34649,219230
63023,165806,34617,219024
63033,165581,34596,218430
63042,165205,34563,217628
63052,164796,34542,216853
63063,164342,34550,216096
63072,164090,34565,215551
63082,164118,34587,215500
63092,164229,34658,215521
63103,164314,34679,215477
63113,164300,34686,215322
63123,164246,34680,215143
63132,164189,34692,214936
63142,164030,34644,214680
63152,163883,34638,214424
63163,163757,34613,214250
63172,163694,34638,214118
63182,163672,34642,214086
63193,163722,34662,214125
63203,163765,34701,214168
63212,163802,34736,214209
63222,163892,34753,214277
63232,163940,34795,214268
63242,163983,34822,214310
63252,164070,34867,214378
63262,164174,34878,214450
63272,164290,34917,214603
63283,164411,34953,214714
63292,164497,34991,214814
63302,164587,34995,214878
63312,164648,35000,214896
63322,164647,34984,214850
63332,164600,34993,214754
63341,164557,34965,214702
63352,164502,34904,214643
63363,164395,34867,214514
63373,164175,34803,214280
63382,163919,34686,214031
63392,163710,34601,213872
63402,163533,34545,213835
63412,163529,34519,213978
63421,163605,34541,214300
63432,163800,34568,214706
63442,164075,34622,215241
63452,164361,34676,215760
63461,164717,34731,216377
63472,165003,34787,216902
63482,165350,34874,217456
63492,165731,34932,218017
63501,165984,34985,218452
63524,166334,34955,219229
63532,166372,34924,219596
63541,166539,34872,220151
63551,166838,34896,220880
63562,167107,34902,221479
63572,167258,34872,221817
63582,167175,34817,221810
63592,167051,34774,221778
63602,167075,34767,221872
63612,167101,34778,222090
63622,167172,34780,222211
63632,167209,34782,222415
63642,167271,34781,222565
63652,167271,34781,222517
63662,167273,34798,222572
63671,167385,34825,222660
63681,167544,34860,222942
63692,167830,34905,223425
63702,168142,34958,223871
63711,168361,34969,224135
63721,168464,35004,224273
63731,168545,35007,224384
63743,168625,35001,224492
63752,168659,35029,224520
63762,168672,35022,224566
63772,168729,35014,224746
63782,168863,35046,224884
63791,168928,35062,224966
63801,168951,35044,225026
63812,169029,35049,225122
63822,169089,35049,225165
63832,169085,35050,225151
63841,169048,35034,225117
63851,169037,35041,225114
63862,169054,35033,225163
63872,169089,35024,225163
63881,169076,35018,225159
63891,169070,34992,225161
63901,169017,34974,225115
63911,168941,34926,225026
63921,168864,34892,224904
63931,168813,34912,224847
63943,168822,34889,224857
63952,168870,34873,224939
63962,168887,34890,224948
63971,168878,34891,224887
63982,168851,34858,224796
63992,168773,34860,224624
64001,168722,34844,224481
64011,168671,34849,224314
64023,168629,34831,224098
64031,168551,34825,223897
64041,168451,34812,223598
64051,168334,34807,223253
64062,168130,34787,222762
64072,167890,34744,222202
64082,167547,34723,221573
64091,167182,34682,220877
64101,166907,34649,220397
64111,166703,34581,219964
64122,166516,34587,219626
64131,166469,34601,219462
64141,166310,34571,219139
64151,166221,34580,218874
64161,166117,34557,218643
64170,166029,34559,218398
64181,165989,34595,218223
64192,165937,34646,218000
64202,165970,34691,217871
64211,166153,34775,217969
64223,166309,34815,218000
64231,166365,34851,217890
64241,166240,34840,217596
64251,166044,34844,217219
64261,165872,34817,216872
64271,165725,34820,216635
64282,165650,34827,216450
64291,165529,34812,216227
64301,165437,34838,216158
64311,165469,34865,216146
64321,165525,34894,216173
64331,165551,34907,216177
64341,165577,34923,216176
64351,165572,34981,216112
64361,165556,34976,216097
64372,165526,34971,216002
64381,165486,34978,215968
64391,165476,34999,215930
64401,165457,35001,215862
64412,165468,35011,215890
64421,165514,35012,215915
64431,165533,35053,215931
64441,165581,35076,215968
64451,165598,35084,215985
64461,165636,35114,216017
64471,165655,35117,216009
64481,165647,35116,216013
64491,165666,35133,215988
64500,165651,35137,216005
64511,165646,35123,216006
64521,165657,35127,215974
64531,165655,35139,216003
64541,165675,35110,216068
64550,165699,35106,216111
64561,165686,35074,216121
64571,165682,35061,216172
64581,165690,35037,216254
64591,165675,34982,216349
64601,165653,34950,216380
64611,165590,34908,216382
64621,165523,34885,216422
64630,165463,34847,216510
64641,165547,34870,216778
64651,165748,34895,217132
64661,166007,34952,217548
64670,166245,34986,217948
64683,166448,35070,218240
64691,166569,35081,218384
64701,166631,35096,218429
64711,166569,35084,218327
64721,166460,35057,218131
64731,166302,35029,217983
64741,166228,35019,217953
64750,166289,35031,218113
64760,166431,35062,218309
64771,166580,35131,218546
64781,166801,35157,218842
64791,166945,35192,219061
64803,167079,35207,219220
64810,167184,35222,219357
64821,167266,35209,219544
64831,167342,35224,219774
64840,167430,35189,220104
64851,167498,35170,220475
64861,167568,35112,220815
64871,167567,35026,221136
64883,167548,34975,221469
64890,167473,34887,221659
64903,167203,34803,221541
64911,166870,34725,221295
64921,166530,34671,221040
64930,166246,34668,220831
64941,165995,34644,220703
64951,165642,34643,220423
64960,165213,34667,219946
64970,164756,34715,219493
64980,164279,34840,218995
64991,163846,34909,218668
65000,163375,34901,218177
65010,163024,34947,218149
65020,162880,34942,218167
65031,162910,34976,218415
65041,163040,35018,218952
65050,163299,35070,219373
65060,163582,35107,219785
65071,163843,35142,220085
65081,164016,35170,220272
65090,164107,35177,220470
65100,164237,35165,220650
65125,164409,35185,220900
65130,164480,35187,220982
65140,164541,35196,221075
65150,164559,35183,221114
65161,164615,35187,221193
65170,164659,35172,221234
65180,164649,35177,221242
65190,164672,35176,221270
65200,164617,35165,221210
65210,164593,35176,221239
65220,164682,35165,221302
65230,164660,35151,221284
65243,164651,35152,221282
65250,164680,35155,221341
65260,164668,35134,221328
65270,164676,35137,221360
65280,164587,35101,221240
65291,164426,35079,221057
65300,164203,35048,220853
65310,163976,34992,220628
65323,163701,34946,220353
65331,163490,34911,220135
65340,163249,34872,219921
65350,163084,34843,219800
65360,162933,34800,219598
65371,162748,34781,219462
65380,162586,34735,219344
65390,162443,34716,219260
65401,162369,34683,219260
65410,162327,34692,219270
65420,162198,34674,219209
65430,162102,34668,219148
65440,161776,34626,218755
65450,161137,34585,218123
65459,160480,34516,217441
65469,159637,34363,216506
65480,158515,34239,215375
65491,157895,34264,214759
65500,158244,34216,215428
65510,159799,34307,217073
65520,161128,34436,218616
65530,162889,34793,220519
65540,165463,34979,223113
65550,168178,35102,225516
65560,170391,35187,227389
65570,171922,35266,228845
65583,173438,35347,230322
65590,174850,35391,231705
65603,176329,35488,232716
65610,177705,35627,233427
65620,178449,35722,233461
65629,178128,35751,232626
65639,176904,35689,230903
65650,175089,35431,228011
65661,173914,35224,226081
65670,173077,35108,224744
65680,172554,35005,223816
65690,172095,34913,223101
65700,171743,34855,222560
65710,171442,34810,222086
65720,171118,34768,221670
65730,170881,34728,221292
65740,170642,34685,220882
65750,170368,34666,220563
65760,170145,34628,220189
65770,169838,34580,219767
65780,169509,34517,219172
65790,169049,34481,218636
65800,168705,34470,218154
65810,168353,34514,217629
65820,168061,34505,217238
65830,167967,34510,217087
65839,167933,34536,216975
65850,167919,34561,216906
65860,167809,34558,216697
65870,167576,34549,216307
65879,167284,34526,215866
65890,167016,34502,215439
65900,166744,34527,215090
65910,166576,34541,214816
65919,166481,34550,214631
65930,166324,34567,214511
65940,166234,34559,214335
65950,166119,34544,214197
65959,166014,34505,214056
65969,165877,34508,213895
65979,165660,34449,213667
65989,165345,34387,213398
66000,165057,34326,213121
66010,164711,34281,212867
66020,164354,34222,212264
66030,163927,34214,211958
66040,163586,34251,211731
66049,163457,34274,211845
66059,163263,34255,211916
66070,163131,34271,212097
66080,163084,34295,212363
66089,163071,34286,212599
66099,163005,34282,212804
66109,162916,34297,212994
66119,162844,34293,213080
66129,162730,34309,213074
66140,162614,34305,213096
66149,162567,34372,213237
66160,162587,34392,213420
66169,162407,34391,213448
66179,162115,34361,213205
66190,161592,34354,212789
66204,161090,34327,212365
66209,160502,34276,211854
66219,159836,34247,211278
66229,159349,34260,211028
66239,158807,34323,210805
66250,158280,34317,210547
66259,157889,34333,210376
66270,157388,34304,210071
66283,156931,34280,209665
66290,156575,34345,209530
66299,156434,34422,209757
66309,156604,34491,209957
66319,157119,34534,210604
66329,158093,34536,211418
66339,159380,34541,212141
66349,161055,34563,213249
66360,162834,34617,214373
66369,163464,34741,214986
66379,163866,34848,215412
66389,164232,34963,215811
66400,164976,35087,216347
66409,165837,35184,216805
66419,166037,35176,216439
66429,166173,35208,216206
66439,167240,35255,216981
66450,169098,35380,218243
66459,169612,35406,218624
66469,170214,35440,219125
66479,170804,35484,219440
66489,171190,35521,219560
66500,171899,35554,220097
66508,172971,35598,220775
66519,173433,35652,221078
66529,174284,35735,221781
66540,174994,35821,222365
66549,175520,35875,222796
66559,175951,35966,223235
66569,176458,36069,223712
66579,176852,36123,223988
66589,177181,36167,224406
66599,177850,36233,225086
66609,178403,36305,225665
66619,178903,36324,226235
66644,180038,36451,227483
66649,180707,36519,228260
66659,181893,36599,229148
66669,182484,36635,229911
66682,182916,36671,230851
66689,183254,36688,231375
66700,183480,36721,231823
66709,183711,36727,232253
66719,183937,36740,232763
66769,184622,36805,234820
66779,184486,36778,234809
66789,184194,36632,234612
66798,183832,36381,234278
66809,183414,36239,233680
66819,183013,36033,232942
66829,182096,35817,231187
66843,180642,35643,229351
66908,173050,35196,222313
66910,172581,35157,221682
66923,172116,35137,221049
66928,171676,35084,220506
66944,171227,35014,219936
66964,170471,34902,218950
66968,170078,34844,218439
66983,169761,34832,217971
66989,169448,34809,217642
66999,169327,34805,217508
67008,169328,34800,217549
67019,169300,34792,217525
67029,169197,34771,217346
67039,169053,34766,217160
67048,168906,34751,216964
67058,168759,34750,216729
67069,168566,34760,216454
67079,168347,34749,216153
67088,168113,34754,215873
67098,167938,34775,215634
67109,167797,34826,215425
67119,167744,34869,215307
67128,167547,34887,214998
67143,167209,34869,214563
67165,166795,34961,214013
67184,166496,34990,213476
67188,166272,35005,213254
67198,166210,35051,213182
67208,166219,35122,213246
67218,166320,35199,213381
67228,166426,35262,213512
67238,166576,35311,213733
67249,166713,35361,213919
67258,166726,35405,213949
67268,166665,35407,213892
67279,166597,35390,213784
67289,166512,35378,213652
67298,166414,35372,213591
67308,166344,35346,213562
67318,166279,35310,213493
67328,166189,35292,213431
67337,166088,35280,213319
67348,165935,35228,213181
67359,165700,35153,212916
67368,165404,35066,212330
67378,165073,34977,211991
67388,164605,34923,211513
67398,164390,34891,211402
67409,164422,34883,211586
67418,164556,34903,211836
67428,164633,34909,211974
67438,164551,34872,211942
67448,164360,34839,211781
67458,164113,34792,211590
67468,163833,34743,211377
67478,162994,34688,211106
67489,162688,34673,210964
67499,162630,34691,211052
67508,162695,34726,211329
67518,162761,34762,211589
67528,162875,34805,211974
67539,163040,34845,212405
67548,163321,34925,212976
67558,163639,34986,213548
67568,163758,34984,213907
67578,163685,34940,214041
67588,163490,34899,213966
67598,163275,34874,213922
67608,163102,34845,213966
67624,162814,34788,213864
67627,162220,34715,213504
67643,161673,34678,213212
67647,161171,34645,213019
67658,160699,34655,212740
67668,160154,34646,212279
67678,159404,34615,211598
67688,158573,34604,211020
67698,158031,34563,210902
67724,157128,34520,210758
67727,156596,34539,210603
67738,156503,34602,210765
67748,157272,34623,211729
67757,158760,34608,212941
67767,161052,34598,214469
67778,162783,34661,215544
67788,164048,34841,216444
67797,165255,34984,217375
67808,166778,35211,219037
67818,168792,35428,221023
67828,171479,35658,223626
67837,174305,35814,226345
67847,176373,35933,227933
67858,177072,35973,228205
67868,177226,36021,228062
67877,177392,36069,228051
67904,177789,36119,228246
67908,177928,36137,228310
67917,178019,36151,228379
67927,178062,36126,228413
67938,177849,36116,228298
67947,178157,36105,228666
67958,178588,36090,229075
67967,179052,36123,229560
67978,179506,36155,230336
67988,179685,36139,230594
67998,180250,36164,231345
68008,181373,36208,232190
68018,181932,36261,232786
68028,182246,36337,233162
68038,182582,36392,233596
68047,182711,36424,233789
68058,182685,36322,233841
68067,182524,36051,233514
68077,182314,35861,233060
68087,181703,35744,231640
68098,180446,35607,230010
68107,179281,35406,228291
68118,177489,35312,226766
68126,175472,35260,225708
68137,174003,35171,224652
68148,173169,35111,223653
68158,172556,35054,222712
68167,171936,34977,221855
68177,171462,34942,221110
68188,171102,34881,220530
68198,170754,34843,220028
68208,170429,34795,219534
68217,170104,34755,219107
68227,169868,34732,218710
68238,169636,34729,218346
68247,169468,34713,218027
68257,169341,34710,217847
68267,169294,34724,217750
68278,169251,34712,217722
68288,169128,34688,217640
68297,168966,34658,217511
68307,168781,34616,217367
68317,168672,34620,217223
68327,168528,34627,217054
68336,168366,34643,216800
68347,168274,34670,216650
68357,168199,34712,216557
68368,168121,34707,216394
68377,167907,34735,216091
68387,167746,34739,215884
68397,167600,34763,215644
68408,167455,34758,215425
68417,167317,34769,215211
68427,167180,34788,214997
68437,167075,34791,214801
68447,166960,34803,214630
68458,166918,34833,214502
68484,166871,34926,214395
68528,167014,35078,214525
68537,166999,35081,214514
68547,167044,35087,214593
68557,167103,35107,214701
68567,167136,35121,214780
68577,167086,35084,214717
68586,166936,35039,214597
68596,166816,34977,214485
68607,166629,34875,214273
68618,166414,34809,214097
68627,166129,34720,213860
68637,165874,34654,213669
68647,165656,34607,213614
68657,165556,34591,213641
68666,165411,34585,213618
68676,165289,34567,213655
68687,165175,34589,213669
68697,165051,34644,213712
68707,164930,34613,213706
68717,164802,34607,213688
68726,164636,34602,213571
68737,164410,34565,213447
68747,164118,34547,213254
68757,163732,34520,212995
68766,162998,34551,212947
68777,162830,34580,212821
68787,162852,34619,213024
68797,162918,34699,213354
68807,162956,34716,213485
68817,162601,34645,213207
68827,162027,34625,212719
68836,161497,34619,212319
68847,160897,34594,211878
68857,160365,34603,211696
68867,159913,34618,211544
68877,159407,34661,211366
68887,159034,34732,211235
68897,158830,34732,211337
68907,158597,34738,211432
68916,158178,34723,211159
68926,157762,34714,210916
68936,157564,34663,211059
68947,157283,34679,211004
68957,157265,34767,211197
68966,157531,34808,211742
68976,158332,34819,212747
68986,159671,34838,214028
68997,161223,34834,214715
69007,163016,34812,215437
69017,163401,34800,215330
69026,163941,34901,215458
69043,164701,34982,215764
69046,165233,35113,216155
69056,166354,35208,216598
69066,167615,35263,217035
69083,168297,35331,217531
69086,169382,35380,218367
69097,170389,35392,218850
69107,171056,35423,219231
69117,171771,35473,219755
69126,172737,35542,220662
69136,173902,35639,221779
69146,174833,35680,222623
69157,175484,35668,223295
69166,176303,35742,224074
69176,177091,35809,224861
69186,177816,35864,225647
69196,178785,35960,226759
69207,179936,36079,228186
69216,180963,36115,229452
69226,181923,36088,230386
69236,182599,36157,231261
69246,183292,36179,232043
69256,183825,36230,232690
69266,184350,36294,233376
69277,184695,36354,233922
69286,184872,36464,234377
69295,184778,36549,234656
69306,184482,36586,234814
69316,183938,36494,234708
69327,183316,36171,233907
69336,182343,35892,231905
69346,180303,35711,228792
69356,178255,35502,226541
69367,176347,35393,225147
69376,174071,35292,224048
69386,173272,35229,223134
69396,172722,35189,222300
69407,172155,35149,221637
69416,171766,35119,221103
69426,171445,35095,220625
69436,171138,35075,220134
69446,170854,35036,219761
69457,170656,35047,219425
69466,170466,35023,219084
69476,170270,35015,218824
69486,170123,34991,218608
69496,169961,34986,218381
69506,169776,34978,218122
69516,169628,34954,217968
69568,168864,34856,217397
69576,168786,34839,217282
69585,168713,34848,217217
69604,168688,34879,217210
69606,168664,34893,217177
69689,168433,34973,216765
69705,168434,35010,216745
69792,168171,35014,216335
69804,168140,34978,216320
69806,168080,34972,216372
69816,168105,34934,216445
69826,168093,34883,216514
69836,168073,34845,216667
69864,168172,34760,217108
69867,168211,34718,217361
69875,168345,34724,217657
69886,168430,34694,217952
69896,168421,34660,218082
69906,168336,34674,218070
69916,168277,34655,218081
69925,168208,34678,218109
69935,168150,34669,218055
69946,168146,34683,218149
69956,168214,34717,218302
69966,168278,34737,218436
69976,168359,34784,218620
69986,168424,34784,218756
69996,168553,34835,218995
70005,168783,34899,219432
70015,169051,34938,219941
70026,169363,34973,220561
70036,169724,35013,221190
70045,169990,35027,221729
70055,170232,35030,222217
70066,170413,35034,222644
70083,170544,35026,222937
70086,170658,35006,223212
70096,170662,34982,223351
70106,170706,34964,223595
70116,170747,34943,223877
70125,170864,34919,224211
70135,170866,34889,224334
70146,170812,34879,224362
70156,170680,34836,224260
70166,170481,34823,224011
70175,170268,34759,223775
70185,170026,34725,223596
70196,169913,34741,223625
70206,169789,34733,223613
70215,169599,34712,223443
70226,169278,34698,223013
70236,168819,34694,222312
70246,168236,34671,221542
70255,167547,34686,220726
70265,166964,34752,220237
70275,166561,34801,220165
70286,166302,34867,220075
70295,166193,34925,220182
70305,166418,34981,220623
70315,166759,35042,221156
70326,167177,35100,221725
70335,167785,35192,222529
70345,168337,35284,223175
70355,168848,35342,223794
70365,169310,35393,224299
70375,169695,35404,224699
70385,170075,35454,225191
70395,170588,35462,225817
70405,171156,35474,226409
70415,171610,35469,226767
70425,171889,35368,226950
70435,172133,35226,226855
70446,172178,35177,226363
70456,172134,35124,225788
70465,172057,35057,225207
70475,171881,35018,224678
70485,171723,34999,224108
70495,171551,34972,223535
70504,171378,34956,223024
70515,171164,34946,222465
70526,170949,34922,221930
70536,170706,34890,221434
70545,170512,34878,220962
70555,170316,34867,220586
70565,170157,34828,220288
70575,170033,34813,220147
70585,169900,34770,219898
70595,169728,34750,219650
70605,169499,34744,219289
70615,169295,34739,218969
70625,169154,34740,218623
70635,168996,34714,218279
70645,168899,34726,218082
70656,168795,34714,217950
70887,167166,34974,215330
70928,167273,35109,215390
70935,167290,35140,215411
70945,167308,35169,215438
70955,167333,35185,215439
70964,167326,35215,215431
70974,167333,35208,215444
70985,167371,35237,215470
70995,167400,35263,215518
71005,167405,35243,215509
71015,167405,35279,215481
71044,167357,35272,215481
71046,167344,35272,215461
71063,167327,35254,215433
71066,167273,35227,215432
71075,167225,35150,215370
71084,167126,35107,215319
71103,166987,35053,215231
71106,166923,34977,215269
71115,166820,34914,215236
71125,166835,34889,215396
71134,166983,34904,215700
71144,167149,34924,216044
71155,167303,34931,216378
71165,167404,34894,216542
71174,167412,34865,216655
71184,167378,34822,216630
71195,167322,34813,216630
71205,167360,34813,216755
71214,167489,34842,217025
71225,167715,34866,217442
71235,168009,34919,217957
71264,168526,35014,218747
71267,168636,35033,218979
71275,168719,35016,219131
71285,168762,35029,219279
71294,168859,35000,219491
71304,169037,35056,219899
71314,169290,35079,220399
71325,169568,35126,220840
71334,169774,35166,221198
71344,169938,35168,221379
71354,169968,35166,221504
71364,170020,35136,221640
71375,170090,35134,221856
71384,170182,35162,221977
71394,170224,35156,222118
71405,170290,35149,222237
71415,170333,35159,222351
71424,170354,35149,222390
71434,170384,35169,222342
71445,170325,35173,222253
71455,170319,35157,222164
71464,170314,35151,222108
71474,170299,35150,222016
71485,170251,35157,221904
71495,170248,35135,221846
71504,170210,35136,221851
71567,170223,35107,221873
71569,170211,35111,221817
71575,170219,35117,221822
71584,170223,35110,221790
71594,170212,35119,221771
71604,170199,35121,221735
71614,170201,35112,221747
71625,170222,35110,221823
71634,170257,35124,221934
71644,170318,35116,221981
71654,170314,35136,222042
71664,170343,35119,222099
71674,170379,35097,222155
71728,170558,35139,222428
71734,170549,35126,222389
71745,170525,35121,222337
71754,170508,35096,222322
71764,170478,35073,222250
71774,170440,35061,222197
71784,170415,35081,222141
71794,170381,35050,222075
71804,170356,35057,222026
71814,170337,35068,222046
71824,170331,35055,222066
71833,170320,35014,222072
71844,170210,34996,221965
71853,170077,34942,221839
71864,170063,34932,221833
71875,170180,34949,221903
71884,170402,35014,222014
71894,170563,35036,222103
71904,170656,35039,222174
71914,170704,35013,222267
71924,170826,35023,222447
71934,171037,35034,222742
71944,171289,35043,223043
71954,171590,35091,223390
72007,171781,35035,223351
72014,171798,35002,223461
72024,171777,35004,223499
72034,171773,34958,223493
72043,171732,34967,223476
72053,171796,35006,223554
72063,171912,35054,223663
72074,172024,35074,223721
72084,172131,35129,223803
72205,172286,35137,223885
73049,172284,35068,225274
73065,172972,35109,226673
73184,173598,35297,225952
73227,173649,35264,225608
73288,173547,35105,225884
73292,173516,35090,225878
73303,173530,35100,225943
73313,173577,35091,226008
73411,173919,35075,225907
73414,173948,35062,225937
73422,173979,35067,225915
73432,174019,35004,225940
73443,174028,34989,225866
73563,174116,34860,226092
73607,173949,34864,225648
73693,174028,34870,225607
73726,174055,34848,225655
73732,174077,34831,225669
73744,174068,34839,225702
73752,174090,34825,225735
73762,174079,34815,225770
73772,174105,34819,225775
73784,174105,34826,225790
73792,174105,34811,225805
73802,174082,34815,225826
73812,174126,34804,225840
73845,174135,34755,225993
73852,174172,34747,226054
73862,174176,34740,226110
74428,174313,34549,226151
74556,174153,34652,225725
74565,174174,34709,225591
74628,174023,34614,225709
74644,174023,34570,226082
74665,174079,34591,226112
74671,174072,34598,226027
74681,174013,34577,225925
74691,174003,34585,225894
74701,174009,34602,225869
74710,174019,34615,225901
74767,173840,34555,225655
74771,173826,34543,225788
74781,173842,34561,225814
74791,173780,34546,225825
74869,173823,34562,226002
74872,173839,34557,226038
74881,173823,34577,226085
74891,173836,34558,226099
74925,173886,34601,226158
74931,173892,34606,226122
74941,173882,34623,226051
74963,173889,34639,225945
74971,173875,34645,225930
74981,173875,34649,225902
74991,173860,34646,225909
75001,173881,34619,225964
75011,173892,34627,226014
75021,173871,34622,226040
75071,173912,34626,226120
75081,173893,34612,226101
75090,173869,34604,226078
75100,173872,34585,226056
75111,173828,34574,226043
75231,173772,34443,226353
75312,173953,34321,226944
75321,173967,34307,227003
75331,173978,34292,227035
75341,174001,34291,227073
75764,171951,34843,223438
75830,171918,34753,224037
75832,171983,34750,224297
75840,172045,34782,224458
75864,172155,34861,224608
75885,172331,34981,224756
75890,172435,35037,224830
75900,172473,35062,224838
75911,172476,35077,224821
75920,172421,35056,224704
75945,172314,35071,224483
75951,172267,35092,224363
76186,171793,34957,224150
76207,171849,34971,224260
76209,172134,35064,224747
76220,172378,35113,225088
76230,172393,35099,225140
76240,172295,35086,224940
76250,172178,35043,224682
76260,172128,35083,224603
76285,172407,35143,224907
76304,172467,35141,224926
76310,172388,35128,224763
76320,172336,35137,224694
76331,172451,35165,224819
76344,172641,35215,225093
76365,172995,35230,225538
76384,173075,35223,225440
76405,172927,35176,225095
76410,172865,35167,224931
76419,172824,35172,224857
76430,172819,35162,224880
76440,172813,35144,224899
76450,172847,35135,225004
76459,172892,35131,225133
76470,172938,35121,225312
76484,172981,35106,225395
76490,172989,35072,225485
76500,172987,35082,225577
76509,173050,35058,225637
76611,173251,34979,225951
76614,173251,34961,226018
76730,173415,34801,226442
77550,173945,35034,226063
77585,173970,35055,226167
77588,173958,35070,226226
77604,173947,35060,226290
77609,173970,35074,226201
77619,173916,35052,226125
77628,173916,35058,226076
77666,173977,35057,226425
77668,173992,35037,226492
77678,173923,35049,226516
77689,173946,35039,226367
77699,173920,35042,226276
77725,173907,35043,226219
77728,173895,35032,226226
77809,173839,35040,226171
77811,173870,35053,226173
77824,173876,35057,226145
77828,173885,35062,226193
77838,173908,35038,226176
77864,173885,35043,226188
77885,173959,35014,226191
77928,173982,35016,226317
77938,173984,35017,226285
77948,173983,34997,226322
77958,173989,34987,226333
78079,174119,34904,226647
78305,173913,34720,226100
78326,173826,34710,225809
78549,173676,34851,225654
78609,173881,34887,226267
78611,173903,34891,226330
78728,173879,34988,226243
78879,174018,35053,226727
78906,173816,35047,226262
78924,173658,35029,226033
79012,173418,34981,225975
79067,173515,34995,226057
79070,173488,34986,226037
79078,173496,34983,226069
79087,173525,34986,226103
79097,173553,34978,226164
79125,173607,34984,226285
79127,173649,34985,226341
79137,173685,35014,226389
79147,173725,35003,226421
79157,173774,35004,226466
79166,173759,35007,226459
79176,173771,35016,226492
79187,173806,34985,226529
79197,173836,35036,226599
79207,173848,35034,226631
79217,173879,35016,226678
79227,173898,35019,226717
79237,173921,35032,226765
79247,173939,35036,226812
79256,173950,35044,226830
79266,173979,35030,226858
79284,173998,35038,226924
79287,174012,35046,226945
79296,174001,35042,226948
79306,174019,35061,226982
79346,174061,35066,227063
79348,174072,35063,227078
79356,174072,35057,227042
79367,174116,35068,227067
79383,174113,35083,227072
79387,174103,35083,227064
79397,174083,35086,227010
79407,174079,35080,227016
79416,174091,35077,227042
79426,174084,35084,227025
79436,174093,35075,227034
79447,174080,35090,227017
79457,174099,35100,227014
79467,174106,35092,227045
79483,174121,35095,227061
79486,174144,35094,227079
79496,174107,35090,227100
79506,174159,35095,227046
79545,174163,35110,227090
79548,174165,35115,227094
79557,174164,35106,227062
79567,174167,35120,227096
79627,174203,35119,227144
79645,174215,35127,227127
79688,174275,35129,227204
79696,174283,35104,227192
79707,174282,35137,227217
79716,174317,35117,227205
79812,174316,35111,227274
79816,174288,35095,227236
79936,174312,35100,227280
79965,174313,35090,227268
79968,174309,35088,227276
79976,174308,35115,227280
79986,174327,35098,227277
79996,174308,35081,227253
80005,174309,35087,227286
80126,174331,35083,227300
80145,174302,35109,227298
80148,174331,35085,227309
80186,174323,35078,227296
80272,174294,35065,227305
80276,174294,35068,227305
80304,174296,35065,227312
80307,174277,35073,227312
80316,174278,35063,227298
80436,174294,35076,227326
80509,174302,35078,227342
80511,174312,35094,227344
80516,174324,35071,227360
80568,174327,35104,227390
80670,174383,35114,227438
80673,174369,35106,227442
80675,174375,35087,227456
80686,174340,35124,227407
80816,174356,35111,227468
80845,174361,35121,227479
80848,174365,35112,227472
80855,174357,35103,227426
80884,174367,35118,227500
80928,174377,35130,227469
80987,174384,35132,227476
80990,174381,35122,227481
80995,174386,35097,227448
81005,174374,35148,227475
81015,174378,35135,227485
81025,174395,35134,227480
81035,174388,35138,227479
81065,174398,35148,227512
81128,174410,35148,227506
81145,174416,35137,227514
81147,174404,35138,227534
81155,174416,35156,227518
81185,174426,35142,227544
81187,174434,35160,227557
81305,174480,35187,227607
81369,174503,35207,227604
81371,174518,35202,227608
81375,174503,35208,227615
81539,174583,35221,227691
81575,174611,35202,227708
81584,174605,35210,227704
81594,174616,35203,227693
81604,174622,35216,227665
81614,174641,35208,227693
81625,174652,35198,227700
81635,174653,35213,227715
81666,174687,35224,227708
81684,174699,35220,227689
81686,174683,35216,227681
81694,174685,35213,227680
81705,174714,35230,227690
81714,174710,35237,227700
81724,174710,35232,227683
81787,174741,35243,227669
81789,174767,35243,227664
81794,174749,35252,227624
81825,174761,35252,227628
81828,174761,35261,227624
81834,174777,35255,227599
81864,174761,35271,227553
81886,174750,35282,227392
81894,174753,35309,227340
81904,174739,35318,227277
82025,174736,35361,227002
82027,174745,35363,227038
82034,174776,35354,227003
82044,174741,35373,227043
82054,174771,35365,227051
82064,174763,35373,227030
83131,175405,35330,227556
83146,175388,35330,227599
83153,175402,35327,227642
83164,175391,35338,227636
83172,175399,35324,227654
83184,175406,35334,227668
83193,175399,35344,227678
83203,175410,35319,227714
83334,175153,35339,227241
83374,175067,35398,226788
83383,175036,35406,226741
83406,175012,35398,226802
83413,175015,35403,226811
83423,175004,35408,226840
83432,175032,35396,226886
83443,175064,35401,226931
83453,175068,35388,226999
83462,175068,35384,227070
83473,175085,35376,227123
83483,175093,35378,227180
83533,175107,35360,227246
83544,175095,35369,227210
83552,175107,35372,227213
83562,175098,35369,227187
83584,175123,35367,227191
83649,175169,35366,227335
83733,175283,35330,227675
83809,175338,35314,227837
83869,175343,35315,227831
83928,175337,35309,227837
83932,175329,35317,227843
83944,175358,35317,227808
83952,175328,35308,227838
83962,175319,35308,227820
84011,175301,35306,227857
84022,175335,35300,227820
84032,175329,35306,227830
84198,175334,35309,227909
84249,175385,35306,228014
84251,175389,35301,228012
84262,175370,35298,227972
84352,175398,35283,228081
84362,175385,35313,228040
84593,175416,35279,228144
84648,175431,35262,228201
84652,175455,35263,228219
84662,175443,35254,228254
84782,175487,35234,228388
84871,175570,35188,228676
84929,175624,35147,228874
84931,175608,35129,228942
84941,175598,35112,228999
84951,175597,35106,229053
84960,175556,35088,229095
84971,175536,35069,229103
84981,175485,35050,229091
84991,175471,35056,229073
85000,175427,35043,229066
85011,175409,35020,229046
85021,175324,35004,229003
85031,175277,34975,228958
85041,175214,34957,228977
85051,175114,34929,228994
85061,175057,34940,228960
85071,174969,34918,228903
85081,174904,34892,228854
85091,174868,34847,228832
85101,174812,34843,228780
85111,174748,34806,228749
85122,174672,34789,228729
85130,174637,34770,228704
85141,174609,34733,228709
85151,174565,34743,228743
85162,174512,34708,228773
85171,174464,34691,228720
85181,174372,34672,228655
85191,174267,34648,228575
85201,174186,34653,228501
85211,174111,34618,228436
85221,173975,34610,228313
85231,173885,34610,228252
85241,173840,34614,228229
85250,173805,34610,228251
85261,173822,34622,228293
85271,173816,34646,228319
85281,173748,34688,228250
85291,173715,34699,228254
85301,173680,34707,228255
85311,173664,34708,228289
85321,173653,34703,228311
85331,173657,34699,228333
85340,173628,34678,228339
85351,173618,34673,228337
85361,173546,34664,228326
85371,173533,34658,228332
85380,173504,34637,228312
85391,173452,34640,228291
85401,173434,34629,228293
85411,173396,34638,228321
85420,173532,34660,228560
85431,173801,34703,228858
85441,173919,34693,229088
85451,173993,34728,229198
85460,174067,34739,229209
85471,174074,34735,229144
85481,174067,34734,229161
85491,174107,34730,229257
85500,174154,34729,229355
85525,174162,34711,229410
85531,174166,34721,229421
85541,174175,34710,229451
85550,174205,34706,229490
85565,174228,34705,229571
85571,174278,34708,229663
85581,174316,34718,229769
85590,174391,34717,229912
85600,174493,34743,230072
85625,174742,34784,230480
85631,174893,34817,230676
85641,175027,34819,230849
85651,175122,34855,230999
85661,175219,34853,231075
85670,175287,34858,231143
85680,175306,34858,231173
85691,175332,34858,231211
85701,175371,34856,231251
85710,175366,34856,231318
85720,175423,34828,231388
85731,175470,34822,231468
85741,175490,34852,231547
85750,175557,34842,231634
85760,175618,34845,231737
85770,175680,34825,231796
85780,175742,34832,231840
85791,175768,34834,231875
85804,175806,34841,231898
85825,175883,34826,231951
85831,175885,34847,231971
85840,175929,34834,231993
85850,175944,34827,232002
85861,175982,34822,232011
85871,175995,34837,232005
85880,176002,34838,232024
85890,175994,34826,232013
85926,176050,34789,232046
85945,176111,34749,232038
85950,176099,34739,232055
85960,176121,34731,232041
85970,176135,34709,232046
85980,176145,34701,232028
85991,176145,34676,232040
86000,176165,34645,232015
86010,176164,34642,232049
86021,176177,34635,232022
86031,176188,34619,232026
86041,176179,34606,232020
86050,176167,34610,232041
86064,176203,34608,232013
86070,176197,34596,232055
86081,176170,34586,232035
86090,176210,34572,232045
86100,176203,34558,232039
86110,176212,34559,232036
86121,176222,34561,232053
86130,176225,34564,232041
86140,176225,34565,232022
86150,176213,34557,232019
86160,176225,34543,232059
86170,176233,34533,232041
86180,176228,34537,232047
86190,176242,34544,232064
86200,176224,34553,232066
86209,176244,34535,232055
86224,176262,34506,232067
86230,176273,34514,232068
86244,176249,34498,232056
86250,176262,34499,232049
86259,176245,34505,232044
86285,176257,34491,232061
86305,176273,34484,232050
86310,176263,34469,232059
86320,176273,34470,232050
86330,176273,34466,232055
86339,176274,34451,232050
86350,176248,34450,232026
86360,176279,34457,232029
86370,176260,34466,232054
86380,176270,34451,232048
86390,176268,34439,232038
86400,176279,34456,232036
86411,176264,34440,232044
86420,176277,34446,232061
86430,176270,34426,232060
86488,176280,34422,232046
86490,176268,34412,232047
86500,176282,34412,232025
86510,176271,34402,232046
86520,176287,34397,232051
86530,176270,34392,232042
86566,176274,34387,232043
86585,176280,34370,232055
86589,176278,34368,232059
86600,176286,34369,232050
86610,176271,34365,232048
86620,176288,34359,232043
86629,176282,34357,232036
86639,176265,34364,232037
86649,176252,34360,232057
86660,176262,34341,232047
86669,176267,34356,232006
86679,176239,34341,232028
86690,176272,34348,232031
86700,176265,34332,232021
86709,176285,34331,232039
86719,176282,34342,232043
86729,176291,34315,231999
86739,176271,34329,232037
86750,176281,34302,232014
86760,176269,34308,232001
86769,176270,34311,232018
86779,176279,34311,232023
86790,176242,34293,232022
86799,176274,34287,232027
86809,176274,34283,232031
86820,176276,34271,232008
86830,176269,34279,232014
86839,176252,34285,232011
86850,176252,34261,232029
86864,176264,34262,232039
86869,176263,34249,232027
86879,176261,34257,232005
86889,176264,34260,232016
86900,176249,34247,232023
86910,176262,34240,232001
86923,176244,34241,232025
86929,176246,34232,232013
86940,176255,34221,231992
86949,176247,34222,232016
86958,176269,34213,232016
86969,176249,34209,232008
86980,176257,34203,232021
86990,176262,34206,231973
87000,176250,34208,232020
87009,176253,34190,232001
87019,176258,34185,232004
87030,176249,34194,232013
87040,176247,34182,232019
87049,176254,34176,232014
87059,176258,34177,231998
87069,176239,34175,232017
87080,176242,34154,232017
87105,176250,34164,232000
87109,176237,34158,232015
87119,176281,34158,231981
87129,176242,34149,232003
87139,176221,34159,231980
87149,176222,34139,231987
87159,176260,34131,231993
87169,176246,34144,231997
87179,176235,34136,231991
87189,176250,34125,232005
87199,176228,34121,231964
87208,176204,34120,231984
87219,176237,34121,231965
87229,176257,34120,231968
87239,176224,34110,231978
87250,176229,34105,231978
87259,176231,34114,231962
87269,176220,34116,231987
87279,176232,34101,231951
87290,176189,34112,231982
87299,176217,34080,231970
87309,176221,34085,231971
87319,176234,34073,231964
87329,176231,34092,231964
87338,176215,34087,231953
87349,176208,34067,231970
87359,176217,34062,231986
87369,176239,34059,231953
87379,176208,34075,231952
87388,176219,34079,231953
87399,176202,34052,231959
87409,176224,34066,231923
87419,176219,34052,231946
87429,176207,34048,231928
87439,176205,34052,231945
87449,176227,34047,231944
87458,176208,34052,231953
87485,176208,34042,231938
87489,176212,34023,231958
87499,176172,34038,231912
87509,176177,34040,231939
87519,176193,34022,231900
87529,176196,34043,231922
87539,176190,34026,231935
87549,176201,34022,231911
87559,176188,34016,231929
87569,176186,34007,231897
87579,176205,34009,231927
87588,176210,33992,231901
87598,176183,33999,231916
87609,176200,33991,231907
87619,176184,33986,231905
87628,176182,33984,231891
87638,176171,33978,231899
87649,176175,33981,231899
87664,176181,33967,231886
87668,176178,33957,231900
87679,176186,33970,231894
87689,176194,33948,231881
87699,176186,33963,231883
87708,176203,33942,231878
87718,176189,33949,231867
87728,176160,33947,231881
87738,176170,33924,231882
87749,176189,33940,231859
87764,176172,33926,231883
87768,176196,33921,231892
87784,176203,33919,231882
87789,176173,33910,231889
87799,176193,33904,231877
87809,176184,33913,231871
87819,176166,33908,231862
87829,176145,33903,231881
87838,176171,33894,231852
87848,176173,33894,231841
87858,176170,33870,231861
87868,176136,33887,231832
87884,176171,33866,231852
87905,176210,33874,231872
87908,176160,33878,231871
87917,176155,33874,231840
87928,176167,33857,231855
87939,176163,33855,231862
87949,176164,33866,231835
87958,176154,33848,231840
87968,176138,33848,231856
87978,176135,33845,231851
87989,176151,33850,231827
87999,176145,33841,231855
88008,176151,33841,231834
88018,176133,33829,231847
88028,176155,33809,231839
88039,176139,33824,231838
88047,176139,33818,231831
88058,176160,33813,231827
88069,176144,33823,231814
88079,176138,33823,231820
88088,176147,33805,231812
88098,176156,33807,231827
88108,176137,33796,231823
88118,176151,33804,231815
88127,176117,33803,231810
88138,176150,33779,231835
88189,176137,33770,231834
88198,176103,33789,231793
88208,176125,33782,231827
88218,176120,33769,231812
88228,176128,33768,231817
88238,176123,33770,231815
88248,176113,33758,231820
88258,176116,33755,231800
88268,176135,33781,231797
88278,176117,33761,231827
88288,176120,33745,231807
88304,176113,33747,231796
88308,176109,33737,231795
88318,176097,33758,231810
88328,176105,33738,231788
88344,176114,33739,231791
88348,176113,33720,231794
88358,176088,33733,231789
88369,176105,33726,231769
88378,176105,33719,231759
88388,176111,33721,231790
88398,176116,33721,231788
88408,176109,33710,231765
88417,176117,33695,231777
88427,176101,33705,231785
88444,176094,33710,231787
88449,176118,33701,231775
88458,176067,33681,231766
88468,176097,33690,231773
88505,176098,33673,231767
88508,176100,33682,231765
88524,176052,33720,231739
88527,176088,33668,231766
88538,176078,33652,231729
88547,176075,33650,231734
88565,176084,33645,231755
88568,176101,33648,231762
88583,176088,33653,231774
88605,176068,33630,231747
88607,176087,33641,231736
88618,176056,33622,231681
88627,176077,33637,231741
88638,176085,33626,231736
88648,176090,33625,231696
88658,176068,33623,231720
88667,176081,33594,231707
88677,176084,33610,231726
88688,176073,33608,231731
88698,176074,33610,231725
88708,176062,33602,231728
88717,176063,33604,231701
88728,176051,33593,231716
88738,176066,33589,231720
88748,176071,33576,231708
88757,176071,33575,231714
88768,176068,33580,231705
88778,176073,33557,231707
88788,176063,33579,231701
88797,176059,33566,231704
88807,176062,33555,231723
88817,176057,33556,231705
88827,176056,33559,231704
88837,176052,33557,231703
88847,176050,33549,231689
88858,176047,33540,231708
88868,176043,33546,231706
88877,176044,33562,231718
88887,176042,33537,231708
88897,176032,33527,231707
88908,176071,33543,231708
88917,176041,33532,231709
88945,176044,33510,231710
88948,176025,33516,231713
88958,176052,33518,231700
88967,176023,33515,231708
88977,176048,33516,231687
88988,176030,33495,231691
88998,176028,33498,231656
89007,176027,33508,231700
89017,176026,33512,231677
89028,176031,33500,231692
89038,176017,33484,231671
89047,176016,33495,231682
89057,176025,33488,231679
89084,176024,33476,231703
89087,176017,33469,231682
89104,176007,33483,231679
89107,176020,33468,231675
89117,176048,33476,231677
89127,176016,33478,231676
89137,176003,33476,231680
89147,176015,33480,231666
89157,176024,33478,231674
89167,176019,33453,231673
89177,176025,33467,231668
89187,176020,33461,231687
89198,175977,33452,231669
89207,176006,33454,231666
89217,176013,33429,231663
89227,175999,33446,231663
89238,176010,33435,231659
89248,175997,33447,231646
89257,175991,33434,231649
89285,176004,33436,231650
89288,176007,33426,231656
89297,176012,33466,231630
89307,176000,33417,231649
89317,175971,33422,231618
89327,175978,33410,231636
89336,175997,33405,231637
89347,175991,33400,231631
89357,175990,33400,231632
89367,175974,33389,231609
89376,175946,33378,231622
89386,175979,33363,231623
89396,176002,33369,231650
89407,175993,33366,231617
89416,175992,33369,231622
89426,175990,33341,231616
89436,175975,33351,231614
89447,175978,33351,231601
89457,175963,33357,231603
89466,175971,33339,231617
89476,175976,33353,231583
89487,175954,33348,231614
89497,175958,33337,231580
89506,175963,33330,231602
89517,175978,33327,231592
89527,175967,33324,231569
89537,175960,33315,231604
89546,175965,33328,231558
89557,175972,33303,231589
89567,175959,33331,231579
89577,175926,33312,231570
89587,175946,33292,231566
89597,175922,33312,231581
89607,175943,33295,231573
89617,175961,33313,231579
89626,175953,33302,231544
89636,175951,33295,231575
89647,175941,33291,231541
89657,175957,33282,231572
89666,175939,33288,231550
89676,175946,33283,231570
89687,175952,33275,231558
89697,175938,33276,231546
89707,175929,33273,231536
89717,175916,33273,231554
89727,175942,33269,231554
89737,175921,33266,231525
89765,175935,33263,231557
89768,175920,33252,231560
89777,175903,33264,231529
89787,175920,33267,231549
89796,175926,33244,231529
89806,175905,33243,231538
89817,175919,33249,231549
89827,175919,33244,231544
89866,175926,33235,231539
89869,175916,33240,231539
89876,175904,33221,231489
89886,175897,33227,231523
89897,175892,33212,231516
89907,175911,33221,231490
89916,175910,33222,231483
89926,175878,33223,231508
89936,175894,33207,231475
89947,175871,33218,231496
89957,175878,33215,231476
89966,175888,33217,231502
89976,175876,33211,231492
89987,175879,33200,231503
89997,175883,33204,231491
90006,175884,33200,231492
90016,175898,33188,231488
90026,175884,33190,231477
90036,175888,33200,231495
90065,175890,33184,231499
90067,175889,33171,231482
90076,175875,33200,231460
90086,175893,33196,231458
90096,175886,33192,231483
90106,175884,33174,231470
90116,175888,33170,231458
90126,175895,33186,231448
90136,175873,33170,231456
90146,175867,33180,231462
90156,175871,33166,231481
90166,175884,33144,231458
90176,175868,33159,231443
90186,175857,33172,231465
90197,175867,33140,231432
90225,175870,33144,231453
90245,175873,33154,231438
90248,175862,33146,231432
90307,175850,33137,231413
90325,175858,33126,231413
90328,175859,33118,231439
90336,175853,33123,231424
90346,175841,33113,231390
90386,175855,33103,231412
90388,175852,33101,231399
90396,175852,33080,231384
90406,175865,33089,231391
90416,175842,33106,231384
90426,175834,33093,231401
90436,175829,33105,231377
90446,175840,33088,231383
90457,175848,33084,231386
90465,175850,33082,231371
90476,175846,33073,231372
90486,175839,33083,231346
90496,175857,33073,231354
90548,175837,33070,231369
90555,175810,33044,231361
90566,175818,33070,231349
90576,175838,33063,231347
90585,175832,33055,231365
90596,175834,33055,231349
90606,175831,33050,231345
90616,175822,33056,231346
90625,175816,33043,231351
90636,175818,33033,231331
90646,175824,33050,231329
90656,175821,33053,231343
90666,175828,33040,231334
90675,175812,33056,231351
90685,175809,33032,231339
90696,175826,33038,231343
90706,175830,33043,231343
90716,175830,33025,231357
90725,175807,33039,231344
90736,175808,33024,231337
90746,175798,33037,231328
90755,175804,33015,231317
90765,175797,33031,231311
90776,175815,33030,231345
90786,175817,33023,231328
90795,175816,33015,231341
90805,175820,33025,231331
90815,175807,33009,231334
90825,175812,33022,231290
90835,175809,33024,231343
90865,175799,33010,231316
90868,175820,33017,231327
90875,175808,32987,231305
90885,175810,33010,231335
90895,175802,32998,231313
90905,175804,33015,231323
90916,175821,33003,231292
90925,175817,33005,231312
90936,175804,33008,231301
90945,175816,32997,231327
90956,175814,32999,231301
90965,175802,33009,231309
90975,175815,32996,231306
90985,175799,33002,231294
90996,175812,32970,231303
91005,175808,32991,231282
91015,175824,32984,231312
91025,175792,32986,231258
91036,175796,32980,231276
91045,175805,32993,231285
91055,175810,32989,231289
91065,175803,32981,231293
91075,175783,32976,231274
91085,175798,32970,231264
91095,175788,32975,231297
91105,175795,32979,231272
91116,175803,32960,231282
91145,175794,32968,231253
91165,175789,32971,231270
91167,175781,32969,231264
91175,175789,32951,231255
91185,175790,32941,231257
91196,175785,32954,231263
91206,175770,32934,231255
91215,175789,32935,231241
91225,175774,32935,231231
91235,175779,32933,231192
91246,175784,32941,231227
91255,175778,32936,231233
91265,175788,32941,231218
91275,175777,32933,231257
91286,175776,32941,231228
91295,175782,32926,231229
91305,175764,32917,231238
91315,175790,32943,231216
91326,175792,32908,231229
91335,175797,32921,231230
91345,175774,32918,231232
91355,175783,32924,231232
91365,175782,32899,231226
91375,175806,32915,231221
91385,175795,32902,231211
91395,175787,32908,231212
91405,175768,32906,231200
91415,175781,32912,231205
91425,175791,32904,231198
91435,175787,32897,231200
91445,175795,32889,231192
91455,175785,32893,231193
91464,175781,32890,231205
91474,175791,32897,231215
91485,175799,32875,231197
91495,175789,32881,231208
91505,175792,32891,231189
91515,175767,32882,231213
91525,175798,32883,231177
91535,175784,32888,231190
91544,175774,32889,231171
91555,175771,32848,231186
91565,175781,32870,231154
91575,175777,32897,231197
91584,175780,32877,231167
91595,175770,32863,231188
91605,175778,32871,231189
91615,175791,32863,231175
91625,175790,32873,231181
91634,175787,32870,231179
91644,175772,32865,231188
91654,175780,32871,231175
91665,175783,32856,231161
91675,175768,32877,231158
91684,175783,32867,231179
91695,175777,32855,231187
91705,175778,32853,231166
91714,175772,32867,231179
91725,175755,32843,231180
91735,175781,32847,231163
91745,175761,32843,231191
91754,175782,32856,231169
91764,175769,32834,231154
91774,175782,32849,231151
91785,175771,32841,231185
91795,175779,32841,231172
91805,175778,32846,231154
91814,175770,32843,231150
91825,175785,32825,231151
91834,175763,32822,231126
91845,175775,32833,231149
91855,175764,32837,231144
91865,175761,32842,231140
91875,175768,32838,231148
91884,175778,32825,231138
91894,175752,32817,231155
91905,175763,32801,231150
91968,175756,32804,231109
91974,175763,32784,231117
91985,175746,32804,231112
91995,175745,32809,231116
92004,175753,32802,231105
92014,175744,32787,231114
92025,175734,32794,231089
92035,175742,32797,231092
92044,175726,32778,231098
92054,175753,32783,231058
92086,175743,32782,231101
92105,175745,32778,231087
92114,175738,32740,231081
92125,175733,32758,231080
92134,175730,32750,231086
92144,175732,32761,231070
92154,175741,32749,231067
92164,175720,32774,231084
92174,175756,32764,231073
92184,175736,32753,231044
92194,175751,32740,231062
92204,175733,32755,231063
92213,175742,32742,231065
92224,175713,32739,231068
92274,175734,32731,231062
92285,175714,32742,231064
92294,175740,32743,231057
92304,175746,32733,231059
92314,175727,32735,231050
92346,175737,32723,231045
92354,175717,32721,231035
92365,175711,32738,231039
92375,175734,32721,231040
92384,175720,32720,231048
92394,175733,32724,231048
92404,175720,32737,231047
92468,175701,32713,231059
92474,175723,32719,231054
92484,175721,32715,231045
92574,175684,32699,231019
92607,175710,32701,231037
92614,175715,32700,231023
92624,175691,32706,231014
92633,175699,32697,231031
92644,175709,32699,231037
92654,175703,32705,231026
92665,175700,32681,231017
92674,175701,32702,231001
92684,175700,32707,231013
92694,175723,32703,231007
92704,175701,32670,231002
92713,175688,32683,231005
92723,175713,32690,231026
92733,175725,32679,231014
92744,175693,32675,231024
92753,175711,32665,230990
92764,175697,32666,231026
92774,175703,32680,230979
92785,175674,32682,231024
92793,175705,32671,231019
92804,175708,32648,231009
92814,175691,32660,230979
92824,175703,32662,231001
92833,175688,32653,230990
92844,175691,32659,231018
92854,175701,32640,231005
92864,175688,32644,230996
92885,175692,32646,230986
92894,175680,32649,230982
92904,175691,32639,230949
92914,175668,32649,230990
92924,175696,32639,230959
92945,175682,32632,230975
92954,175670,32625,230977
92963,175682,32622,230959
92973,175662,32620,230968
92985,175666,32631,230967
92994,175683,32619,230954
93003,175674,32622,230948
93013,175675,32615,230952
93024,175677,32628,230956
93034,175670,32624,230961
93043,175664,32614,230936
93053,175669,32621,230933
93063,175676,32609,230927
93073,175664,32634,230949
93084,175655,32617,230945
93093,175665,32614,230929
93104,175649,32617,230931
93113,175670,32600,230940
93124,175678,32599,230929
93133,175666,32605,230928
93144,175655,32611,230931
93154,175656,32599,230922
93164,175659,32584,230933
93173,175664,32618,230925
93183,175675,32595,230924
93193,175657,32595,230928
93205,175664,32599,230922
93213,175667,32595,230933
93223,175656,32597,230900
93233,175658,32584,230931
93244,175660,32597,230905
93253,175658,32594,230913
93263,175666,32602,230917
93274,175667,32593,230916
93284,175675,32586,230918
93293,175661,32593,230924
93303,175653,32599,230924
93313,175660,32598,230916
93324,175656,32587,230895
93333,175675,32572,230920
93343,175661,32577,230899
93353,175637,32585,230907
93365,175666,32578,230890
93385,175657,32586,230901
93393,175670,32568,230921
93403,175643,32579,230911
93413,175670,32576,230873
93422,175662,32580,230888
93433,175644,32576,230915
93444,175647,32564,230890
93453,175653,32578,230879
93463,175662,32554,230879
93473,175658,32567,230876
93484,175667,32557,230868
93494,175634,32582,230877
93503,175657,32556,230889
93513,175663,32575,230890
93523,175656,32573,230895
93533,175650,32558,230891
93543,175641,32561,230882
93553,175656,32553,230862
93563,175649,32565,230891
93573,175653,32557,230870
93607,175648,32554,230908
93613,175645,32552,230895
93623,175667,32563,230882
93632,175619,32559,230882
93643,175654,32541,230864
93653,175632,32554,230848
93664,175652,32561,230855
93673,175651,32557,230858
93683,175650,32557,230868
93693,175646,32554,230872
93703,175626,32538,230850
93712,175644,32540,230815
93723,175630,32545,230861
93733,175641,32542,230845
93789,175641,32532,230849
93792,175625,32531,230845
93802,175673,32531,230836
93813,175627,32512,230841
93823,175617,32512,230817
93833,175632,32510,230841
93842,175633,32511,230817
93852,175620,32501,230836
93862,175609,32509,230820
93873,175622,32492,230807
93882,175629,32506,230820
93893,175619,32505,230810
93903,175625,32505,230799
93913,175631,32507,230812
93922,175610,32505,230810
93932,175619,32506,230806
93942,175598,32498,230810
93952,175620,32496,230804
93964,175617,32488,230797
93972,175620,32514,230806
93983,175606,32495,230795
94005,175623,32487,230797
94012,175614,32493,230791
94023,175593,32493,230780
94033,175607,32485,230780
94042,175611,32498,230777
94065,175621,32481,230778
94072,175607,32482,230785
94083,175600,32460,230775
94092,175599,32486,230783
94103,175601,32486,230747
94113,175580,32478,230771
94123,175601,32492,230785
94132,175596,32463,230769
94142,175584,32481,230766
94152,175621,32472,230733
94163,175585,32478,230766
94185,175600,32470,230767
94192,175606,32468,230767
94203,175580,32472,230776
94212,175596,32462,230754
94222,175607,32462,230765
94232,175576,32460,230761
94243,175599,32458,230758
94252,175605,32467,230750
94262,175589,32460,230751
94272,175590,32463,230729
94283,175575,32453,230767
94292,175576,32475,230741
94302,175601,32471,230739
94312,175598,32446,230753
94322,175575,32454,230733
94333,175587,32460,230739
94342,175578,32474,230706
94353,175560,32467,230720
94364,175565,32460,230683
94373,175556,32458,230680
94384,175557,32458,230652
94392,175541,32458,230641
94402,175540,32455,230645
94412,175546,32451,230641
94421,175539,32454,230647
94432,175552,32456,230651
94442,175543,32449,230639
94453,175550,32452,230652
94486,175531,32452,230683
94492,175533,32438,230660
94501,175552,32442,230647
94512,175556,32449,230678
94522,175558,32457,230648
94532,175537,32459,230664
94541,175552,32449,230684
94591,175545,32446,230700
94601,175578,32437,230702
94613,175557,32446,230698
94623,175564,32441,230696
94632,175556,32439,230720
94642,175558,32445,230682
94652,175563,32428,230694
94662,175573,32447,230692
94671,175547,32437,230692
94682,175547,32441,230690
94692,175572,32444,230680
94704,175567,32432,230708
94725,175551,32432,230705
94732,175559,32432,230699
94742,175562,32422,230685
94752,175547,32415,230691
94762,175549,32420,230677
94772,175551,32406,230672
94782,175567,32409,230645
94791,175529,32414,230631
94801,175536,32415,230627
94812,175528,32399,230624
94822,175522,32400,230592
94833,175517,32393,230604
94844,175526,32394,230603
94852,175528,32390,230613
94862,175506,32388,230580
94872,175511,32386,230597
94881,175514,32384,230600
94891,175518,32389,230596
94901,175527,32393,230594
94912,175516,32388,230615
94921,175513,32399,230598
94971,175524,32365,230666
94981,175506,32336,230653
94992,175474,32325,230611
95001,175444,32315,230557
95011,175404,32311,230508
95021,175381,32288,230475
95032,175358,32273,230377
95041,175291,32256,230308
95051,175289,32242,230238
95062,175238,32233,230165
95072,175218,32244,230073
95082,175161,32234,230004
95091,175140,32228,229984
95101,175126,32234,229939
95112,175117,32207,229925
95122,175051,32221,229866
95131,175036,32212,229836
95141,175014,32210,229777
95165,174949,32202,229688
95171,174916,32192,229664
95181,174889,32203,229638
95192,174884,32202,229576
95202,174833,32202,229533
95211,174836,32199,229500
95221,174823,32205,229442
95231,174823,32198,229439
95241,174800,32212,229391
95251,174811,32223,229373
95261,174794,32227,229346
95271,174822,32221,229329
95282,174807,32247,229325
95291,174828,32241,229290
95301,174830,32259,229293
95311,174826,32247,229259
95324,174854,32270,229279
95332,174846,32272,229264
95341,174864,32271,229246
95351,174863,32263,229250
95361,174886,32272,229245
95371,174893,32285,229227
95380,174888,32289,229211
95391,174886,32277,229233
95401,174911,32298,229224
95411,174906,32297,229258
95420,174928,32295,229247
95431,174928,32299,229269
95441,174925,32305,229280
95451,174952,32276,229311
95461,174938,32312,229325
95471,174957,32309,229312
95481,174966,32304,229304
95492,174956,32304,229319
95501,174961,32314,229350
95511,174979,32308,229375
95521,174975,32298,229400
95531,174989,32312,229403
95541,174964,32307,229421
95551,174975,32316,229418
95561,174982,32305,229415
95571,174972,32306,229415
95582,174974,32306,229438
95591,174992,32300,229439
95601,174987,32307,229447
95611,174997,32313,229415
95621,174995,32308,229437
95631,175008,32297,229427
95641,174993,32324,229421
95651,175017,32334,229426
95662,174996,32337,229446
95671,175022,32305,229451
95681,175016,32327,229457
95691,175030,32322,229446
95705,175010,32305,229438
95710,175032,32315,229447
95720,175014,32319,229429
95731,175004,32319,229455
95741,174988,32321,229423
95751,174999,32310,229453
95761,175012,32312,229484
95771,175024,32305,229497
95784,175017,32293,229512
95791,175037,32292,229529
95801,175026,32293,229553
95811,175028,32270,229616
95821,175022,32280,229630
95832,175042,32291,229680
95841,175043,32282,229664
95850,175037,32292,229649
95861,175038,32281,229617
95872,175025,32296,229582
95881,175041,32306,229589
