timestamp,ch1,ch2,ch3
653328357933557375,52542,-31657,11845
653328357940996848,52550,-31632,11830
653328357948436321,52626,-31596,11985
653328357955875794,52623,-31554,12009
653328357963315267,52601,-31514,11998
653328357970754740,52651,-31494,12007
653328357978194213,52714,-30521,12886
653328357985633686,52662,-31171,12160
653328357993073159,52555,-31446,11892
653328358000512632,52665,-31444,11889
653328358007952105,53612,-30668,12923
653328358015391578,52994,-31187,12402
653328358022831051,52763,-31392,12306
653328358030270524,52644,-31507,12221
653328358037709997,52931,-31508,12223
653328358045149470,52752,-31622,12362
653328358052588943,52689,-31581,12414
653328358060028416,52497,-31606,12529
653328358067524955,52724,-31442,12941
653328358074961072,52559,-31464,12911
653328358082397189,52582,-31495,13037
653328358089833306,52562,-31481,13257
653328358097269423,52540,-31481,13179
653328358104705540,52549,-31512,13380
653328358112141657,52497,-31485,13561
653328358119577774,52635,-31412,13613
653328358127013891,52655,-31313,13993
653328358134450008,52692,-31399,13992
653328358141886125,52770,-31403,14057
653328358149322242,52815,-31319,14119
653328358156758359,52935,-31319,14292
653328358164194476,52844,-31455,14199
653328358171630593,52815,-31507,14147
653328358179066710,52896,-31548,14144
653328358186502827,52897,-31702,14035
653328358193938944,52956,-31717,13915
653328358201346048,52801,-32083,13548
653328358208783872,52800,-31883,13469
653328358216221696,52798,-31998,13321
653328358223659520,52709,-32138,13162
653328358231097344,52685,-32081,12990
653328358238535168,52583,-32209,12887
653328358245972992,52460,-32196,12827
653328358253410816,52306,-32334,12624
653328358260848640,52322,-32350,12759
653328358268286464,52197,-32377,12757
653328358275724288,52079,-32428,12756
653328358283162112,51910,-32479,12779
653328358290599936,51839,-32360,12905
653328358298037760,51750,-31536,13179
653328358305475584,51637,-32008,13007
653328358312913408,51552,-32270,12963
653328358320351232,51333,-32534,12876
653328358327789056,52385,-31518,13831
653328358335255899,51829,-31907,13101
653328358342692016,51297,-32241,12724
653328358350128133,51081,-32354,12766
653328358357564250,51864,-31633,13374
653328358365000367,51230,-32119,13097
653328358372436484,50743,-32390,12927
653328358379872601,50598,-32495,12823
653328358387308718,50455,-32451,13032
653328358394744835,50344,-32460,13065
653328358402180952,50300,-32467,13202
653328358409617069,50324,-32376,13314
653328358417053186,50369,-32343,13443
653328358424489303,50389,-32196,13532
653328358431925420,50393,-32168,13643
653328358439361537,50569,-32180,13840
653328358446797654,50711,-32140,13912
653328358454233771,50732,-32117,13882
653328358461669888,50910,-32043,14104
653328358469135030,50810,-31918,14426
653328358476569440,50956,-32040,14357
653328358484003850,50986,-31997,14430
653328358491438260,51172,-32078,14243
653328358498872670,51240,-32118,14214
653328358506307080,51292,-32251,14107
653328358513741490,51489,-32230,13933
653328358521175900,51568,-32290,13626
653328358528610310,51545,-32343,13483
653328358536044720,51671,-32286,13349
653328358543479130,51583,-32368,13026
653328358550913540,51619,-32470,12740
653328358558347950,51603,-32681,12356
653328358565782360,51636,-32650,12156
653328358573216770,51617,-32652,11953
653328358580651180,51670,-32817,11704
653328358588085590,51610,-32878,11522
6.53328E+17,51684,-32818,11457
653328358602867382,51653,-33105,11385
653328358610306912,51641,-32960,11199
653328358617746442,51618,-32758,11272
653328358625185972,51556,-32876,11308
653328358632625502,51559,-32862,11342
653328358640065032,51512,-32906,11429
653328358647504562,52358,-31872,12430
653328358654944092,51844,-32528,11831
653328358662383622,51677,-32780,11678
653328358669823152,51552,-32946,11620
653328358677262682,52509,-33010,12594
653328358684702212,51739,-33144,11998
653328358692141742,51429,-33130,11863
653328358699581272,51266,-33192,11569
653328358707020802,51290,-33055,11589
653328358714460332,51219,-33150,11563
653328358721899862,51243,-33077,11522
653328358729339392,51256,-33144,11505
653328358736894976,51096,-33214,11387
653328358744327680,51144,-33207,11403
653328358751760384,51063,-33187,11474
653328358759193088,51140,-33083,11456
653328358766625792,51137,-33191,11435
653328358774058496,51191,-33224,11402
653328358781491200,51217,-33172,11458
653328358788923904,51241,-33232,11424
653328358796356608,51294,-33266,11322
653328358803789312,51303,-33311,11097
653328358811222016,51250,-33276,11080
653328358818654720,51139,-33341,11016
653328358826087424,51236,-33305,10896
653328358833520128,51344,-33440,10780
653328358840952832,51199,-33447,10692
653328358848385536,51180,-33453,10675
653328358855818240,51259,-33475,10554
653328358863250944,51157,-33432,10482
653328358870567606,51540,-33562,10610
653328358878007136,51344,-33389,10564
653328358885446666,51371,-33472,10420
653328358892886196,51419,-33399,10506
653328358900325726,51354,-33252,10624
653328358907765256,51554,-33202,10681
653328358915204786,51528,-33207,10622
653328358922644316,51529,-33174,10659
653328358930083846,51560,-33146,10621
653328358937523376,51515,-33221,10749
653328358944962906,51523,-33091,10732
653328358952402436,51569,-33028,10802
653328358959841966,51642,-33090,10625
653328358967281496,51530,-32253,11805
653328358974721026,51554,-32785,11194
653328358982160556,51560,-33074,10983
653328358989600086,51366,-33196,10971
653328358997039616,52472,-32336,11813
653328359004537179,51821,-33123,11188
653328359011973296,51642,-33185,11105
653328359019409413,51498,-33350,11034
653328359026845530,52047,-33432,10930
653328359034281647,51701,-33528,10967
653328359041717764,51463,-33460,11108
653328359049153881,51410,-33466,11065
653328359056589998,51297,-33416,10945
653328359064026115,51304,-33331,11073
653328359071462232,51263,-33565,11075
653328359078898349,51244,-33411,11255
653328359086334466,51317,-33350,11270
653328359093770583,51245,-33479,11348
653328359101206700,51161,-33451,11187
653328359108642817,51255,-33362,11340
653328359116078934,51194,-33467,11424
653328359123515051,51178,-33326,11537
653328359130951168,51062,-33488,11604
653328359138387291,50902,-33435,11641
653328359145823408,51196,-33368,11903
653328359153259525,51156,-33390,11919
653328359160695642,51217,-33261,12073
653328359168131759,51246,-33269,12121
653328359175567876,51194,-33251,11992
653328359183003993,51125,-33332,12026
653328359190440110,51247,-33435,12160
653328359197876227,51249,-33369,12216
653328359205312344,51061,-33409,12286
653328359212748461,51011,-33541,12334
653328359220184578,50824,-33468,12337
653328359227620695,50813,-33502,12483
653328359235056812,50757,-33406,12486
653328359242492929,50652,-33543,12536
653328359249929046,50600,-33664,12461
653328359257365163,50406,-33675,12641
653328359264801280,50427,-33662,12655
653328359272208384,50220,-33658,12883
653328359279646208,50259,-33629,12954
653328359287084032,50266,-32748,13780
653328359294521856,50074,-33419,13275
653328359301959680,50019,-33727,13308
653328359309397504,49877,-33779,13359
653328359316835328,50834,-32906,14341
653328359324273152,50201,-33533,13718
653328359331710976,49807,-33780,13321
653328359339148800,49750,-33886,13187
653328359346586624,50681,-34046,13111
653328359354024448,50125,-34055,13014
653328359361462272,49935,-34132,13033
653328359368900096,49712,-34066,12975
653328359376337920,49670,-34012,13175
653328359383775744,49627,-33890,13144
653328359391213568,49644,-33934,13226
653328359398651392,49664,-33876,13380
653328359406118235,49905,-34100,13432
653328359413554352,49985,-33970,13377
653328359420990469,49778,-33764,13247
653328359428426586,49870,-33738,13325
653328359435862703,49805,-33701,13389
653328359443298820,50014,-33548,13246
653328359450734937,50124,-33535,13145
653328359458171054,50123,-33489,13117
653328359465607171,50302,-33448,13112
653328359473043288,50365,-33518,12894
653328359480479405,50456,-33441,12933
653328359487915522,50530,-33452,12713
653328359495351639,50659,-33430,12581
653328359502787756,50751,-33327,12507
653328359510223873,50861,-33390,12250
653328359517659990,50975,-33337,12158
653328359525096107,50994,-33402,12082
653328359532532224,51005,-33306,12065
653328359539969316,50963,-33262,11833
653328359547405376,51054,-33291,11777
653328359554841436,51163,-33413,11444
653328359562277496,51301,-33433,11105
653328359569713556,51320,-33476,10796
653328359577149616,51371,-33537,10564
653328359584585676,51435,-33621,10141
653328359592021736,51479,-33708,9721
653328359599457796,51427,-33758,9319
653328359606893856,51404,-33887,9200
653328359614329916,51523,-33851,9132
653328359621765976,51549,-33901,8920
653328359629202036,51536,-34012,8943
653328359636638096,52021,-32998,9885
653328359644074156,51704,-33533,9313
653328359651510216,51639,-33771,9067
653328359658946276,51532,-33982,8934
653328359666382336,52580,-33705,9987
653328359673817435,52139,-34198,9721
653328359681253552,51716,-34130,9448
653328359688689669,51509,-34274,9221
653328359696125786,51379,-34208,9441
653328359703561903,51378,-34090,9736
653328359710998020,51272,-34112,9900
653328359718434137,51344,-34099,10045
653328359725870254,51198,-34076,10242
653328359733306371,51291,-34025,10361
653328359740742488,51139,-33975,10558
653328359748178605,51234,-33866,10706
653328359755614722,51381,-33815,10880
653328359763050839,51360,-33873,11068
653328359770486956,51264,-33727,11169
653328359777923073,51370,-33544,11324
653328359785359190,51403,-33588,11484
653328359792795307,51311,-33628,11298
653328359800231424,51519,-33516,11412
653328359807638528,51688,-33617,11696
653328359815076352,51583,-33608,11665
653328359822514176,51736,-33446,11542
6.53328E+17,51820,-33352,11291
653328359837389824,51811,-33344,11307
653328359844827648,51898,-33405,11134
653328359852265472,51894,-33315,11045
653328359859703296,52050,-33265,11036
653328359867141120,52104,-33367,10842
653328359874578944,52307,-33372,10854
653328359882016768,52311,-33388,10690
653328359889454592,52399,-33365,10600
653328359896892416,52428,-33324,10463
653328359904330240,52509,-33364,10399
653328359911768064,52559,-33441,10432
653328359919205888,52505,-33329,10327
653328359926643712,52623,-33378,10294
653328359934081536,52642,-33314,10247
653328359941576429,52663,-33419,10237
653328359949010896,52669,-33247,10484
653328359956445363,52677,-32221,11546
653328359963879830,52753,-32700,11077
653328359971314297,52820,-32935,10834
653328359978748764,52766,-33027,10924
653328359986183231,53768,-32017,11978
653328359993617698,53300,-32545,11604
653328360001052165,53054,-32633,11484
653328360008486632,53016,-32765,11525
653328360015921099,53924,-32822,11599
653328360023355566,53262,-32931,11578
653328360030790033,53044,-32989,11728
653328360038224500,52891,-32840,11930
653328360045658967,52877,-32880,12031
653328360053093434,52889,-32774,12202
653328360060527901,52921,-32767,12334
653328360067962368,52830,-32801,12325
653328360075311743,53039,-32848,12311
653328360082751216,53023,-32880,12344
653328360090190689,52992,-32780,12477
653328360097630162,52954,-32733,12554
653328360105069635,52915,-32753,12641
653328360112509108,52962,-32748,12662
653328360119948581,52999,-32810,12734
653328360127388054,52905,-32773,12675
653328360134827527,53023,-32786,12943
6.53328E+17,53059,-32611,12995
653328360149706473,53153,-32626,13073
653328360157145946,53208,-32537,13219
653328360164585419,53269,-32585,13237
653328360172024892,53318,-32433,13387
653328360179464365,53375,-32373,13445
653328360186903838,53327,-32323,13337
653328360194343311,53372,-32210,13616
653328360201782784,53522,-32145,13726
653328360209307373,53499,-32276,13881
653328360216741840,53505,-32136,13790
653328360224176307,53627,-32158,13839
653328360231610774,53709,-32153,13772
653328360239045241,53632,-32173,13727
653328360246479708,53800,-32040,13692
653328360253914175,53871,-31999,13761
653328360261348642,53873,-32100,13656
653328360268783109,53992,-32175,13492
653328360276217576,53992,-31010,13714
653328360283652043,54084,-31435,13637
653328360291086510,54132,-31650,13663
653328360298520977,54159,-31734,13603
653328360305955444,55236,-30764,14469
653328360313389911,54708,-31406,13980
653328360320824378,54442,-31571,13731
653328360328258845,54565,-31621,13710
653328360335693312,55496,-31637,14185
653328360343042687,54916,-31569,13810
653328360350482160,54615,-31625,13709
653328360357921633,54589,-31900,13604
653328360365361106,54655,-31726,13617
653328360372800579,54520,-31594,13594
653328360380240052,54642,-31515,13668
653328360387679525,54686,-31442,13841
653328360395118998,54725,-31460,13898
653328360402558471,54780,-31474,13759
653328360409997944,54827,-31367,13849
653328360417437417,54800,-31283,13876
653328360424876890,54970,-31239,13972
653328360432316363,54840,-31202,14030
653328360439755836,54982,-31091,14201
653328360447195309,54977,-31109,14269
653328360454634782,55153,-31060,14409
653328360462074255,55171,-31024,14423
653328360469513728,55115,-31013,14438
653328360477011236,55285,-30872,14209
653328360484447296,55357,-30890,14342
653328360491883356,55387,-30882,14499
653328360499319416,55191,-30864,14592
653328360506755476,55330,-30804,14728
653328360514191536,55442,-30655,14718
653328360521627596,55493,-30638,14865
653328360529063656,55566,-30519,14952
653328360536499716,55666,-30500,15118
653328360543935776,55702,-30425,15064
653328360551371836,55694,-30450,15124
653328360558807896,55866,-30330,15103
653328360566243956,55908,-30306,15063
653328360573680016,55875,-30200,15110
653328360581116076,55871,-30242,15119
653328360588552136,55938,-30201,15143
653328360595988196,56013,-30247,15127
653328360603424256,56159,-30115,15264
653328360610829384,56173,-30124,15103
653328360618267264,56272,-29923,15356
653328360625705144,56318,-28966,16342
653328360633143024,56361,-29391,15900
653328360640580904,56365,-29583,15735
653328360648018784,56462,-29743,15651
653328360655456664,57303,-28855,16735
653328360662894544,56746,-29304,16171
653328360670332424,56574,-29441,15959
653328360677770304,56590,-29593,15913
653328360685208184,57148,-29668,15898
653328360692646064,56841,-29729,15771
653328360700083944,56658,-29732,15720
653328360707521824,56476,-29728,15808
653328360714959704,56483,-29705,15841
653328360722397584,56446,-29733,15837
653328360729835464,56498,-29657,15863
653328360737273344,56517,-29647,15966
653328360744742180,56325,-29518,15870
653328360752178240,56346,-29645,15949
653328360759614300,56487,-29626,16029
653328360767050360,56539,-29514,16109
653328360774486420,56572,-29532,16297
653328360781922480,56632,-29534,16406
653328360789358540,56661,-29483,16438
653328360796794600,56704,-29300,16438
653328360804230660,56705,-29361,16497
653328360811666720,56816,-29334,16616
653328360819102780,56899,-29202,16647
653328360826538840,56928,-29150,16604
653328360833974900,56985,-29202,16589
653328360841410960,56848,-29101,16631
653328360848847020,56991,-28966,16710
653328360856283080,57048,-28907,16749
653328360863719140,57143,-28861,16862
653328360871155200,57117,-28894,17025
653328360878560328,57451,-28956,17045
653328360885998208,57369,-28785,17210
653328360893436088,57495,-28716,17236
653328360900873968,57517,-28538,17312
653328360908311848,57521,-28577,17374
653328360915749728,57603,-28452,17519
653328360923187608,57596,-28391,17627
653328360930625488,57812,-28302,17711
653328360938063368,57803,-28164,17838
653328360945501248,57848,-27076,18728
653328360952939128,57925,-27541,18398
653328360960377008,57963,-27801,18400
653328360967814888,57883,-27925,18385
653328360975252768,59004,-26827,19627
653328360982690648,58512,-27287,19141
653328360990128528,58396,-27555,18878
653328360997566408,58291,-27606,18900
653328361005004288,59278,-27724,18909
653328361012473124,58963,-27670,19210
653328361019909184,58696,-27633,19172
653328361027345244,58524,-27590,19117
653328361034781304,58536,-27492,19423
653328361042217364,58419,-27520,19465
653328361049653424,58362,-27473,19584
653328361057089484,58398,-27397,19610
653328361064525544,58552,-27424,19600
653328361071961604,58629,-27350,19781
653328361079397664,58556,-27318,19845
653328361086833724,58601,-27193,20023
653328361094269784,58664,-27240,20071
653328361101705844,58616,-27149,20154
653328361109141904,58744,-27049,20250
653328361116577964,58799,-27082,20261
653328361124014024,58800,-27007,20280
653328361131450084,58850,-26928,20437
653328361138886144,58814,-26887,20466
653328361146291272,58789,-26904,20717
653328361153729152,58907,-26843,20723
653328361161167032,58976,-26794,20837
653328361168604912,59045,-26852,20830
653328361176042792,59077,-26750,20869
653328361183480672,59216,-26625,20970
653328361190918552,59023,-26672,21067
653328361198356432,59059,-26644,21079
653328361205794312,59176,-26697,21119
653328361213232192,59180,-26623,21146
653328361220670072,59180,-26531,21238
653328361228107952,59221,-26548,21189
653328361235545832,59253,-26470,21260
653328361242983712,59272,-26442,21367
653328361250421592,59357,-26439,21415
653328361257859472,59442,-26428,21300
653328361265297352,59446,-25955,21417
653328361272735232,59536,-26119,21466
653328361280204068,59381,-26347,21748
653328361287640128,59510,-26282,21468
653328361295076188,60685,-25253,22520
653328361302512248,60152,-25787,21858
653328361309948308,59833,-25915,21662
653328361317384368,59739,-26038,21672
653328361324820428,60705,-26140,22691
653328361332256488,60081,-26009,22141
653328361339692548,59894,-25997,21976
653328361347128608,59730,-26094,21827
653328361354564668,59560,-26078,21932
653328361362000728,59611,-26054,21802
653328361369436788,59584,-25991,21896
653328361376872848,59467,-26075,21749
653328361384308908,59542,-26021,21797
653328361391744968,59575,-26004,21885
653328361399181028,59563,-25963,21842
653328361406617088,59597,-26038,21703
653328361414080237,59506,-25648,21974
653328361421514704,59604,-25725,21927
653328361428949171,59670,-25811,21865
653328361436383638,59775,-25789,21896
653328361443818105,59676,-25740,21827
653328361451252572,59707,-25837,21772
653328361458687039,59757,-25807,21757
653328361466121506,59782,-25799,21725
653328361473555973,59959,-25769,21818
653328361480990440,59955,-25687,21718
653328361488424907,60005,-25731,21677
653328361495859374,59919,-25799,21664
653328361503293841,60002,-25774,21667
653328361510728308,60117,-25776,21666
653328361518162775,60103,-25790,21568
653328361525597242,60011,-25911,21594
653328361533031709,60036,-25895,21549
653328361540466176,60045,-25870,21558
653328361547815551,60313,-25779,21385
653328361555255024,60088,-25857,21453
653328361562694497,60001,-25934,21546
653328361570133970,60065,-25991,21366
653328361577573443,60077,-25929,21410
653328361585012916,60073,-25978,21236
653328361592452389,60111,-25983,21350
653328361599891862,60185,-25938,21347
653328361607331335,60102,-25982,21126
653328361614770808,60101,-24858,22228
653328361622210281,60254,-25463,21638
653328361629649754,60233,-25757,21350
653328361637089227,60315,-25825,21321
653328361644528700,61315,-24893,22322
653328361651968173,60676,-25549,21774
653328361659407646,60572,-25696,21502
653328361666847119,60513,-25951,21332
653328361674286592,61126,-25874,21400
653328361681811181,60808,-25818,21370
653328361689245648,60618,-25918,21451
653328361696680115,60452,-25904,21400
653328361704114582,60284,-25946,21354
653328361711549049,60373,-25958,21367
653328361718983516,60387,-25986,21301
653328361726417983,60438,-25951,21269
653328361733852450,60338,-25922,21337
653328361741286917,60322,-25924,21098
653328361748721384,60253,-25879,21171
653328361756155851,60364,-25876,21168
653328361763590318,60397,-25880,21121
653328361771024785,60352,-25891,20961
653328361778459252,60244,-26068,20838
653328361785893719,60382,-25896,20966
653328361793328186,60365,-26002,20922
653328361800762653,60392,-25893,20933
653328361808197120,60373,-25935,20812
653328361815517476,60480,-26212,20899
653328361822958656,60390,-26025,20963
653328361830399836,60454,-25970,21034
653328361837841016,60408,-25906,21078
653328361845282196,60444,-25899,20949
653328361852723376,60419,-25908,20960
653328361860164556,60534,-25810,21098
653328361867605736,60496,-25828,21003
653328361875046916,60523,-25861,21067
653328361882488096,60496,-25814,21114
653328361889929276,60543,-25776,21083
653328361897370456,60567,-25787,21035
653328361904811636,60577,-25924,20876
653328361912252816,60603,-25780,20891
653328361919693996,60551,-25753,20996
653328361927135176,60475,-25910,20984
653328361934576356,60480,-24798,21726
653328361942017536,60443,-25485,21249
653328361949545764,60791,-25883,21141
653328361956981824,60701,-25825,21093
653328361964417884,61591,-24749,21947
653328361971853944,60947,-25353,21371
653328361979290004,60768,-25516,21149
653328361986726064,60734,-25548,20986
653328361994162124,61673,-25606,21049
653328362001598184,61075,-25711,21010
653328362009034244,60773,-25756,21044
653328362016470304,60731,-25798,21040
653328362023906364,60590,-25927,20961
653328362031342424,60521,-25964,20947
653328362038778484,60709,-25813,20997
653328362046214544,60624,-25881,20927
653328362053650604,60618,-25859,21006
653328362061086664,60688,-25765,20921
653328362068522724,60606,-25957,20948
653328362075958784,60626,-25745,21009
653328362083363912,60493,-25887,21250
653328362090801792,60614,-25843,21153
653328362098239672,60777,-25720,21086
653328362105677552,60705,-25694,21132
653328362113115432,60696,-25541,21147
653328362120553312,60867,-25686,21080
653328362127991192,60840,-25702,21183
653328362135429072,60834,-25572,21175
653328362142866952,60766,-25564,21163
653328362150304832,60795,-25602,21165
653328362157742712,60938,-25593,21096
653328362165180592,60969,-25531,21078
653328362172618472,61036,-25486,21085
653328362180056352,60916,-25587,21041
653328362187494232,60886,-25625,20997
653328362194932112,60921,-25674,20954
653328362202369992,60959,-25727,20749
653328362209807872,60958,-25687,20763
653328362217276708,60936,-25602,20965
653328362224712768,61079,-25607,20708
653328362232148828,61038,-25654,20766
653328362239584888,61075,-25690,20617
653328362247020948,60918,-25622,20621
653328362254457008,60900,-25276,20425
653328362261893068,60949,-25460,20396
653328362269329128,60952,-25540,20344
653328362276765188,60985,-25518,20418
653328362284201248,62047,-24552,21436
653328362291637308,61392,-25208,20889
653328362299073368,61207,-25475,20557
653328362306509428,61092,-25611,20335
653328362313945488,62171,-25630,21367
653328362321381548,61417,-25772,20663
653328362328817608,61072,-25759,20520
653328362336253668,61007,-25745,20368
653328362343689728,60940,-25818,20356
653328362351094856,61127,-25977,20486
653328362358532736,61132,-25819,20445
653328362365970616,60922,-25845,20363
653328362373408496,60936,-25645,20479
653328362380846376,60972,-25812,20332
653328362388284256,60956,-25781,20429
653328362395722136,61022,-25719,20632
653328362403160016,60973,-25717,20759
653328362410597896,61015,-25550,20710
653328362418035776,60975,-25637,20842
653328362425473656,60874,-25693,20884
653328362432911536,60942,-25714,20839
653328362440349416,60822,-25735,20885
653328362447787296,60907,-25738,20794
653328362455225176,60742,-25809,20763
653328362462663056,60812,-25883,20785
653328362470100936,60729,-25961,20804
653328362477538816,60679,-25920,20653
653328362485007652,60623,-26162,20716
653328362492443712,60692,-26151,20498
653328362499879772,60584,-26143,20475
653328362507315832,60573,-26212,20377
653328362514751892,60533,-26116,20208
653328362522187952,60507,-26102,20226
653328362529624012,60445,-26154,20159
653328362537060072,60487,-26166,20231
653328362544496132,60362,-26268,19947
653328362551932192,60376,-26394,20008
653328362559368252,60306,-26355,19974
653328362566804312,60254,-26274,19866
653328362574240372,60257,-26389,19916
653328362581676432,60285,-26463,19958
653328362589112492,60286,-26348,19917
653328362596548552,60310,-26311,19967
653328362603984612,60126,-25437,20980
653328362611420672,60092,-25992,20365
653328362618854802,60344,-26296,20409
653328362626290976,60180,-26309,20005
653328362633727150,61237,-25292,21012
653328362641163324,60628,-25889,20318
653328362648599498,60354,-26307,20062
653328362656035672,60209,-26376,19885
653328362663471846,60801,-26489,19752
653328362670908020,60432,-26554,19718
653328362678344194,60238,-26659,19573
653328362685780368,60071,-26571,19602
653328362693216542,60098,-26511,19644
653328362700652716,60083,-26516,19726
653328362708088890,60012,-26594,19738
653328362715525064,59932,-26529,19710
653328362722961238,59989,-26440,19710
653328362730397412,60011,-26466,19717
653328362737833586,60051,-26575,19688
653328362745269760,59946,-26615,19644
653328362752678857,59940,-26325,19549
653328362760116624,60020,-26430,19752
653328362767554391,59940,-26545,19587
653328362774992158,59894,-26540,19585
653328362782429925,59910,-26486,19685
653328362789867692,59930,-26550,19653
653328362797305459,59891,-26552,19729
653328362804743226,59884,-26477,19686
653328362812180993,59911,-26394,19678
653328362819618760,59923,-26493,19653
653328362827056527,59984,-26508,19688
653328362834494294,59981,-26469,19732
653328362841932061,60003,-26418,19770
653328362849369828,59891,-26412,19743
653328362856807595,59881,-26486,19738
653328362864245362,59840,-26493,19721
653328362871683129,59928,-26472,19819
653328362879120896,59967,-26492,19799
653328362886616703,59618,-26529,19743
653328362894051056,59781,-26546,19851
653328362901485409,59995,-26407,19831
653328362908919762,59986,-26411,19875
653328362916354115,59970,-26433,19864
653328362923788468,59941,-25438,20494
653328362931222821,59970,-25853,20072
653328362938657174,59911,-26159,19935
653328362946091527,59998,-26342,19824
653328362953525880,61073,-25396,20898
653328362960960233,60452,-25948,20193
653328362968394586,60115,-26233,20028
653328362975828939,59972,-26306,19881
653328362983263292,60992,-26332,19861
653328362990697645,60381,-26401,19819
653328362998131998,60097,-26387,19818
653328363005566351,59943,-26362,19797
653328363013000704,60046,-26446,19743
653328363020375112,60138,-26571,19865
653328363027812992,60122,-26529,19896
653328363035250872,60089,-26486,19799
653328363042688752,60021,-26381,19846
653328363050126632,60057,-26340,19864
653328363057564512,60138,-26437,19844
653328363065002392,60234,-26296,19863
653328363072440272,60225,-26229,19924
653328363079878152,60190,-26302,19972
653328363087316032,60155,-26331,19976
653328363094753912,60209,-26256,20121
653328363102191792,60261,-26164,20228
653328363109629672,60316,-26128,20123
653328363117067552,60313,-26147,20126
653328363124505432,60163,-26189,19983
653328363131943312,60412,-26043,20161
653328363139381192,60348,-26119,20053
653328363146819072,60330,-26015,20192
653328363154287908,60455,-25938,20499
653328363161723968,60488,-25915,20295
653328363169160028,60481,-25897,20294
653328363176596088,60395,-25878,20321
653328363184032148,60499,-25884,20283
653328363191468208,60528,-25854,20357
653328363198904268,60579,-25667,20246
653328363206340328,60567,-25734,20425
653328363213776388,60685,-25745,20468
653328363221212448,60742,-25679,20556
653328363228648508,60676,-25674,20538
653328363236084568,60776,-25553,20662
653328363243520628,60885,-25294,20690
653328363250956688,60859,-25444,20711
653328363258392748,60869,-25604,20801
653328363265828808,60899,-25481,20793
653328363273264868,61938,-24448,21881
653328363280700928,61536,-24870,21402
653328363288077037,60935,-25284,21193
653328363295516624,61199,-25421,20979
653328363302956211,62113,-25384,21994
653328363310395798,61570,-25266,21640
653328363317835385,61386,-25517,21342
653328363325274972,61305,-25429,21296
653328363332714559,61226,-25401,21309
653328363340154146,61189,-25509,21247
653328363347593733,61106,-25460,21330
653328363355033320,61083,-25397,21345
653328363362472907,61021,-25454,21091
653328363369912494,61107,-25420,21117
653328363377352081,60964,-25460,21252
653328363384791668,60919,-25513,21246
653328363392231255,61002,-25501,21269
653328363399670842,60911,-25450,21282
653328363407110429,61000,-25542,21222
653328363414550016,60952,-25469,21176
653328363422049572,60900,-25480,21272
653328363429485632,60938,-25466,21288
653328363436921692,60903,-25461,21341
653328363444357752,60821,-25486,21398
653328363451793812,60996,-25448,21457
653328363459229872,61128,-25456,21454
653328363466665932,61053,-25463,21365
653328363474101992,61003,-25461,21358
653328363481538052,61012,-25447,21298
653328363488974112,61009,-25393,21370
653328363496410172,61013,-25466,21299
653328363503846232,61095,-25397,21315
653328363511282292,61088,-25387,21306
653328363518718352,60975,-25500,21393
653328363526154412,60913,-25462,21386
653328363533590472,60960,-25384,21347
653328363541026532,60996,-25431,21339
653328363548462592,60977,-25323,21407
653328363555896722,60998,-25549,21316
653328363563332896,60970,-25444,21263
653328363570769070,60971,-25348,21402
653328363578205244,61124,-25375,21398
653328363585641418,61101,-25319,21492
653328363593077592,61079,-24270,22491
653328363600513766,61108,-24812,22028
653328363607949940,61073,-25006,21848
653328363615386114,61118,-25148,21868
653328363622822288,62162,-24171,22868
653328363630258462,61661,-24770,22305
653328363637694636,61432,-24925,22175
653328363645130810,61291,-25030,22132
653328363652566984,62288,-25146,22015
653328363660003158,61755,-25063,22151
653328363667439332,61488,-25148,22183
653328363674875506,61290,-25055,22241
653328363682311680,61292,-25013,22193
653328363689720777,61489,-25161,22496
653328363697158544,61395,-25153,22397
653328363704596311,61378,-25025,22372
653328363712034078,61366,-25010,22346
653328363719471845,61361,-24955,22374
653328363726909612,61386,-24922,22305
653328363734347379,61352,-24946,22311
653328363741785146,61412,-24769,22363
653328363749222913,61484,-24837,22352
653328363756660680,61431,-24791,22406
653328363764098447,61503,-24872,22380
653328363771536214,61512,-24781,22308
653328363778973981,61606,-24897,22361
653328363786411748,61454,-24803,22409
653328363793849515,61563,-24766,22439
653328363801287282,61471,-24819,22455
653328363808725049,61456,-24679,22490
653328363816162816,61588,-24660,22514
653328363823627666,61394,-24768,22356
653328363831063840,61510,-24662,22320
653328363838500014,61603,-24670,22341
653328363845936188,61547,-24700,22366
653328363853372362,61614,-24684,22377
653328363860808536,61654,-24690,22518
653328363868244710,61605,-24763,22370
653328363875680884,61646,-24818,22290
653328363883117058,61581,-24754,22400
653328363890553232,61602,-24613,22332
653328363897989406,61596,-24715,22437
653328363905425580,61649,-24614,22403
653328363912861754,61706,-23518,22561
653328363920297928,61724,-24129,22580
653328363927734102,61783,-24366,22566
653328363935170276,61726,-24504,22488
653328363942606450,62782,-23530,23623
653328363950042624,62200,-24219,23063
653328363957480740,62351,-24310,22767
653328363964916800,62012,-24443,22723
653328363972352860,63103,-24480,22651
653328363979788920,62474,-24510,22713
653328363987224980,62202,-24412,22705
653328363994661040,61956,-24392,22724
653328364002097100,61941,-24392,22588
653328364009533160,62001,-24396,22696
653328364016969220,61991,-24420,22664
653328364024405280,61946,-24459,22773
653328364031841340,62000,-24293,22860
653328364039277400,62078,-24273,22796
653328364046713460,62165,-24258,22979
653328364054149520,62230,-24277,23083
653328364061585580,62100,-24345,22970
653328364069021640,62234,-24286,23143
653328364076457700,62125,-24228,23115
653328364083893760,62202,-24115,23187
653328364091327890,62271,-24110,23119
653328364098764064,62246,-24198,23210
653328364106200238,62209,-24102,23217
653328364113636412,62329,-24051,23342
653328364121072586,62476,-24075,23290
653328364128508760,62358,-23943,23318
653328364135944934,62352,-23936,23396
653328364143381108,62347,-23927,23498
653328364150817282,62463,-23903,23516
653328364158253456,62338,-23931,23557
653328364165689630,62346,-23822,23672
653328364173125804,62401,-23859,23692
653328364180561978,62474,-23949,23648
653328364187998152,62509,-23841,23816
653328364195434326,62363,-23884,23923
653328364202870500,62546,-23737,24076
653328364210306674,62488,-23765,24110
653328364217742848,62573,-23807,24191
653328364225180964,62765,-23704,24056
653328364232617024,62636,-23754,24272
653328364240053084,62620,-23785,24223
653328364247489144,62546,-23729,24279
653328364254925204,62507,-23714,24402
653328364262361264,62833,-22617,25510
653328364269797324,62591,-23228,24933
653328364277233384,62434,-23626,24635
653328364284669444,62453,-23656,24572
653328364292105504,63402,-23395,25466
653328364299541564,62715,-23655,24858
653328364306977624,62502,-23739,24680
653328364314413684,62394,-23676,24599
653328364321849744,62298,-23774,24480
653328364329285804,62326,-23745,24440
653328364336721864,62298,-23849,24461
653328364344157924,62298,-23839,24446
653328364351593984,62365,-23885,24411
653328364359057133,62560,-24142,24404
653328364366491600,62382,-24048,24309
653328364373926067,62325,-23996,24289
653328364381360534,62305,-23917,24306
653328364388795001,62321,-23849,24383
653328364396229468,62210,-23868,24337
653328364403663935,62256,-23836,24320
653328364411098402,62308,-23835,24312
653328364418532869,62303,-23878,24329
653328364425967336,62332,-23863,24378
653328364433401803,62282,-23877,24299
653328364440836270,62367,-23956,24265
653328364448270737,62232,-23960,24234
653328364455705204,62235,-23949,24254
653328364463139671,62299,-23696,24388
653328364470574138,62266,-23742,24406
653328364478008605,62216,-23870,24373
653328364485443072,62240,-23949,24457
653328364492821449,61997,-23954,24585
653328364500259216,62111,-23765,24485
653328364507696983,62196,-23780,24386
653328364515134750,62237,-23795,24409
653328364522572517,62103,-23756,24622
653328364530010284,62124,-23840,24612
653328364537448051,62193,-23867,24575
653328364544885818,62229,-23891,24600
653328364552323585,62188,-23929,24578
653328364559761352,62187,-23898,24487
653328364567199119,62238,-23896,24447
653328364574636886,62255,-23791,24508
653328364582074653,62078,-22776,25633
653328364589512420,62050,-23410,24999
653328364596950187,62121,-23630,24732
653328364604387954,62247,-23687,24679
653328364611825721,63400,-22727,25571
653328364619263488,62815,-23220,25016
653328364626757357,62776,-23628,24601
653328364634191824,62543,-23696,24578
653328364641626291,63400,-23758,24429
653328364649060758,62782,-23751,24455
653328364656495225,62470,-23825,24463
653328364663929692,62341,-24010,24370
653328364671364159,62214,-23950,24443
653328364678798626,62178,-23811,24484
653328364686233093,62206,-23875,24494
653328364693667560,62218,-23842,24552
653328364701102027,62259,-23876,24448
653328364708536494,62280,-23812,24428
653328364715970961,62237,-23858,24544
653328364723405428,62166,-23758,24490
653328364730839895,62188,-23737,24667
653328364738274362,62230,-23692,24689
653328364745708829,62231,-23738,24611
653328364753143296,62190,-23699,24630
653328364760492671,62457,-23636,24556
653328364767932144,62427,-23652,24509
653328364775371617,62302,-23663,24560
653328364782811090,62284,-23668,24618
653328364790250563,62483,-23638,24677
653328364797690036,62451,-23683,24590
653328364805129509,62431,-23635,24492
653328364812568982,62451,-23625,24623
653328364820008455,62421,-23603,24531
653328364827447928,62411,-23758,24481
653328364834887401,62342,-23723,24550
653328364842326874,62419,-23674,24540
653328364849766347,62410,-23631,24609
653328364857205820,62509,-23600,24593
653328364864645293,62482,-23508,24655
653328364872084766,62494,-23553,24659
653328364879524239,62583,-23608,24631
653328364886963712,62478,-23505,24471
653328364894490239,62439,-23859,24847
653328364901924592,62448,-22615,24813
653328364909358945,62448,-23170,24599
653328364916793298,62588,-23315,24564
653328364924227651,62539,-23418,24557
653328364931662004,63550,-22429,25467
653328364939096357,63093,-23004,24952
653328364946530710,62831,-23350,24665
653328364953965063,62680,-23559,24493
653328364961399416,63637,-23609,24345
653328364968833769,63220,-23492,24473
653328364976268122,62997,-23436,24541
653328364983702475,62856,-23385,24625
653328364991136828,62827,-23406,24592
653328364998571181,62719,-23440,24602
653328365006005534,62637,-23346,24641
653328365013439887,62687,-23299,24706
653328365020874240,62672,-23280,24798
653328365028277650,62858,-23604,24919
653328365035713824,62846,-23485,24870
653328365043149998,62688,-23486,24880
653328365050586172,62692,-23339,25048
653328365058022346,62753,-23385,25007
653328365065458520,62708,-23289,25074
653328365072894694,62723,-23252,25118
653328365080330868,62815,-23215,25238
653328365087767042,62867,-23211,25180
653328365095203216,62794,-23403,25119
653328365102639390,62804,-23335,25167
653328365110075564,62827,-23208,25253
653328365117511738,62863,-23287,25088
653328365124947912,62855,-23141,25208
653328365132384086,62929,-23234,25181
653328365139820260,62899,-23146,25322
653328365147256434,62932,-23154,25372
653328365154692608,63017,-23133,25475
653328365162072703,63240,-23066,25523
653328365169512176,63095,-23113,25482
653328365176951649,62955,-23170,25428
653328365184391122,62916,-23230,25433
653328365191830595,62888,-23288,25298
653328365199270068,63053,-23184,25333
653328365206709541,62992,-23210,25283
653328365214149014,62927,-23283,25331
653328365221588487,63016,-23295,25331
653328365229027960,62935,-23322,25255
653328365236467433,62883,-23380,25204
653328365243906906,62903,-23370,25159
653328365251346379,62905,-22339,26165
653328365258785852,62905,-22889,25602
653328365266225325,62815,-23137,25426
653328365273664798,62884,-23191,25368
653328365281104271,63911,-22304,26446
653328365288543744,63415,-22944,26072
653328365296010312,63094,-23328,25594
653328365303448192,63017,-23305,25521
653328365310886072,63109,-23417,25464
653328365318323952,62963,-23352,25365
653328365325761832,62950,-23308,25455
653328365333199712,62901,-23110,25513
653328365340637592,62769,-23174,25467
653328365348075472,62952,-23170,25722
653328365355513352,62934,-23171,25662
653328365362951232,62948,-23222,25812
653328365370389112,62969,-23151,25926
653328365377826992,62929,-23041,25842
653328365385264872,62843,-23212,25842
653328365392702752,62762,-23113,25883
653328365400140632,62794,-23056,26020
653328365407578512,62971,-22922,26031
653328365415016392,62926,-22924,26135
653328365422454272,62866,-22874,26170
653328365429923108,62876,-22630,26477
653328365437359168,62991,-22770,26465
653328365444795228,62895,-22909,26522
653328365452231288,63012,-22885,26524
653328365459667348,63032,-22800,26472
653328365467103408,63040,-22718,26631
653328365474539468,63085,-22811,26710
653328365481975528,63071,-22752,26790
653328365489411588,63034,-22765,26817
653328365496847648,62964,-22789,26762
653328365504283708,63073,-22779,26790
653328365511719768,62981,-22754,26728
653328365519155828,62936,-22818,26655
653328365526591888,62852,-22870,26607
653328365534027948,62864,-22978,26442
653328365541464008,62725,-23124,26243
653328365548900068,62709,-23135,26112
653328365556336128,62670,-23237,25918
653328365563741256,62392,-23487,26489
653328365571179136,62569,-22292,26996
653328365578617016,62490,-22978,26171
653328365586054896,62555,-23171,25795
653328365593492776,62426,-23319,25554
653328365600930656,63566,-22253,26560
653328365608368536,62970,-22856,25732
653328365615806416,62503,-23333,25331
653328365623244296,62434,-23407,25116
653328365630682176,63418,-23577,25054
653328365638120056,62889,-23683,24919
653328365645557936,62526,-23713,24855
653328365652995816,62320,-23652,24776
653328365660433696,62231,-23636,24781
653328365667871576,62333,-23536,24687
653328365675309456,62248,-23691,24564
653328365682747336,62307,-23692,24613
653328365690185216,62406,-23698,24542
653328365697654052,62110,-23934,24336
653328365705090112,62210,-23858,24445
653328365712526172,62301,-23820,24441
653328365719962232,62320,-23656,24503
653328365727398292,62298,-23712,24621
653328365734834352,62306,-23640,24659
653328365742270412,62278,-23724,24591
653328365749706472,62280,-23594,24544
653328365757142532,62193,-23713,24564
653328365764578592,62253,-23795,24413
653328365772014652,62318,-23762,24420
653328365779450712,62347,-23806,24421
653328365786886772,62314,-23786,24455
653328365794322832,62382,-23742,24522
653328365801758892,62301,-23898,24294
653328365809194952,62324,-23717,24412
653328365816631012,62350,-23749,24387
653328365824067072,62300,-23790,24274
653328365831501202,62176,-24166,24632
653328365838937376,62292,-23925,24617
653328365846373550,62429,-23805,24648
653328365853809724,62477,-23580,24522
653328365861245898,62501,-23574,24527
653328365868682072,62458,-23689,24595
653328365876118246,62473,-23649,24469
653328365883554420,62500,-23662,24510
653328365890990594,62459,-22843,24514
653328365898426768,62468,-23369,24485
653328365905862942,62474,-23605,24460
653328365913299116,62391,-23618,24529
653328365920735290,63652,-22545,25621
653328365928171464,62991,-23232,25058
653328365935607638,62600,-23459,24791
653328365943043812,62588,-23540,24789
653328365950479986,63728,-23496,25662
653328365957916160,62979,-23551,25223
653328365965325257,62682,-23830,25235
653328365972763024,62534,-23597,25043
653328365980200791,62668,-23517,24942
653328365987638558,62561,-23517,24865
653328365995076325,62639,-23423,24839
653328366002514092,62634,-23481,24933
653328366009951859,62558,-23467,24992
653328366017389626,62695,-23449,24975
653328366024827393,62650,-23439,24972
653328366032265160,62657,-23464,24952
653328366039702927,62713,-23358,24886
653328366047140694,62695,-23374,25088
653328366054578461,62770,-23353,25119
653328366062016228,62757,-23423,25190
653328366069453995,62828,-23225,25281
653328366076891762,62799,-23228,25342
653328366084329529,62747,-23300,25369
653328366091767296,62668,-23308,25311
653328366099261165,62699,-23356,25243
653328366106695632,62716,-23336,25396
653328366114130099,62760,-23247,25481
653328366121564566,62701,-23302,25591
653328366128999033,62661,-23238,25591
653328366136433500,62697,-23319,25621
653328366143867967,62710,-23390,25539
653328366151302434,62677,-23415,25481
653328366158736901,62622,-23403,25545
653328366166171368,62594,-23542,25571
653328366173605835,62518,-23587,25549
653328366181040302,62539,-23489,25587
653328366188474769,62537,-23506,25616
653328366195909236,62480,-23521,25701
653328366203343703,62347,-23651,25657
653328366210778170,62389,-23529,25761
653328366218212637,62376,-23508,25843
653328366225647104,62323,-23614,25766
653328366232996479,62180,-23710,25758
653328366240435952,62258,-22562,26875
653328366247875425,62189,-23188,26413
653328366255314898,62197,-23470,26065
653328366262754371,62238,-23515,25987
653328366270193844,63250,-22465,27143
653328366277633317,62681,-23152,26557
653328366285072790,62295,-23537,26250
653328366292512263,62196,-23592,26086
653328366299951736,62726,-23715,26015
653328366307391209,62314,-23604,26003
653328366314830682,62092,-23744,26073
653328366322270155,62054,-23707,26120
653328366329709628,62035,-23717,26056
653328366337149101,61988,-23835,26001
653328366344588574,61943,-23780,26016
653328366352028047,61919,-23796,26050
653328366359467520,61871,-23856,25821
653328366367021128,62216,-23895,25829
653328366374453888,61942,-24037,25757
653328366381886648,61801,-23942,25606
653328366389319408,61837,-23864,25764
653328366396752168,61855,-23784,25868
653328366404184928,61746,-23831,25851
653328366411617688,61704,-23962,25858
653328366419050448,61797,-23862,25844
653328366426483208,61812,-23908,25945
653328366433915968,61646,-23997,25908
653328366441348728,61609,-23879,25987
653328366448781488,61729,-23847,26005
653328366456214248,61663,-23862,25931
653328366463647008,61566,-23980,26013
653328366471079768,61736,-24040,25956
653328366478512528,61698,-23969,25946
653328366485945288,61703,-23990,25887
653328366493378048,61750,-23901,25944
653328366500696703,62013,-24064,26223
653328366508136176,61900,-23893,26126
653328366515575649,61808,-23807,26032
653328366523015122,61778,-23939,26027
653328366530454595,61743,-23797,25891
653328366537894068,61699,-23873,26004
653328366545333541,61675,-23873,25936
653328366552773014,61605,-23969,25991
653328366560212487,61537,-22769,27158
653328366567651960,61631,-23284,26689
653328366575091433,61686,-23557,26486
653328366582530906,61616,-23776,26320
653328366589970379,62691,-22858,27411
653328366597409852,62125,-23396,26788
653328366604849325,61844,-23659,26607
653328366612288798,61721,-23691,26632
653328366619728271,62745,-23776,26628
653328366627167744,62127,-23863,26501
653328366634665252,61893,-23927,26247
653328366642101312,61653,-23949,26342
653328366649537372,61564,-23954,26451
653328366656973432,61567,-23844,26579
653328366664409492,61567,-23777,26653
653328366671845552,61532,-23888,26695
653328366679281612,61477,-23874,26673
653328366686717672,61554,-23950,26594
653328366694153732,61500,-23891,26676
653328366701589792,61528,-23823,26785
653328366709025852,61544,-23878,26866
653328366716461912,61482,-23897,26685
653328366723897972,61674,-23841,26710
653328366731334032,61558,-23966,26600
653328366738770092,61472,-23879,26760
653328366746206152,61496,-23790,26697
653328366753642212,61516,-23828,26628
653328366761078272,61481,-23884,26660
653328366768512402,61734,-23895,27076
653328366775948576,61749,-23794,26921
653328366783384750,61718,-23763,26859
653328366790820924,61666,-23750,26885
653328366798257098,61730,-23765,26894
653328366805693272,61669,-23719,26950
653328366813129446,61576,-23811,26941
653328366820565620,61687,-23665,26963
653328366828001794,61726,-23678,27002
653328366835437968,61762,-23722,26982
653328366842874142,61736,-23734,27208
653328366850310316,61745,-23569,27114
653328366857746490,61786,-23724,27175
653328366865182664,61875,-23590,27100
653328366872618838,61813,-23575,27012
653328366880055012,61794,-22500,27135
653328366887491186,61873,-23007,27255
653328366894927360,61942,-23316,27185
653328366902336457,61795,-23313,27199
653328366909774224,62949,-22282,28464
653328366917211991,62414,-22966,27828
653328366924649758,62172,-23278,27530
653328366932087525,62148,-23270,27382
653328366939525292,63242,-23345,27403
653328366946963059,62500,-23345,27218
653328366954400826,62228,-23297,27227
653328366961838593,62131,-23393,27259
653328366969276360,62201,-23374,27273
653328366976714127,62209,-23344,27310
653328366984151894,62152,-23356,27304
653328366991589661,62197,-23355,27233
653328366999027428,62247,-23409,27318
653328367006465195,62181,-23240,27462
653328367013902962,62216,-23220,27588
653328367021340729,62321,-23113,27754
653328367028778496,62252,-23122,27816
653328367036272365,62082,-23119,27938
653328367043706832,62196,-23169,27893
653328367051141299,62266,-23110,28020
653328367058575766,62361,-23027,28160
653328367066010233,62335,-23174,28174
653328367073444700,62319,-23111,28379
653328367080879167,62144,-23077,28558
653328367088313634,62278,-23162,28564
653328367095748101,62204,-23231,28576
653328367103182568,62232,-23152,28683
653328367110617035,62082,-23238,28617
653328367118051502,62130,-23175,28706
653328367125485969,62111,-23376,28742
653328367132920436,62088,-23310,28808
653328367140354903,61982,-23246,28829
653328367147789370,61929,-23237,28872
653328367155223837,61913,-23188,28922
653328367162658304,61922,-23245,28960
653328367170036681,62252,-23389,29063
653328367177474448,62032,-23253,29030
653328367184912215,61934,-23361,29133
653328367192349982,61985,-23317,29161
653328367199787749,61872,-23213,29052
653328367207225516,61924,-23386,29029
653328367214663283,61976,-23413,28901
653328367222101050,61905,-23408,28959
653328367229538817,62338,-22400,29886
653328367236976584,62044,-22941,29371
653328367244414351,62024,-23236,29120
653328367251852118,61865,-23371,29008
653328367259289885,62858,-23245,30058
653328367266727652,62335,-23317,29308
653328367274165419,62100,-23387,29084
653328367281603186,61976,-23424,28953
653328367289040953,61917,-23413,28760
653328367296478720,61664,-23466,28752
653328367303943570,61558,-23298,28633
653328367311379744,61725,-23425,28577
653328367318815918,61654,-23463,28590
653328367326252092,61759,-23502,28466
653328367333688266,61738,-23546,28453
653328367341124440,61946,-23644,28516
653328367348560614,61973,-23592,28570
653328367355996788,61908,-23538,28400
653328367363432962,61960,-23602,28569
653328367370869136,61879,-23644,28502
653328367378305310,61890,-23583,28402
653328367385741484,62019,-23496,28513
653328367393177658,61949,-23505,28418
653328367400613832,61940,-23511,28422
653328367408050006,61866,-23551,28589
653328367415486180,61815,-23530,28650
653328367422922354,61869,-23501,28564
653328367430358528,61897,-23455,28638
653328367437767625,61712,-23432,28587
653328367445205392,61788,-23535,28637
653328367452643159,61852,-23628,28678
653328367460080926,61887,-23625,28785
653328367467518693,61864,-23642,28711
653328367474956460,61888,-23585,28677
653328367482394227,61819,-23594,28667
653328367489831994,61939,-23524,28678
653328367497269761,61817,-23507,28853
653328367504707528,61864,-23532,28777
653328367512145295,61818,-23562,28815
653328367519583062,61832,-23498,28869
653328367527020829,61981,-23494,28884
653328367534458596,61951,-23487,28859
653328367541896363,61938,-23488,28838
653328367549334130,61898,-22322,29979
653328367556771897,61950,-22974,29424
653328367564209664,62058,-23222,29136
653328367571732552,62101,-23474,28989
653328367579165312,62938,-22340,30004
653328367586598072,62435,-22962,29480
653328367594030832,62201,-23257,29271
653328367601463592,62129,-23348,29027
653328367608896352,63001,-23276,29041
653328367616329112,62539,-23332,28992
653328367623761872,62355,-23444,28947
653328367631194632,62179,-23440,28981
653328367638627392,62201,-23378,28932
653328367646060152,62210,-23372,28907
653328367653492912,62192,-23354,28838
653328367660925672,62293,-23268,28924
653328367668358432,62334,-23244,28956
653328367675791192,62270,-23473,28751
653328367683223952,62306,-23412,28842
653328367690656712,62329,-23344,28855
653328367698089472,62316,-23329,28781
653328367705408127,62569,-23564,28503
653328367712847600,62459,-23423,28592
653328367720287073,62355,-23299,28524
653328367727726546,62491,-23289,28726
653328367735166019,62390,-23272,28839
653328367742605492,62394,-23297,28789
653328367750044965,62377,-23298,28764
653328367757484438,62496,-23378,28704
653328367764923911,62520,-23280,28752
653328367772363384,62502,-23268,28738
653328367779802857,62393,-23314,28798
653328367787242330,62597,-23137,28822
653328367794681803,62625,-23314,28676
653328367802121276,62514,-23347,28719
653328367809560749,62569,-23296,28739
653328367817000222,62582,-23245,28753
653328367824439695,62608,-23195,28750
653328367831879168,62566,-23141,28888
653328367839403757,62831,-22842,29057
653328367846838224,62765,-22886,28912
653328367854272691,62671,-23051,28911
653328367861707158,62617,-23082,28898
653328367869141625,62673,-22036,29815
653328367876576092,62755,-22538,29415
653328367884010559,62849,-22829,29178
653328367891445026,62721,-23060,29038
653328367898879493,63794,-22014,30043
653328367906313960,63298,-22670,29382
653328367913748427,63051,-22822,29270
653328367921182894,62897,-23076,29220
653328367928617361,63896,-22941,29202
653328367936051828,63363,-22913,29226
653328367943486295,63100,-22964,29287
653328367950920762,62944,-22907,29420
653328367958355229,63007,-22924,29433
653328367965789696,63017,-22845,29453
653328367973168073,62707,-23016,29472
653328367980605840,62884,-22942,29516
653328367988043607,62854,-23058,29451
653328367995481374,62799,-22992,29470
653328368002919141,62804,-23092,29438
653328368010356908,62880,-23065,29486
653328368017794675,62699,-22994,29529
653328368025232442,62692,-23054,29475
653328368032670209,62790,-23115,29400
653328368040107976,62709,-23093,29468
653328368047545743,62738,-23000,29540
653328368054983510,62662,-23157,29342
653328368062421277,62653,-23199,29413
653328368069859044,62258,-22941,29353
653328368077296811,62507,-23198,29372
653328368084734578,62558,-23250,29458
653328368092172345,62559,-23266,29478
653328368099610112,62559,-23374,29518
653328368107103981,62492,-23451,29717
653328368114538448,62570,-23226,29661
653328368121972915,62509,-23333,29627
653328368129407382,62587,-23204,29579
653328368136841849,62646,-23230,29656
653328368144276316,62596,-23153,29613
653328368151710783,62535,-23285,29652
653328368159145250,62524,-23236,29750
653328368166579717,62489,-23250,29701
653328368174014184,62382,-23270,29680
653328368181448651,62410,-23288,29727
653328368188883118,62356,-22393,29705
653328368196317585,62376,-22955,29714
653328368203752052,62426,-23185,29702
653328368211186519,62390,-23316,29641
653328368218620986,63541,-22146,30781
653328368226055453,62912,-22877,30160
653328368233489920,62568,-23227,29741
653328368240839295,62240,-23171,29495
653328368248278768,63443,-23337,30334
653328368255718241,62820,-23379,29987
653328368263157714,62494,-23459,29827
653328368270597187,62340,-23506,29664
653328368278036660,62368,-23543,29635
653328368285476133,62344,-23446,29674
653328368292915606,62329,-23435,29744
653328368300355079,62215,-23487,29835
653328368307794552,62389,-23418,29886
653328368315234025,62326,-23544,29980
653328368322673498,62285,-23495,29972
653328368330112971,62286,-23434,30121
653328368337552444,62228,-23420,30022
653328368344991917,62239,-23456,30139
653328368352431390,62234,-23451,30221
653328368359870863,62184,-23134,30060
653328368367310336,62207,-23250,30423
653328368374807844,62171,-23536,30617
653328368382243904,62160,-23450,30515
653328368389679964,62030,-23504,30459
653328368397116024,62160,-23438,30377
653328368404552084,62179,-23420,30395
653328368411988144,62114,-23457,30364
653328368419424204,62094,-23472,30456
653328368426860264,62102,-23511,30352
653328368434296324,62187,-23571,30397
653328368441732384,62092,-23466,30439
653328368449168444,62230,-23451,30491
653328368456604504,62282,-23436,30446
653328368464040564,62316,-23464,30547
653328368471476624,62252,-23451,30440
653328368478912684,62179,-23502,30263
653328368486348744,62181,-23543,30343
653328368493784804,62207,-23503,30440
653328368501220864,62304,-23456,30442
653328368508654994,62116,-23318,30396
653328368516091168,62129,-23468,30394
653328368523527342,62230,-23357,30399
653328368530963516,62316,-23328,30447
653328368538399690,62269,-22366,31567
653328368545835864,62202,-23017,30734
653328368553272038,62230,-23247,30565
653328368560708212,62253,-23336,30457
653328368568144386,63293,-22536,31608
653328368575580560,62755,-23145,30969
653328368583016734,62578,-23274,30611
653328368590452908,62500,-23349,30579
653328368597889082,62386,-23432,30587
653328368605325256,62355,-23355,30680
653328368612761430,62352,-23322,30655
653328368620197604,62421,-23308,30675
653328368627633778,62393,-23335,30682
653328368635069952,62398,-23353,30633
653328368642508068,62299,-23534,30471
653328368649944128,62392,-23365,30594
653328368657380188,62369,-23310,30649
653328368664816248,62475,-23278,30782
653328368672252308,62444,-23265,30823
653328368679688368,62438,-23252,30841
653328368687124428,62492,-23256,30897
653328368694560488,62394,-23280,30785
653328368701996548,62477,-23147,30864
653328368709432608,62572,-23134,30841
653328368716868668,62623,-23235,30860
653328368724304728,62562,-23215,30886
653328368731740788,62553,-23280,30861
653328368739176848,62668,-23357,30885
653328368746612908,62580,-23201,30892
653328368754048968,62526,-23115,30890
653328368761485028,62600,-23050,30943
653328368768921088,62621,-23043,30885
653328368776355218,62928,-23297,30693
653328368783791392,62863,-23328,30759
653328368791227566,62762,-23174,30890
653328368798663740,62784,-23222,30714
653328368806099914,62591,-23210,30757
653328368813536088,62688,-23114,30829
653328368820972262,62685,-23251,30731
653328368828408436,62699,-23064,30617
653328368835844610,62733,-23007,30672
653328368843280784,62800,-23124,30620
653328368850716958,62747,-23091,30714
653328368858153132,62813,-21954,31875
653328368865589306,62814,-22599,31166
653328368873025480,62819,-22842,31017
653328368880461654,62769,-22938,30901
653328368887897828,64035,-21821,31958
653328368895334002,63438,-22419,31334
653328368902770176,63243,-22691,30964
653328368910179273,63022,-22783,30802
653328368917617040,64118,-22768,30944
653328368925054807,63580,-22801,30809
653328368932492574,63248,-22806,30954
653328368939930341,63019,-22829,30930
653328368947368108,63083,-22881,30862
653328368954805875,63068,-22910,30901
653328368962243642,63000,-22802,31034
653328368969681409,63151,-22855,31063
653328368977119176,63128,-22815,31151
653328368984556943,63092,-22839,31020
653328368991994710,62988,-22897,31115
653328368999432477,63056,-22841,31082
653328369006870244,63065,-22806,31077
653328369014308011,62892,-22961,31055
653328369021745778,62876,-22941,31076
653328369029183545,62937,-22927,31141
653328369036621312,62967,-22973,31044
653328369044115181,62701,-23205,30974
653328369051549648,62791,-23081,31071
653328369058984115,62741,-23123,31059
653328369066418582,62800,-23142,31100
653328369073853049,62820,-23293,31118
653328369081287516,62734,-23304,31107
653328369088721983,62749,-23261,31143
653328369096156450,62677,-23287,30924
653328369103590917,62552,-23162,31026
653328369111025384,62541,-23169,30955
653328369118459851,62521,-23254,30886
653328369125894318,62451,-23370,30934
653328369133328785,62551,-23283,30915
653328369140763252,62551,-23455,30864
653328369148197719,62556,-23410,30924
653328369155632186,62371,-23399,30804
653328369163066653,62440,-23370,30794
653328369170501120,62359,-23327,30769
653328369177879497,62591,-22352,30599
653328369185317264,62457,-23118,30566
653328369192755031,62405,-23323,30565
653328369200192798,62385,-23453,30442
653328369207630565,63562,-22517,31526
653328369215068332,62880,-23173,30752
653328369222506099,62668,-23327,30578
653328369229943866,62495,-23495,30397
653328369237381633,63579,-23504,30422
653328369244819400,62848,-23530,30122
653328369252257167,62458,-23659,29986
653328369259694934,62398,-23677,29931
653328369267132701,62370,-23603,29939
653328369274570468,62231,-23717,29917
653328369282008235,62196,-23689,29963
653328369289446002,62301,-23723,29938
653328369296883769,62314,-23637,29950
653328369304321536,62272,-23679,29874
653328369311815405,62099,-23369,30026
653328369319249872,62062,-23560,29881
653328369326684339,61993,-23538,29828
653328369334118806,62137,-23664,29767
653328369341553273,62113,-23775,29843
653328369348987740,62170,-23748,29839
653328369356422207,62170,-23703,29671
653328369363856674,62207,-23711,29759
653328369371291141,62195,-23802,29678
653328369378725608,62254,-23785,29553
653328369386160075,62224,-23886,29603
653328369393594542,62199,-23719,29562
653328369401029009,62017,-23771,29611
653328369408463476,62018,-23864,29644
653328369415897943,62095,-23892,29569
653328369423332410,62092,-23863,29524
653328369430766877,62091,-23958,29575
653328369438201344,62062,-23864,29506
653328369445550719,61916,-24141,29391
653328369452990192,61923,-23982,29497
653328369460429665,61939,-23985,29527
653328369467869138,62019,-23871,29560
653328369475308611,62030,-23925,29525
653328369482748084,61913,-23881,29538
653328369490187557,61927,-23806,29624
653328369497627030,61949,-23832,29549
653328369505066503,61939,-23808,29451
653328369512505976,61953,-23786,29481
653328369519945449,61881,-23832,29341
653328369527384922,62560,-22760,30339
653328369534824395,62189,-23386,29654
653328369542263868,62059,-23745,29467
653328369549703341,62009,-23796,29358
653328369557142814,63209,-23815,30428
653328369564582287,62499,-23903,29742
653328369572021760,62246,-23869,29362
653328369579517330,62118,-23864,29328
653328369586953504,62114,-23813,29190
653328369594389678,61989,-23902,28906
653328369601825852,62044,-23858,29002
653328369609262026,61979,-23918,28957
653328369616698200,61936,-23935,28866
653328369624134374,61999,-23896,28871
653328369631570548,61974,-23859,28908
653328369639006722,62014,-23980,28803
653328369646442896,61995,-23965,28675
653328369653879070,61818,-24078,28757
653328369661315244,62039,-24002,28809
653328369668751418,62110,-24006,28807
653328369676187592,62100,-23849,28889
653328369683623766,62065,-23950,28838
653328369691059940,62025,-23978,28771
653328369698496114,61949,-23942,28830
653328369705932288,61999,-23813,28927
653328369713370404,61899,-24203,28614
653328369720806464,62027,-23987,28692
653328369728242524,62053,-23970,28686
653328369735678584,61999,-23884,28806
653328369743114644,61983,-23886,28816
653328369750550704,61945,-23765,28778
653328369757986764,62025,-23907,28780
653328369765422824,62041,-23868,28819
653328369772858884,62049,-23860,28812
653328369780294944,62037,-23800,28740
653328369787731004,61955,-23863,28628
653328369795167064,61989,-23702,28631
653328369802603124,62006,-23734,28802
653328369810039184,62032,-23829,28653
653328369817475244,62083,-23817,28777
653328369824911304,62050,-23710,28763
653328369832347364,62090,-23761,28738
653328369839783424,62215,-23641,28820
653328369847217554,62057,-22820,29696
653328369854653728,62165,-23301,29272
653328369862089902,62061,-23578,28904
653328369869526076,61950,-23681,28830
653328369876962250,63074,-22555,29933
653328369884398424,62407,-23291,29202
653328369891834598,62299,-23517,28887
653328369899270772,62135,-23641,28760
653328369906706946,62596,-23739,28734
653328369914143120,62317,-23696,28616
653328369921579294,62211,-23744,28688
653328369929015468,62186,-23717,28786
653328369936451642,62078,-23681,28829
653328369943887816,61962,-23727,28770
653328369951323990,62012,-23568,28807
653328369958760164,61903,-23704,28878
653328369966196338,61893,-23773,28880
653328369973632512,61831,-23632,28827
653328369981070628,61761,-23798,28532
653328369988506688,61777,-23953,28523
653328369995942748,61732,-23928,28633
653328370003378808,61695,-24036,28530
653328370010814868,61574,-24070,28470
653328370018250928,61465,-24140,28262
653328370025686988,61600,-24112,28097
653328370033123048,61524,-24191,28003
653328370040559108,61529,-24317,27858
653328370047995168,61410,-24361,27784
653328370055431228,61292,-24488,27581
653328370062867288,61222,-24446,27660
653328370070303348,61246,-24421,27639
653328370077739408,61042,-24524,27717
653328370085175468,61058,-24496,27609
653328370092611528,61122,-24431,27579
653328370100047588,61064,-24485,27530
653328370107483648,61066,-24595,27480
653328370114975816,61111,-24707,27496
653328370122408576,61003,-24749,27306
653328370129841336,60914,-24678,27276
653328370137274096,60812,-24780,27369
653328370144706856,60822,-24751,27375
653328370152139616,60835,-24841,27306
653328370159572376,60845,-24814,27268
653328370167005136,60692,-23780,28284
653328370174437896,60678,-24228,27638
653328370181870656,60668,-24511,27382
653328370189303416,60721,-24614,27314
653328370196736176,61832,-23774,28221
653328370204168936,61146,-24478,27485
653328370211601696,60867,-24634,27286
653328370219034456,60612,-24789,27176
653328370226467216,61823,-24834,27163
653328370233899976,61090,-24840,27078
653328370241332736,60720,-24824,26981
653328370248651391,60772,-24988,26744
653328370256090864,60687,-24993,26937
653328370263530337,60638,-24962,26932
653328370270969810,60467,-24943,26990
653328370278409283,60398,-25019,27021
653328370285848756,60496,-24918,27052
653328370293288229,60483,-24952,27173
653328370300727702,60425,-24942,27070
653328370308167175,60533,-24905,27052
653328370315606648,60557,-24850,27089
653328370323046121,60491,-24855,26989
653328370330485594,60388,-25046,26863
653328370337925067,60408,-25082,26741
653328370345364540,60378,-25042,26747
653328370352804013,60306,-25236,26543
653328370360243486,60501,-25250,26651
653328370367682959,60262,-25364,26564
653328370375122432,60272,-25285,26492
653328370382618002,60190,-25310,26308
653328370390054176,60135,-25240,26340
653328370397490350,60042,-25243,26261
653328370404926524,60132,-25230,26225
653328370412362698,60122,-25141,26283
653328370419798872,60105,-25250,26318
653328370427235046,60017,-25323,26153
653328370434671220,60012,-25334,26160
653328370442107394,59989,-25273,26195
653328370449543568,60047,-25289,26192
653328370456979742,59976,-25392,26148
653328370464415916,59970,-25488,26062
653328370471852090,59850,-25392,26120
653328370479288264,59996,-25204,26185
653328370486724438,59881,-24315,26393
653328370494160612,60027,-24777,26243
653328370501596786,60027,-25029,26222
653328370509032960,59880,-25281,26191
653328370516500095,61131,-24427,27150
653328370523934448,60455,-24927,26626
653328370531368801,60100,-25156,26338
653328370538803154,59968,-25147,26141
653328370546237507,61042,-25260,26225
653328370553671860,60430,-25289,26231
653328370561106213,60165,-25256,26139
653328370568540566,60070,-25202,26223
653328370575974919,59917,-25311,26167
653328370583409272,59933,-25277,26122
653328370590843625,59919,-25338,26188
653328370598277978,59831,-25404,26022
653328370605712331,59840,-25275,25989
653328370613146684,59705,-25230,26042
653328370620581037,59856,-25278,26144
653328370628015390,59848,-25304,26082
653328370635449743,59882,-25178,26083
653328370642884096,59944,-25179,26058
653328370650258504,60190,-25460,26139
653328370657696384,60084,-25293,26218
653328370665134264,60060,-25274,26229
653328370672572144,59933,-25221,26163
653328370680010024,59924,-25187,26154
653328370687447904,59940,-25151,26116
653328370694885784,59988,-25309,26040
653328370702323664,60021,-25214,26131
653328370709761544,60006,-25048,26160
653328370717199424,59887,-25107,26268
653328370724637304,59959,-25166,26221
653328370732075184,59982,-25178,26283
653328370739513064,60001,-25057,26390
653328370746950944,60025,-24994,26450
653328370754388824,60013,-25008,26496
653328370761826704,60083,-24983,26593
653328370769264584,60091,-24987,26600
653328370776702464,60169,-24886,26717
653328370784200319,60380,-24831,26395
653328370791634672,60210,-24857,26577
653328370799069025,60103,-24839,26570
653328370806503378,60117,-24262,26533
653328370813937731,60092,-24582,26521
653328370821372084,60137,-24658,26541
653328370828806437,60243,-24676,26519
653328370836240790,61357,-23673,27637
653328370843675143,60770,-24294,26867
653328370851109496,60488,-24499,26652
653328370858543849,60373,-24680,26508
653328370865978202,61412,-24754,27481
653328370873412555,60697,-24650,26896
653328370880846908,60585,-24599,26805
653328370888281261,60420,-24615,26585
653328370895715614,60304,-24586,26492
653328370903149967,60262,-24621,26486
653328370910584320,60363,-24690,26536
653328370917931647,60265,-24565,26317
653328370925371120,60192,-24603,26415
653328370932810593,60100,-24732,26260
653328370940250066,60119,-24710,26307
653328370947689539,59970,-24848,26274
653328370955129012,60030,-24769,26295
653328370962568485,60072,-24911,26158
653328370970007958,60042,-24942,26105
653328370977447431,59978,-24985,26047
653328370984886904,60038,-25050,26041
653328370992326377,59951,-25084,26056
653328370999765850,59935,-24972,25996
653328371007205323,59889,-25002,25982
653328371014644796,59966,-24958,25896
653328371022084269,59810,-24942,25989
653328371029523742,59845,-24939,25728
653328371036963215,59791,-25001,25805
653328371044402688,59793,-24993,25723
653328371051927277,60186,-24826,25361
653328371059361744,59889,-24960,25495
653328371066796211,59722,-25121,25440
653328371074230678,59685,-25181,25369
653328371081665145,59682,-25150,25331
653328371089099612,59619,-25197,25253
653328371096534079,59595,-25209,25240
653328371103968546,59559,-25150,25219
653328371111403013,59535,-25211,25017
653328371118837480,59553,-25228,24918
653328371126271947,59527,-25340,24736
653328371133706414,59491,-25505,24669
653328371141140881,59455,-25369,24597
653328371148575348,59418,-25228,24537
653328371156009815,59394,-24076,25571
653328371163444282,59450,-24748,24858
653328371170878749,59496,-25115,24529
653328371178313216,59491,-25234,24338
653328371185662591,60634,-24360,25636
653328371193102064,60037,-24871,24897
653328371200541537,59712,-25132,24563
653328371207981010,59540,-25221,24290
653328371215420483,59970,-25372,24135
653328371222859956,59610,-25462,23999
653328371230299429,59584,-25416,24039
653328371237738902,59499,-25444,23916
653328371245178375,59351,-25402,23927
653328371252617848,59326,-25354,23964
653328371260057321,59345,-25392,23944
653328371267496794,59347,-25333,23813
653328371274936267,59306,-25511,23655
653328371282375740,59298,-25433,23735
653328371289815213,59302,-25481,23705
653328371297254686,59207,-25490,23733
653328371304694159,59295,-25535,23697
653328371312133632,59241,-25494,23469
653328371319629202,59336,-25769,23779
653328371327065376,59334,-25585,23430
653328371334501550,59358,-25438,23491
653328371341937724,59261,-25437,23387
653328371349373898,59285,-25455,23456
653328371356810072,59321,-25429,23392
653328371364246246,59289,-25434,23310
653328371371682420,59255,-25616,23448
653328371379118594,59370,-25539,23341
653328371386554768,59287,-25428,23370
653328371393990942,59298,-25513,23260
653328371401427116,59358,-25343,23317
653328371408863290,59317,-25343,23235
653328371416299464,59401,-25345,23261
653328371423735638,59319,-25364,23151
653328371431171812,59271,-25518,23201
653328371438607986,59305,-25360,23162
653328371446044160,59166,-25360,23125
653328371453482276,59320,-25462,23235
653328371460918336,59279,-25334,23236
653328371468354396,59263,-25247,23254
653328371475790456,59287,-24297,23794
653328371483226516,59172,-24956,23404
653328371490662576,59285,-25067,23300
653328371498098636,59244,-25218,23123
653328371505534696,60374,-24242,24109
653328371512970756,59726,-24802,23439
653328371520406816,59447,-25030,23121
653328371527842876,59301,-25150,22945
653328371535278936,60412,-25217,22902
653328371542714996,59763,-25176,22864
653328371550151056,59527,-25377,22823
653328371557587116,59327,-25198,22732
653328371565023176,59330,-25366,22782
653328371572459236,59305,-25258,22714
653328371579895296,59185,-25264,22549
653328371587300424,59028,-25581,22434
653328371594738304,59203,-25507,22522
653328371602176184,59197,-25470,22373
653328371609614064,59292,-25299,22378
653328371617051944,59356,-25315,22314
653328371624489824,59343,-25195,22376
653328371631927704,59276,-25317,22219
653328371639365584,59316,-25338,22169
653328371646803464,59276,-25439,22228
653328371654241344,59383,-25311,22272
653328371661679224,59201,-25382,22165
653328371669117104,59352,-25324,22113
653328371676554984,59225,-25422,22149
653328371683992864,59209,-25276,22036
653328371691430744,59265,-25205,21974
653328371698868624,59378,-25171,22170
653328371706306504,59211,-25233,22101
653328371713744384,59321,-25141,22191
653328371721213220,59483,-25129,22014
653328371728649280,59312,-25266,22119
653328371736085340,59316,-25251,22251
653328371743521400,59259,-25196,22307
653328371750957460,59227,-25205,22270
653328371758393520,59284,-25101,22251
653328371765829580,59112,-25072,22382
653328371773265640,59249,-25074,22221
653328371780701700,59310,-25096,22268
653328371788137760,59365,-25081,22342
653328371795573820,59282,-24972,22451
653328371803009880,59366,-25012,22495
653328371810445940,59315,-24982,22476
6.53328E+17,59248,-24988,22405
653328371825318060,60117,-23874,23552
653328371832754120,59689,-24511,22967
653328371840190180,59457,-24766,22587
653328371847626240,59267,-25053,22550
653328371855031368,60483,-25202,23248
653328371862469248,59779,-25148,22647
653328371869907128,59449,-25136,22297
653328371877345008,59248,-25196,22174
653328371884782888,59198,-25227,22013
653328371892220768,59152,-25268,22018
653328371899658648,58957,-25329,21776
653328371907096528,59102,-25352,21752
653328371914534408,58906,-25340,21734
653328371921972288,58962,-25429,21622
653328371929410168,58948,-25360,21635
653328371936848048,58954,-25409,21656
653328371944285928,58732,-25464,21504
653328371951723808,58874,-25467,21506
653328371959161688,58854,-25492,21477
653328371966599568,58800,-25521,21454
653328371974037448,58689,-25567,21494
653328371981475328,58685,-25519,21435
653328371988944164,58390,-25672,21225
653328371996380224,58444,-25644,21136
653328372003816284,58519,-25603,21202
653328372011252344,58501,-25700,21191
653328372018688404,58461,-25759,21142
653328372026124464,58373,-25809,21123
653328372033560524,58332,-25824,20992
653328372040996584,58389,-25900,20971
653328372048432644,58333,-25889,20875
653328372055868704,58259,-25908,20686
653328372063304764,58225,-25889,20696
653328372070740824,58215,-25865,20605
653328372078176884,58151,-25992,20425
653328372085612944,58136,-25987,20334
653328372093049004,58139,-26053,20262
653328372100485064,58093,-25920,20289
653328372107921124,58092,-25898,20088
653328372115357184,58156,-25899,20213
653328372122820333,58313,-26234,20139
653328372130254800,58190,-26137,20212
653328372137689267,58131,-26054,20134
653328372145123734,58040,-24928,21165
653328372152558201,58000,-25569,20526
653328372159992668,57937,-25888,20260
653328372167427135,57836,-25905,20052
653328372174861602,58941,-24904,21098
653328372182296069,58354,-25507,20425
653328372189730536,58053,-25880,20111
653328372197165003,57890,-26004,19879
653328372204599470,58862,-26150,19855
653328372212033937,58262,-26225,19610
653328372219468404,57831,-26207,19559
653328372226902871,57693,-26218,19624
653328372234337338,57622,-26284,19621
653328372241771805,57727,-26266,19673
653328372249206272,57689,-26225,19571
653328372256584649,57605,-26154,19185
653328372264022416,57572,-26253,19321
653328372271460183,57649,-26257,19266
653328372278897950,57712,-26327,19240
653328372286335717,57643,-26277,19232
653328372293773484,57454,-26372,19208
653328372301211251,57537,-26445,19151
653328372308649018,57592,-26389,19148
653328372316086785,57517,-26327,19014
653328372323524552,57541,-26217,19092
653328372330962319,57566,-26318,19063
653328372338400086,57525,-26324,19016
653328372345837853,57559,-26256,19033
653328372353275620,57547,-26320,18994
653328372360713387,57528,-26298,18981
653328372368151154,57445,-26347,18924
653328372375588921,57552,-26461,18863
653328372383026688,57481,-26394,18883
653328372390462536,57672,-26375,19155
653328372397900416,57594,-26501,18963
653328372405338296,57540,-26453,18772
653328372412776176,57421,-26405,18878
653328372420214056,57458,-26529,18773
653328372427651936,57395,-26418,18809
653328372435089816,57358,-26307,18717
653328372442527696,57317,-26423,18679
653328372449965576,57362,-26555,18541
653328372457403456,57459,-26524,18507
653328372464841336,57366,-25500,18507
653328372472279216,57385,-25835,18526
653328372479717096,57249,-26242,18465
653328372487154976,57149,-26353,18406
653328372494592856,58291,-25280,19428
653328372502030736,57776,-25915,18763
653328372509468616,57510,-26315,18449
653328372516906496,57369,-26422,18401
653328372524346313,58205,-26694,18663
653328372531784080,57719,-26628,18433
653328372539221847,57505,-26595,18167
653328372546659614,57405,-26674,18054
653328372554097381,57303,-26496,17957
653328372561535148,57356,-26516,18033
653328372568972915,57227,-26494,18096
653328372576410682,57181,-26555,18060
653328372583848449,57254,-26522,17862
653328372591286216,57292,-26569,17995
653328372598723983,57269,-26433,17957
653328372606161750,57245,-26558,17942
653328372613599517,57212,-26536,17969
653328372621037284,57426,-26405,18021
653328372628475051,57355,-26498,17997
653328372635912818,57268,-26519,18008
653328372643350585,57278,-26549,18012
653328372650788352,57312,-26507,17954
653328372658255140,57293,-26428,18115
653328372665691200,57236,-26475,17893
653328372673127260,57248,-26492,17839
653328372680563320,57208,-26543,17940
653328372687999380,57287,-26485,17827
653328372695435440,57253,-26474,17877
653328372702871500,57217,-26480,17941
653328372710307560,57263,-26487,17881
653328372717743620,57235,-26531,17825
653328372725179680,57269,-26494,17878
653328372732615740,57304,-26505,17921
653328372740051800,57233,-26445,17790
653328372747487860,57267,-26478,17669
653328372754923920,57159,-26476,17707
653328372762359980,57176,-26430,17766
653328372769796040,57291,-26502,17714
653328372777232100,57214,-26413,17705
653328372784668160,57319,-26427,17803
653328372792102290,57094,-26395,17891
653328372799538464,57232,-26416,17881
653328372806974638,57135,-26503,17876
653328372814410812,57427,-25350,19021
653328372821846986,57247,-26046,18338
653328372829283160,57213,-26349,18008
653328372836719334,57052,-26449,17896
653328372844155508,58094,-25952,18806
653328372851591682,57493,-26416,18199
653328372859027856,57171,-26553,17749
653328372866464030,57002,-26785,17647
653328372873900204,56869,-26808,17533
653328372881336378,56716,-26801,17546
653328372888772552,56617,-26749,17542
653328372896208726,56632,-26826,17472
653328372903644900,56708,-26813,17555
653328372911081074,56726,-26881,17337
653328372918517248,56599,-27014,17409
653328372925926345,56398,-26852,17203
653328372933364112,56467,-26895,17131
653328372940801879,56435,-26901,17199
653328372948239646,56418,-26959,17217
653328372955677413,56403,-26937,17138
653328372963115180,56464,-26985,17067
653328372970552947,56341,-27088,16984
653328372977990714,56265,-27179,16830
653328372985428481,56216,-27170,16717
653328372992866248,56248,-27235,16713
653328373000304015,56265,-27108,16707
653328373007741782,56025,-27271,16590
653328373015179549,55986,-27348,16299
653328373022617316,56039,-27323,16186
653328373030055083,55811,-27369,16216
653328373037492850,55850,-27401,16233
653328373044930617,55891,-27394,16117
653328373052368384,55822,-27563,16002
653328373059891272,55996,-27758,16193
653328373067324032,55853,-27649,16046
653328373074756792,55787,-27644,15980
653328373082189552,55683,-27658,15826
653328373089622312,55670,-27674,15769
653328373097055072,55546,-27721,15738
653328373104487832,55577,-27777,15693
653328373111920592,55574,-27772,15524
653328373119353352,55641,-27706,15694
653328373126786112,55564,-27767,15553
653328373134218872,55529,-26683,16597
653328373141651632,55485,-27350,16017
653328373149084392,55397,-27468,15831
653328373156517152,55532,-27578,15753
653328373163949912,56592,-26562,16824
653328373171382672,55948,-27268,16092
653328373178815432,55631,-27607,15786
653328373186248192,55480,-27721,15632
653328373193566847,56568,-27891,15326
653328373201006320,55853,-27889,15431
653328373208445793,55541,-27851,15455
653328373215885266,55372,-27825,15445
653328373223324739,55261,-27755,15368
653328373230764212,55290,-27845,15410
653328373238203685,55202,-27718,15399
653328373245643158,55156,-27842,15352
653328373253082631,55121,-27864,15194
653328373260522104,55185,-27746,15134
653328373267961577,55240,-27909,15188
653328373275401050,55041,-27926,15036
653328373282840523,55046,-27905,15162
653328373290279996,55081,-27921,15179
653328373297719469,54895,-27928,15050
653328373305158942,54982,-27956,15050
653328373312598415,54943,-27888,15049
653328373320037888,54948,-27972,15000
653328373327533458,55154,-28290,15041
653328373334969632,55003,-28083,14915
653328373342405806,55170,-28117,14930
653328373349841980,54942,-28058,14841
653328373357278154,54985,-28389,15077
653328373364714328,54971,-28203,14977
653328373372150502,54876,-28084,15007
653328373379586676,54896,-28017,14777
653328373387022850,54766,-28066,14868
653328373394459024,54764,-28148,14808
653328373401895198,54866,-28067,14836
653328373409331372,54951,-28000,14920
653328373416767546,54766,-28030,14734
653328373424203720,54689,-27977,14819
653328373431639894,54712,-27875,14764
653328373439076068,54698,-27975,14634
653328373446512242,54639,-28130,14608
653328373453948416,54671,-26884,15046
653328373461386532,54842,-27900,14701
653328373468822592,54828,-27944,14726
653328373476258652,54824,-27963,14786
653328373483694712,55779,-26951,15851
653328373491130772,55147,-27554,15155
653328373498566832,54965,-27744,14870
653328373506002892,54819,-27854,14812
653328373513438952,55879,-27912,14712
653328373520875012,55163,-27974,14717
653328373528311072,54935,-27942,14682
653328373535747132,54869,-27822,14752
653328373543183192,54676,-27928,14674
653328373550619252,54704,-28020,14685
653328373558055312,54654,-27986,14678
653328373565491372,54666,-28040,14683
653328373572927432,54675,-28023,14739
653328373580363492,54609,-27896,14888
653328373587799552,54477,-28047,14910
653328373595233682,54800,-27736,14820
653328373602669856,54662,-27729,14961
653328373610106030,54592,-27778,15092
653328373617542204,54498,-27874,14986
653328373624978378,54520,-27816,14980
653328373632414552,54773,-27755,15121
653328373639850726,54632,-27819,15144
653328373647286900,54695,-27795,15223
653328373654723074,54568,-27849,15230
653328373662159248,54688,-27789,15336
653328373669595422,54587,-27793,15346
653328373677031596,54626,-27819,15360
653328373684467770,54579,-27802,15346
653328373691903944,54533,-27831,15448
653328373699340118,54582,-27729,15486
653328373706776292,54600,-27797,15438
653328373714212466,54512,-27703,15584
653328373721648640,54506,-27704,15633
653328373729115775,54402,-27789,15445
653328373736550128,54533,-27856,15714
653328373743984481,54444,-27722,15705
653328373751418834,54533,-27535,15883
653328373758853187,54470,-27647,15923
653328373766287540,54559,-27565,15885
653328373773721893,54537,-26862,15888
653328373781156246,54571,-27226,15845
653328373788590599,54585,-27397,15970
653328373796024952,54447,-27520,15998
653328373803459305,55659,-26388,17190
653328373810893658,55037,-27099,16611
653328373818328011,54680,-27381,16402
653328373825762364,54675,-27483,16289
653328373833196717,55683,-27469,17184
653328373840631070,55044,-27514,16608
653328373848065423,54695,-27464,16492
653328373855499776,54535,-27478,16389
653328373862874184,54655,-27829,16188
653328373870312064,54515,-27771,16275
653328373877749944,54434,-27657,16272
653328373885187824,54220,-27655,16230
653328373892625704,54256,-27713,16261
653328373900063584,54186,-27724,16265
653328373907501464,54112,-27784,16255
653328373914939344,54100,-27837,16319
653328373922377224,53995,-27784,16295
653328373929815104,53896,-27963,16349
653328373937252984,53778,-27881,16328
653328373944690864,53806,-27892,16393
653328373952128744,53876,-27948,16441
653328373959566624,53920,-27896,16524
653328373967004504,53748,-27929,16536
653328373974442384,53619,-27921,16504
653328373981880264,53598,-27910,16671
653328373989318144,53701,-27931,16565
653328373996815999,53897,-27880,16544
653328374004250352,53577,-28015,16584
653328374011684705,53476,-28116,16647
653328374019119058,53513,-27966,16605
653328374026553411,53413,-28014,16740
653328374033987764,53480,-28011,16861
653328374041422117,53363,-27888,16929
653328374048856470,53323,-27969,16838
653328374056290823,53384,-27938,16922
653328374063725176,53355,-27969,16904
653328374071159529,53275,-28049,16824
653328374078593882,53252,-28062,16869
653328374086028235,53192,-28157,16816
653328374093462588,53210,-28191,16969
653328374100896941,53174,-28110,17008
653328374108331294,53203,-28056,17002
653328374115765647,53048,-28146,17068
6.53328E+17,53221,-26910,18212
653328374130603410,53274,-27439,17733
653328374138039584,53201,-27768,17511
653328374145475758,53060,-27860,17561
653328374152911932,54089,-27309,18629
653328374160348106,53386,-27635,18191
653328374167784280,53015,-27919,17722
653328374175220454,52937,-27898,17725
653328374182656628,52962,-27945,17695
653328374190092802,52830,-27955,17705
653328374197528976,52721,-27921,17849
653328374204965150,52750,-27959,17751
653328374212401324,52742,-28060,17731
653328374219837498,52610,-28070,17789
653328374227273672,52698,-28047,17848
653328374234709846,52661,-28064,17874
653328374242146020,52618,-27995,17933
653328374249582194,52593,-28064,17964
653328374257018368,52597,-28105,17851
653328374264398463,52318,-27838,17895
653328374271837936,52488,-27794,17832
653328374279277409,52508,-27959,17918
653328374286716882,52552,-28129,17856
653328374294156355,52488,-28048,17832
653328374301595828,52621,-28009,17991
653328374309035301,52487,-28015,17993
653328374316474774,52495,-28087,18045
653328374323914247,52439,-28063,18100
653328374331353720,52494,-28019,18166
653328374338793193,52408,-28110,17998
653328374346232666,52426,-28104,18154
653328374353672139,52464,-28140,18182
653328374361111612,52464,-28038,18293
653328374368551085,52473,-27993,18247
653328374375990558,52502,-27944,18361
653328374383430031,52492,-27981,18408
653328374390869504,52497,-27891,18365
653328374398365074,52671,-27903,18235
653328374405801248,52477,-27998,18309
653328374413237422,52408,-28038,18429
653328374420673596,52457,-27905,18465
653328374428109770,52430,-27976,18456
653328374435545944,52412,-27955,18514
653328374442982118,52276,-26910,19561
653328374450418292,52343,-27374,19014
653328374457854466,52484,-27690,18674
653328374465290640,52447,-27856,18589
653328374472726814,53537,-26802,19658
653328374480162988,53017,-27288,19162
653328374487599162,52726,-27654,18932
653328374495035336,52588,-27710,18802
653328374502471510,53540,-27784,18703
653328374509907684,53048,-27757,18642
653328374517343858,52697,-27859,18608
653328374524780032,52546,-27799,18756
653328374532189129,52535,-27987,18559
653328374539626896,52496,-27817,18722
653328374547064663,52491,-27810,18794
653328374554502430,52476,-27833,18823
653328374561940197,52503,-27716,18837
653328374569377964,52519,-27695,18901
653328374576815731,52511,-27651,18919
653328374584253498,52505,-27657,18941
653328374591691265,52538,-27482,19067
653328374599129032,52476,-27658,18864
653328374606566799,52464,-27679,18941
653328374614004566,52487,-27670,18931
653328374621442333,52497,-27642,19048
653328374628880100,52600,-27617,19178
653328374636317867,52624,-27611,19075
653328374643755634,52514,-27561,19070
653328374651193401,52516,-27600,19129
653328374658631168,52614,-27542,19200
653328374666097956,52876,-27733,19458
653328374673534016,52644,-27629,19291
653328374680970076,52682,-27581,19325
653328374688406136,52562,-27470,19239
653328374695842196,52645,-27329,19328
653328374703278256,52642,-27445,19293
653328374710714316,52683,-27546,19305
653328374718150376,52626,-27513,19318
653328374725586436,52507,-27474,19256
653328374733022496,52740,-27338,19150
653328374740458556,52631,-27483,19263
653328374747894616,52657,-27396,19129
653328374755330676,52647,-27402,19223
653328374762766736,52744,-26350,19275
653328374770202796,52656,-26854,19281
653328374777638856,52798,-27048,19318
653328374785074916,52723,-27213,19301
653328374792510976,53812,-26094,20362
653328374799945106,53210,-26849,20106
653328374807381280,52816,-27072,19692
653328374814817454,52660,-27346,19460
653328374822253628,53753,-27283,19487
653328374829689802,53152,-27372,19483
653328374837125976,52930,-27450,19494
653328374844562150,52769,-27452,19537
653328374851998324,52683,-27589,19383
653328374859434498,52580,-27543,19394
653328374866870672,52468,-27504,19307
653328374874306846,52262,-27497,19272
653328374881743020,52281,-27406,19310
653328374889179194,52242,-27521,19233
653328374896615368,52269,-27546,19263
653328374904051542,52282,-27588,19144
653328374911487716,52289,-27581,19127
653328374918923890,52323,-27570,19187
653328374926360064,52236,-27613,19155
653328374933798180,52441,-27987,19264
653328374941234240,52387,-27765,19188
653328374948670300,52263,-27695,19273
653328374956106360,52013,-27700,19131
653328374963542420,51977,-27729,19208
653328374970978480,52040,-27831,19112
653328374978414540,52061,-27689,19106
653328374985850600,51948,-27734,19088
653328374993286660,51935,-27840,18912
653328375000722720,51946,-27852,19009
653328375008158780,51967,-27858,18956
653328375015594840,51870,-27901,18831
653328375023030900,51906,-27812,18849
653328375030466960,51866,-27856,18782
653328375037903020,51852,-27999,18626
653328375045339080,51844,-27980,18662
653328375052775140,51861,-27957,18652
653328375060211200,51821,-27995,18585
653328375067703368,52051,-28168,18830
653328375075136128,51891,-28034,18493
653328375082568888,51860,-28002,18435
653328375090001648,51923,-27976,18403
653328375097434408,51717,-27935,18303
653328375104867168,51803,-27914,18245
653328375112299928,52458,-26793,19400
653328375119732688,52029,-27456,18812
653328375127165448,51807,-27666,18519
653328375134598208,51708,-27763,18344
653328375142030968,52835,-27784,19487
653328375149463728,52191,-27866,18789
653328375156896488,51861,-27914,18481
653328375164329248,51744,-27969,18331
653328375171762008,51761,-28083,18284
653328375179194768,51718,-28167,18125
653328375186627528,51547,-27958,18159
653328375194060288,51565,-27925,18080
653328375201406024,51778,-27724,18184
653328375208843904,51633,-27851,18100
653328375216281784,51709,-27917,18038
653328375223719664,51692,-28051,17958
653328375231157544,51676,-27913,17888
653328375238595424,51663,-27853,17992
653328375246033304,51582,-27860,17983
653328375253471184,51581,-27986,18002
653328375260909064,51625,-27869,18008
653328375268346944,51542,-27956,17894
653328375275784824,51605,-27976,17960
653328375283222704,51646,-27911,18010
653328375290660584,51617,-28094,18230
653328375298098464,51560,-28010,18143
653328375305536344,51579,-27900,18141
653328375312974224,51585,-28002,18202
653328375320412104,51582,-27812,18213
653328375327849984,51653,-27841,18121
653328375335289801,51673,-27611,17853
653328375342727568,51645,-27739,18013
653328375350165335,51577,-27772,17984
653328375357603102,51473,-27601,17957
653328375365040869,51568,-27715,18107
653328375372478636,51652,-27820,18198
653328375379916403,51686,-27676,18134
653328375387354170,51616,-27755,18052
653328375394791937,51657,-27747,18166
653328375402229704,51581,-27705,18065
653328375409667471,51622,-27681,18229
653328375417105238,51573,-27780,18118
653328375424543005,51662,-27823,18091
653328375431980772,51644,-26587,19180
653328375439418539,51582,-27208,18469
653328375446856306,51591,-27524,18206
653328375454294073,51657,-27688,18037
653328375461731840,52679,-26633,19133
653328375469225709,52265,-27147,18362
653328375476660176,51955,-27447,18137
653328375484094643,51891,-27652,18001
653328375491529110,52964,-27614,17895
653328375498963577,52191,-27641,17975
653328375506398044,51813,-27678,18006
653328375513832511,51731,-27614,17933
653328375521266978,51684,-27548,18018
653328375528701445,51718,-27522,18026
653328375536135912,51707,-27583,18006
653328375543570379,51735,-27487,18167
653328375551004846,51710,-27463,18074
653328375558439313,51638,-27552,18124
653328375565873780,51655,-27490,18127
653328375573308247,51771,-27587,18056
653328375580742714,51762,-27492,18127
653328375588177181,51759,-27603,18132
653328375595611648,51885,-27471,18134
653328375602961023,51999,-27601,18163
653328375610400496,51953,-27469,18211
653328375617839969,51915,-27440,18185
653328375625279442,51754,-27415,18283
653328375632718915,51813,-27341,18073
653328375640158388,51848,-27363,18152
653328375647597861,51933,-27359,18147
653328375655037334,51782,-27419,18244
653328375662476807,51843,-27406,18232
653328375669916280,51809,-27365,18162
653328375677355753,51832,-27360,18117
653328375684795226,51816,-27335,18156
653328375692234699,51908,-27204,18161
653328375699674172,51963,-27226,18228
653328375707113645,52100,-27329,18277
653328375714553118,52002,-27207,18236
653328375721992591,52013,-27346,18139
653328375729432064,51975,-27265,18227
653328375736929572,52172,-27293,18241
653328375744365632,52113,-27237,18296
653328375751801692,52009,-26089,18850
653328375759237752,51992,-26635,18555
653328375766673812,51996,-26963,18468
653328375774109872,52057,-27041,18401
653328375781545932,53210,-25884,19480
653328375788981992,52506,-26712,18807
653328375796418052,52092,-27062,18304
653328375803854112,52033,-27287,18359
653328375811290172,53074,-27318,18151
653328375818726232,52319,-27344,18080
653328375826162292,52014,-27371,18093
653328375833598352,51812,-27476,18057
653328375841034412,51767,-27475,18029
653328375848470472,51609,-27511,17851
653328375855906532,51628,-27583,17912
653328375863342592,51540,-27524,17970
653328375870776722,51487,-27741,18048
653328375878212896,51361,-27637,17959
653328375885649070,51377,-27668,17853
653328375893085244,51396,-27599,17892
653328375900521418,51437,-27492,17882
653328375907957592,51497,-27515,17969
653328375915393766,51394,-27565,17977
653328375922829940,51358,-27529,17929
653328375930266114,51361,-27524,18018
653328375937702288,51296,-27539,18004
653328375945138462,51319,-27656,18030
653328375952574636,51171,-27628,18020
653328375960010810,51198,-27659,17933
653328375967446984,51217,-27632,17841
653328375974883158,51117,-27666,17841
653328375982319332,51151,-27678,17852
653328375989755506,51107,-27724,17806
653328375997191680,51175,-27756,17629
653328376004629796,51059,-27700,17246
653328376012065856,51077,-27773,17508
653328376019501916,51074,-27837,17544
653328376026937976,51074,-27774,17519
653328376034374036,50960,-27742,17437
653328376041810096,50893,-27921,17466
653328376049246156,50922,-27794,17468
653328376056682216,50835,-27744,17434
653328376064118276,50851,-27791,17452
653328376071554336,50937,-26620,17307
653328376078990396,50886,-27312,17448
653328376086426456,50934,-27477,17388
653328376093862516,50873,-27586,17408
653328376101298576,51940,-26512,18647
653328376108734636,51281,-27188,18031
653328376116170696,51113,-27392,17788
653328376123606756,50985,-27555,17549
653328376131042816,51966,-27828,17933
653328376138476946,51530,-27612,17616
653328376145913120,51076,-27666,17596
653328376153349294,50972,-27682,17372
653328376160785468,50892,-27804,17434
653328376168221642,50785,-27757,17321
653328376175657816,50755,-27727,17403
653328376183093990,50653,-27867,17347
653328376190530164,50709,-27835,17399
653328376197966338,50683,-27850,17426
653328376205402512,50637,-27889,17378
653328376212838686,50645,-27800,17340
653328376220274860,50622,-27841,17416
653328376227711034,50664,-27749,17289
653328376235147208,50700,-27718,17375
653328376242583382,50644,-27907,17255
653328376250019556,50686,-27778,17388
653328376257455730,50624,-27880,17301
653328376264891904,50558,-27999,17287
653328376272330020,50825,-28170,17175
653328376279766080,50823,-27972,17360
653328376287202140,50683,-27834,17353
653328376294638200,50620,-27960,17280
653328376302074260,50650,-27825,17265
653328376309510320,50646,-27819,17267
653328376316946380,50651,-27773,17274
653328376324382440,50712,-27824,17196
653328376331818500,50668,-27806,17286
653328376339254560,50622,-27774,17218
653328376346690620,50563,-27706,17270
653328376354126680,50539,-27676,17179
653328376361562740,50637,-27733,17176
653328376368998800,50622,-27900,17211
653328376376434860,50670,-27733,17218
653328376383870920,50620,-27732,17208
653328376391306980,50671,-27662,17135
653328376398743040,50704,-27691,17239
653328376406177170,51017,-27892,17326
653328376413613344,50817,-27791,17178
653328376421049518,51489,-26618,18282
653328376428485692,51083,-27145,17659
653328376435921866,50821,-27500,17417
653328376443358040,50702,-27647,17271
653328376450794214,51833,-27663,18344
653328376458230388,51251,-27723,17831
653328376465666562,50932,-27662,17610
653328376473102736,50873,-27684,17472
653328376480538910,50801,-27610,17311
653328376487975084,50734,-27569,17343
653328376495411258,50675,-27750,17333
653328376502847432,50607,-27782,17353
653328376510283606,50632,-27618,17292
653328376517719780,50678,-27645,17339
653328376525155954,50730,-27569,17333
653328376532592128,50698,-27519,17400
653328376540030244,50636,-27429,17269
653328376547466304,50761,-27552,17417
653328376554902364,50612,-27530,17350
653328376562338424,50695,-27463,17303
653328376569774484,50812,-27398,17489
653328376577210544,50775,-27456,17504
653328376584646604,50758,-27576,17327
653328376592082664,50801,-27475,17459
653328376599518724,50780,-27544,17362
653328376606954784,50721,-27406,17462
653328376614390844,50830,-27456,17442
653328376621826904,50826,-27495,17371
653328376629262964,50889,-27413,17451
653328376636699024,50826,-27395,17500
653328376644135084,50856,-27451,17478
653328376651571144,50778,-27556,17420
653328376659007204,50844,-27414,17524
653328376666443264,50865,-27439,17577
653328376673906413,50567,-27385,17532
653328376681340880,50731,-27396,17589
653328376688775347,50754,-27503,17519
653328376696209814,50818,-27457,17383
653328376703644281,50792,-27420,17472
653328376711078748,50753,-27361,17527
653328376718513215,50782,-27388,17576
653328376725947682,50870,-27335,17520
653328376733382149,50865,-27321,17562
653328376740816616,50911,-26306,18584
653328376748251083,50893,-26794,18049
653328376755685550,50852,-27117,17822
653328376763120017,50872,-27275,17803
653328376770554484,51989,-26197,18873
653328376777988951,51270,-26874,18293
653328376785423418,51056,-27163,18065
653328376792857885,50953,-27240,17904
653328376800292352,51691,-27320,17910
653328376807670729,51180,-27607,18053
653328376815108496,50924,-27452,17827
653328376822546263,50768,-27414,17787
653328376829984030,50762,-27399,17993
653328376837421797,50625,-27539,17901
653328376844859564,50559,-27528,18004
653328376852297331,50540,-27561,17876
653328376859735098,50403,-27606,17920
653328376867172865,50353,-27504,17957
653328376874610632,50321,-27614,18007
653328376882048399,50290,-27634,17993
653328376889486166,50443,-27515,18237
653328376896923933,50245,-27531,18178
653328376904361700,50293,-27606,18162
653328376911799467,50199,-27619,18172
653328376919237234,50228,-27675,18254
653328376926675001,50164,-27618,18309
653328376934112768,50127,-27633,18384
653328376941606637,50142,-27436,18485
653328376949041104,50088,-27613,18448
653328376956475571,50061,-27646,18420
653328376963910038,50139,-27635,18435
653328376971344505,49871,-27704,18390
653328376978778972,49898,-27781,18288
653328376986213439,49912,-27751,18294
653328376993647906,49886,-27732,18361
653328377001082373,49945,-27712,18356
653328377008516840,49808,-27806,18322
653328377015951307,49785,-27821,18345
653328377023385774,49724,-27926,18245
653328377030820241,49864,-27799,18260
653328377038254708,49687,-27821,18340
653328377045689175,49693,-27836,18316
653328377053123642,49651,-27866,18421
653328377060558109,49614,-26700,18975
653328377067992576,49698,-27285,18533
653328377075399972,49578,-27806,18265
653328377082836032,49539,-27800,18287
653328377090272092,50648,-26819,19349
653328377097708152,50005,-27403,18918
653328377105144212,49749,-27627,18787
653328377112580272,49604,-27726,18724
653328377120016332,50636,-27804,18708
653328377127452392,49953,-27782,18684
653328377134888452,49800,-27910,18721
653328377142324512,49545,-27954,18641
653328377149760572,49404,-27946,18711
653328377157196632,49368,-28038,18765
653328377164632692,49392,-27908,18777
653328377172068752,49405,-27855,18831
653328377179504812,49315,-27752,18933
653328377186940872,49366,-27699,18960
653328377194376932,49293,-27765,19026
653328377201812992,49287,-27819,19075
653328377209249060,49365,-27764,19345
653328377216685120,49408,-27820,19127
653328377224121180,49231,-27736,19106
653328377231557240,49263,-27835,19148
653328377238993300,49346,-27764,19240
653328377246429360,49346,-27775,19270
653328377253865420,49273,-27860,19232
653328377261301480,49245,-27818,19170
653328377268737540,49357,-27807,19298
653328377276173600,49345,-27861,19447
653328377283609660,49259,-27724,19378
653328377291045720,49146,-27733,19342
653328377298481780,49119,-27869,19411
653328377305917840,49198,-27837,19638
653328377313353900,49182,-27686,19551
653328377320789960,49116,-27697,19566
653328377328226020,49152,-27687,19651
653328377335662080,49175,-27664,19707
653328377343067208,49155,-27780,19673
653328377350505088,49137,-27705,19643
653328377357942968,49163,-27697,19708
653328377365380848,49230,-27705,19748
653328377372818728,49186,-27690,19826
653328377380256608,49088,-27222,19749
653328377387694488,49221,-27473,19811
653328377395132368,49079,-27649,19767
653328377402570248,49055,-27610,19839
653328377410008128,50147,-26626,20899
653328377417446008,49563,-27311,20348
653328377424883888,49358,-27508,20153
653328377432321768,49220,-27628,20004
653328377439759648,50171,-27666,20794
653328377447197528,49639,-27717,20247
653328377454635408,49382,-27714,19959
653328377462073288,49306,-27658,19892
653328377469511168,49282,-27690,19943
653328377476949064,49157,-27751,19972
653328377484386944,49182,-27696,19989
653328377491824824,49233,-27712,19862
653328377499262704,49237,-27644,19805
653328377506700584,49172,-27686,19913
653328377514138464,49216,-27552,19968
653328377521576344,49255,-27583,20059
653328377529014224,49178,-27426,19984
653328377536452104,49265,-27563,19986
653328377543889984,49323,-27542,20025
653328377551327864,49250,-27625,19925
653328377558765744,49323,-27578,20032
653328377566203624,49299,-27569,20092
653328377573641504,49306,-27578,20158
653328377581079384,49358,-27546,20217
653328377588517264,49370,-27508,20259
653328377595955144,49315,-27465,20332
653328377603393024,49329,-27530,20328
653328377610861860,49583,-27486,20693
653328377618297920,49449,-27389,20607
653328377625733980,49457,-27403,20569
653328377633170040,49269,-27430,20524
653328377640606100,49348,-27409,20452
653328377648042160,49339,-27381,20647
653328377655478220,49336,-27274,20648
653328377662914280,49396,-27235,20724
653328377670350340,49423,-27219,20772
653328377677786400,49286,-27405,20796
653328377685222460,49353,-27296,20772
653328377692658520,49519,-27217,20908
653328377700094580,49485,-27155,20973
653328377707530640,49430,-27181,20986
653328377714966700,49561,-27205,21063
653328377722402760,49478,-27086,21082
653328377729838820,49822,-26068,22187
653328377737274880,49591,-26709,21517
653328377744710948,49834,-27013,21536
653328377752147008,49732,-27035,21300
653328377759583068,50841,-26601,22463
653328377767019128,50198,-26791,21781
653328377774455188,49861,-27021,21375
653328377781891248,49636,-27079,21436
653328377789327308,49449,-27069,21466
653328377796763368,49490,-27127,21445
653328377804199428,49469,-27239,21326
653328377811635488,49478,-27282,21411
653328377819071548,49325,-27244,21326
653328377826507608,49334,-27316,21320
653328377833943668,49270,-27254,21287
653328377841379728,49255,-27230,21220
653328377848815788,49194,-27331,21185
653328377856251848,49333,-27230,21245
653328377863687908,49255,-27249,21155
653328377871123968,49176,-27375,21112
653328377878556160,49449,-27391,21098
653328377885992448,49280,-27442,21143
653328377893428736,49206,-27469,21052
653328377900865024,49218,-27470,20896
653328377908301312,49180,-27499,20911
653328377915737600,49047,-27566,20856
653328377923173888,49005,-27553,20858
653328377930610176,48958,-27497,20782
653328377938046464,49067,-27487,20700
653328377945482752,49068,-27737,20558
653328377952919040,48941,-27664,20427
653328377960355328,48942,-27765,20308
653328377967791616,48935,-27746,20263
653328377975227904,48908,-27827,20240
653328377982664192,48893,-27898,20152
653328377990100480,48885,-27860,20016
653328377997536768,48837,-27880,20048
653328378004973056,48820,-27881,19935
653328378012413220,48599,-28115,20139
653328378019849280,48649,-27998,19952
653328378027285340,48727,-27927,19903
653328378034721400,48768,-27928,19784
653328378042157460,48773,-27974,19769
653328378049593520,48855,-26976,20890
653328378057029580,48825,-27524,20133
653328378064465640,48773,-27872,19878
653328378071901700,48755,-27949,19731
653328378079337760,49951,-26873,20790
653328378086773820,49279,-27468,20187
653328378094209880,49080,-27765,19913
653328378101645940,48875,-27863,19767
6.53328E+17,49824,-27897,19682
653328378116518060,49235,-28059,19617
653328378123954120,48976,-28038,19653
653328378131390180,48809,-28015,19573
653328378138826240,48903,-27945,19545
653328378146262308,49088,-28050,19645
653328378153698368,48918,-27941,19536
653328378161134428,48815,-27921,19519
653328378168570488,48905,-28053,19435
653328378176006548,48754,-28072,19483
653328378183442608,48768,-28070,19487
653328378190878668,48885,-27879,19376
653328378198314728,48859,-27889,19427
653328378205750788,48833,-27863,19514
653328378213186848,48902,-27989,19368
653328378220622908,48904,-28007,19396
653328378228058968,49020,-28011,19371
653328378235495028,49046,-27936,19562
653328378242931088,49059,-27905,19648
653328378250367148,49000,-27834,19750
653328378257803208,49014,-27833,19801
653328378265239268,48998,-27870,19923
653328378272675328,49074,-27735,19982
653328378280111396,48906,-27884,20188
653328378287547456,48981,-27810,20096
653328378294983516,49099,-27719,20080
653328378302419576,49170,-27585,20173
653328378309855636,49202,-27510,20312
653328378317291696,49295,-27468,20396
653328378324727756,49222,-27504,20483
653328378332163816,49199,-27567,20570
653328378339599876,49128,-27342,20596
653328378347035936,49220,-27340,20691
653328378354471996,49199,-27400,20637
653328378361908056,49225,-27470,20613
653328378369344116,49211,-26265,21841
653328378376780176,49058,-26860,21304
653328378384216236,49010,-27210,21031
653328378391652296,49110,-27298,20868
653328378399088356,50105,-26426,21944
653328378406524416,49305,-27056,21179
653328378414014646,48943,-27641,20411
653328378421447520,48621,-27935,20035
653328378428880394,49408,-28154,19526
653328378436313268,48642,-28441,18890
653328378443746142,48237,-28614,18444
653328378451179016,47834,-28902,17929
653328378458611890,47647,-29139,17392
653328378466044764,47405,-29337,17060
653328378473477638,47173,-29499,16576
653328378480910512,46894,-29643,16389
653328378488343386,46812,-29770,16159
653328378495776260,46624,-30023,15882
653328378503209134,46349,-30047,15688
653328378510642008,46046,-30254,15548
653328378518074882,45846,-30365,15458
653328378525507756,45472,-30559,15249
653328378532940630,45284,-30831,15138
653328378540373504,44950,-30946,15153
653328378547694207,44728,-31261,15348
653328378555133680,44187,-31481,15084
653328378562573153,43788,-31695,14841
653328378570012626,43390,-32032,14483
653328378577452099,43062,-32128,14020
653328378584891572,42849,-32203,13579
653328378592331045,42657,-32331,12863
653328378599770518,42550,-32408,12209
653328378607209991,42307,-32558,11271
653328378614649464,42225,-32720,10566
653328378622088937,42104,-32749,9909
653328378629528410,42014,-32835,9282
653328378636967883,42027,-32837,8557
653328378644407356,41995,-32907,8028
653328378651846829,42036,-32938,7371
653328378659286302,42223,-32633,6825
653328378666725775,42215,-32865,6382
653328378674165248,42319,-32859,5852
653328378681662756,42338,-32743,5118
653328378689098816,42592,-32015,4854
653328378696534876,42776,-32735,4250
653328378703970936,43079,-33146,3610
653328378711406996,43094,-33437,2969
653328378718843056,44222,-32687,3331
653328378726279116,43857,-33374,2301
653328378733715176,43685,-33837,1617
653328378741151236,43568,-34131,1079
653328378748587296,44350,-34345,839
653328378756023356,43672,-34633,636
653328378763459416,43372,-34885,405
653328378770895476,43005,-35112,207
653328378778331536,42645,-35329,59
653328378785767596,42576,-35456,-130
653328378793203656,42394,-35726,-407
653328378800639716,42301,-35955,-740
653328378808075776,42268,-36101,-1004
653328378815511844,42124,-36206,-1279
653328378822947904,41934,-36598,-1671
653328378830383964,41719,-36907,-1922
653328378837820024,41530,-37137,-2177
653328378845256084,41330,-37530,-2568
653328378852692144,41027,-37821,-2867
653328378860128204,40960,-38038,-3208
653328378867564264,40625,-38261,-3423
653328378875000324,40557,-38398,-3717
653328378882436384,40516,-38542,-3769
653328378889872444,40500,-38645,-3873
653328378897308504,40367,-38670,-3958
653328378904744564,40233,-38813,-4013
653328378912180624,40109,-38876,-4005
653328378919616684,40152,-38780,-3777
653328378927052744,40064,-38698,-3489
653328378934488804,40094,-38551,-3181
653328378941924864,40099,-38439,-2811
653328378949357056,40108,-38114,-2350
653328378956793344,40325,-37905,-1896
653328378964229632,40520,-37756,-1494
653328378971665920,40853,-37560,-1065
653328378979102208,41030,-37141,-478
653328378986538496,41165,-36782,189
653328378993974784,41502,-36465,774
653328379001411072,41677,-36186,1403
653328379008847360,42070,-35203,2178
653328379016283648,42219,-35194,2761
653328379023719936,42302,-35179,3330
653328379031156224,42452,-34952,3915
653328379038592512,43472,-33847,5380
653328379046028800,43094,-34192,5282
653328379053465088,43024,-34049,5502
653328379060901376,43050,-34066,5795
653328379068337664,44201,-33803,6753
653328379075773952,43824,-33498,6865
653328379083245056,43682,-33582,7168
653328379090679296,43814,-33027,7417
653328379098113536,43864,-32721,7602
653328379105547776,43984,-32493,7885
653328379112982016,44202,-32140,8071
653328379120416256,44439,-31876,8339
653328379127850496,44569,-31597,8651
653328379135284736,44684,-31466,8932
653328379142718976,44902,-31253,9344
653328379150153216,45086,-30785,9743
653328379157587456,45173,-30434,10078
653328379165021696,45243,-30369,10245
653328379172455936,45372,-30200,10460
653328379179890176,45557,-29967,10701
653328379187324416,45609,-29644,10887
653328379194758656,45810,-29578,10921
653328379202192896,45855,-29339,11006
653328379209627136,46092,-29120,11045
653328379216999496,46353,-28915,11361
653328379224437376,46356,-28789,11545
653328379231875256,46539,-28559,11794
653328379239313136,46622,-28441,11967
653328379246751016,46686,-28194,12239
653328379254188896,46709,-28125,12702
653328379261626776,46751,-27954,12934
653328379269064656,46840,-27758,13315
653328379276502536,46840,-27680,13680
653328379283940416,46899,-27442,13988
653328379291378296,46842,-27212,14418
653328379298816176,47120,-26956,14614
653328379306254056,47273,-26950,15052
653328379313691936,47216,-26683,15565
653328379321129816,47439,-26505,16073
653328379328567696,47475,-26286,16538
653328379336005576,47481,-25947,17003
653328379343443456,47731,-25647,17494
653328379350881352,48058,-25301,18020
653328379358319232,48598,-24295,19845
653328379365757112,48607,-24649,19645
653328379373194992,48685,-24615,19810
653328379380632872,48669,-24652,20391
653328379388070752,49713,-23977,22028
653328379395508632,49153,-24172,22178
653328379402946512,48983,-24283,22718
653328379410384392,48855,-24304,23322
653328379417822272,48844,-24137,23843
653328379425260152,48846,-24062,24482
653328379432698032,48885,-23890,25316
653328379440135912,48953,-23738,26011
653328379447573792,48878,-23523,26654
653328379455011672,48860,-23332,27307
653328379462449552,48858,-23229,27915
653328379469887432,48815,-22989,28522
653328379477325312,48841,-22676,29301
653328379484794148,48570,-22313,30286
653328379492230208,48847,-22007,30856
653328379499666268,48938,-21836,31382
653328379507102328,49005,-21396,31923
653328379514538388,49091,-21198,32491
653328379521974448,49293,-20787,33078
653328379529410508,49295,-20409,33664
653328379536846568,49482,-20110,34272
653328379544282628,49581,-19848,34650
653328379551718688,49664,-19642,35280
653328379559154748,49805,-19101,35794
653328379566590808,49737,-18904,36318
653328379574026868,49772,-18711,36942
653328379581462928,49765,-18401,37426
653328379588898988,49827,-18060,37851
653328379596335048,49898,-17710,38210
653328379603771108,49935,-17366,38647
653328379611207168,49966,-17161,39071
653328379618643236,50127,-17079,39636
653328379626079296,50044,-16634,39870
653328379633515356,50098,-16285,40030
653328379640951416,50235,-15940,40440
653328379648387476,50471,-15629,40389
653328379655823536,50656,-15200,40554
653328379663259596,51010,-14736,40875
653328379670695656,51478,-14214,41195
653328379678131716,51958,-12654,42277
653328379685567776,52493,-12501,41683
653328379693003836,52835,-12115,41418
653328379700439896,53121,-11701,41298
653328379707875956,54161,-10514,42264
653328379715312016,53605,-10709,41517
653328379722748076,53345,-10527,41108
653328379730184136,53240,-10504,40683
653328379737620196,54024,-10578,40160
653328379745056256,53721,-10689,39593
653328379752492324,53835,-11020,38761
653328379759928384,54160,-11038,38147
653328379767364444,54666,-11050,37840
653328379774800504,55413,-10918,38138
653328379782236564,56536,-10311,39402
653328379789672624,57555,-9685,40617
653328379797108684,58304,-9095,41826
653328379804544744,58633,-8391,43034
653328379811980804,58990,-7841,43707
653328379819416864,59037,-7639,43575
653328379826852924,58740,-7608,42712
653328379834288984,58248,-7827,41526
653328379841725044,57805,-8134,40354
653328379849161104,57283,-8726,38911
653328379856597164,56668,-9461,37077
653328379864033224,56248,-9953,34638
653328379871469284,55790,-10288,31864
653328379878905344,55246,-10439,28574
653328379886395574,54829,-10647,26306
653328379893828448,54935,-9722,25466
653328379901261322,55081,-8673,25638
653328379908694196,55451,-7580,26111
653328379916127070,55783,-6572,26763
653328379923559944,56308,-5584,27594
653328379930992818,56965,-4637,28626
653328379938425692,57698,-3527,30157
653328379945858566,58504,-2457,32536
653328379953291440,59934,-1048,35704
653328379960724314,61695,785,39824
653328379968157188,63524,2847,44010
653328379975590062,65048,4962,47529
653328379983022936,66438,6714,49714
653328379990455810,67335,7482,50216
653328379997888684,68195,8550,49902
653328380005321558,68992,7759,48854
653328380012754432,69680,7259,47737
653328380020075135,70322,7073,46825
653328380027514608,71823,7349,46512
653328380034954081,72023,6792,44904
653328380042393554,72330,6744,44033
653328380049833027,72652,7040,43373
653328380057272500,73914,7507,42678
653328380064711973,73789,8166,42018
653328380072151446,74129,8959,41155
653328380079590919,74617,9560,40196
653328380087030392,75038,10147,39466
653328380094469865,75310,10735,39426
653328380101909338,75775,11418,39624
653328380109348811,76079,12065,40110
653328380116788284,76308,12637,40759
653328380124227757,76480,13288,41582
653328380131667230,76586,13760,42359
653328380139106703,76740,14203,43227
653328380146546176,76765,14727,43924
653328380154101705,76508,15078,44869
653328380161534352,76602,15443,45567
653328380168966999,76615,15880,46365
653328380176399646,76586,16384,47299
653328380183832293,76550,16693,48197
653328380191264940,76595,17125,49037
653328380198697587,76759,17520,50051
653328380206130234,76813,17996,51140
653328380213562881,76822,18590,52364
653328380220995528,76986,19427,53698
653328380228428175,77078,20019,55069
653328380235860822,77272,20787,56552
653328380243293469,77382,21536,58201
653328380250726116,77516,22624,60134
653328380258158763,77721,23661,62253
653328380265591410,77972,24556,64262
653328380273024057,78194,25514,66172
653328380280456704,78313,26307,67984
653328380287773311,78425,27465,69766
653328380295212784,78567,28171,71067
653328380302652257,78608,28811,72574
653328380310091730,78646,29501,73980
653328380317531203,78577,30426,75527
653328380324970676,78468,30988,76874
653328380332410149,78271,31528,78016
653328380339849622,78334,32171,79248
653328380347289095,78642,33235,80956
653328380354728568,78300,33397,81832
653328380362168041,78064,33709,82835
653328380369607514,77751,34215,83851
653328380377046987,78271,34744,85392
653328380384486460,77690,35030,86103
653328380391925933,77401,35442,87050
653328380399365406,77113,35774,88101
653328380406804879,76874,36123,89266
653328380414244352,76602,36327,90249
653328380421737984,75967,36560,91713
653328380429174272,75712,36875,92658
653328380436610560,75460,37241,93666
653328380444046848,75373,37528,94626
653328380451483136,75147,37983,95784
653328380458919424,74856,38350,96851
653328380466355712,74550,38657,97874
6.53328E+17,74372,39061,98778
653328380481228288,74308,39291,99747
653328380488664576,74099,39627,100762
653328380496100864,73887,40060,101707
653328380503537152,73562,40248,102626
653328380510973440,73276,40633,103537
653328380518409728,72915,40974,104485
653328380525846016,72563,41343,105490
653328380533282304,71994,41693,106678
653328380540718592,71174,41943,108003
653328380548154880,70236,41844,109252
653328380555595044,69278,41050,110114
653328380563031104,67711,40261,110804
653328380570467164,65844,38759,110818
653328380577903224,64032,36606,110333
653328380585339284,62274,34515,109705
653328380592775344,60786,32463,109327
653328380600211404,59695,30630,109274
653328380607647464,59356,28841,109034
653328380615083524,59317,26976,108585
653328380622519584,59655,24984,107582
653328380629955644,60001,22906,106150
653328380637391704,60106,20738,103286
653328380644827764,59907,18472,99465
653328380652263824,59536,16484,95476
653328380659699884,59441,14820,91386
653328380667135944,59362,14168,88249
653328380674572004,59529,12618,84481
653328380682008064,59635,11410,81181
653328380689444132,60004,10459,78047
653328380696880192,61066,10493,76228
653328380704316252,60881,9290,73154
653328380711752312,60985,8474,70405
653328380719188372,61090,7888,67707
653328380726624432,61618,7664,65063
653328380734060492,61770,7424,62578
653328380741496552,61921,7448,60053
653328380748932612,62086,7850,57149
653328380756368672,62181,8319,53934
653328380763804732,62412,8788,50279
653328380771240792,62693,9852,46276
653328380778676852,62980,11016,42360
653328380786112912,63125,12503,38487
653328380793548972,63290,14063,35449
653328380800985032,63500,15915,33076
653328380808421092,63533,17680,31290
653328380815857152,63667,19849,30156
653328380823293220,63558,21556,29264
653328380830729280,63627,23842,29034
653328380838165340,63531,26039,29001
653328380845601400,63438,28023,29492
653328380853037460,63192,29896,30033
653328380860473520,62910,31522,30757
653328380867909580,62641,33044,31785
653328380875345640,62436,34411,32855
653328380882781700,62246,35817,34235
653328380890217760,61922,37119,35470
653328380897653820,61802,38393,36703
653328380905089880,61442,39414,37841
653328380912525940,61155,40626,38842
6.53328E+17,61067,41678,39983
653328380927398060,60751,42653,41251
653328380934834120,60368,43560,42299
653328380942270180,60256,44543,43399
653328380949706240,59987,45279,44256
653328380957138432,59623,46076,44777
653328380964574720,59409,46666,45582
653328380972011008,59386,47416,46495
653328380979447296,59204,47895,47232
653328380986883584,58945,49652,49005
653328380994319872,58991,49645,49136
653328381001756160,59078,49978,49426
653328381009192448,59254,50362,50091
653328381016628736,60264,51689,51645
653328381024065024,59722,51634,51707
653328381031501312,59611,51942,52238
653328381038937600,59589,52305,52764
653328381046373888,60585,52511,53227
653328381053810176,59937,52886,53846
653328381061246464,59753,53328,54562
653328381068682752,59540,53695,55074
653328381076119040,59438,54107,55650
653328381083555328,59528,54482,56203
653328381091026432,59804,55116,57068
653328381098460672,59828,55294,57506
653328381105894912,59681,55463,57795
653328381113329152,59790,55699,58261
653328381120763392,59900,56105,58732
653328381128197632,59913,56278,59104
653328381135631872,60033,56418,59395
653328381143066112,60240,56591,59599
653328381150500352,60404,56777,59882
653328381157934592,60757,56857,59980
653328381165368832,61136,56853,60032
653328381172803072,61607,56775,60169
653328381180237312,62237,56743,60368
653328381187671552,62981,56683,60362
653328381195105792,64071,56569,60701
653328381202540032,65028,56582,60814
653328381209974272,66053,56607,60867
653328381217408512,67380,56598,60739
653328381224780872,68704,56596,60269
653328381232218752,69968,56532,59553
653328381239656632,71022,56585,58797
653328381247094512,72009,56433,57762
653328381254532392,72591,56064,56552
653328381261970272,73159,55657,55283
653328381269408152,73386,55497,53935
653328381276846032,73477,55187,52454
653328381284283912,73393,54799,50863
653328381291721792,73115,54259,49243
653328381299159672,72442,53697,47568
653328381306597552,71607,53771,46164
653328381314035432,70837,52513,45032
653328381321473312,70226,51485,44048
653328381328911192,69428,50616,43043
653328381336349072,69372,50525,42839
653328381343786952,68080,49076,41281
653328381351224832,67308,47751,39995
653328381358747830,66492,46908,39008
653328381366180704,66988,45843,38743
653328381373613578,66126,44865,37535
653328381381046452,65766,43975,36945
653328381388479326,65781,43172,36936
653328381395912200,66161,42496,37039
653328381403345074,66985,41957,37235
653328381410777948,68259,41639,37448
653328381418210822,69550,41417,38038
653328381425643696,71170,41128,39190
653328381433076570,72813,40973,40811
653328381440509444,74870,40815,42395
653328381447942318,77207,40448,42529
653328381455375192,79734,39444,40140
653328381462808066,81172,36979,34122
653328381470240940,80221,32995,25409
