timestamp,ch1,ch2,ch3
653324605802079816,332671,263652,459990
653324605809521792,332725,263726,460057
653324605816963768,332617,263644,459832
653324605824405744,333271,263618,459771
653324605831847720,332836,263471,459715
653324605839289696,332621,263493,459580
653324605846731672,332435,263458,459416
653324605854173648,332348,263448,459227
653324605861615624,332259,263320,459045
653324605869057600,332105,263283,458861
653324605876499576,332192,263267,458889
653324605883941552,332149,263003,458854
653324605891383528,331923,263125,458631
653324605898825504,331807,263067,458572
653324605906267480,331887,263006,458391
653324605913709456,331780,262879,458125
653324605921151432,331681,263004,458029
653324605928593408,331752,263008,457900
653324605936159177,331603,262764,457976
653324605943593872,331754,263018,457778
653324605951028567,331689,262971,457567
653324605958463262,331713,262771,457286
653324605965897957,331623,262765,457202
653324605973332652,331592,262904,457095
653324605980767347,331538,262984,456871
653324605988202042,331555,262925,456658
653324605995636737,331485,262874,456643
653324606003071432,331551,262951,456466
653324606010506127,331554,262913,456373
653324606017940822,331497,262896,456315
653324606025375517,331280,262978,456187
653324606032810212,331311,262847,456167
653324606040244907,331260,262906,456313
653324606047679602,331298,262774,456300
653324606055114297,331198,262749,456189
653324606062548992,331211,262669,456157
653324606069859912,331329,262543,456351
653324606077301888,331171,262612,456274
653324606084743864,331093,263280,456471
653324606092185840,331116,262924,456159
653324606099627816,331125,262706,456280
653324606107069792,331224,262650,456134
653324606114511768,331155,262580,456077
653324606121953744,331134,262547,455962
653324606129395720,331136,262503,455883
653324606136837696,331097,262387,455816
653324606144279672,331672,262414,455702
653324606151721648,331433,262433,455600
653324606159163624,331341,262476,455491
653324606166605600,331196,262608,455409
653324606174047576,331179,262389,455174
653324606181489552,331214,262604,455049
653324606188931528,331171,262641,454983
653324606196373504,331180,262633,454772
653324606203939273,331027,262777,454745
653324606211373968,331034,262709,454668
653324606218808663,331015,262577,454610
653324606226243358,331098,262725,454378
653324606233678053,331047,262555,454415
653324606241112748,331053,262587,454320
653324606248547443,331052,262463,454347
653324606255982138,331049,262572,454357
653324606263416833,331065,262633,454419
653324606270851528,330958,262824,454318
653324606278286223,330864,262669,454349
653324606285720918,330944,262584,454414
653324606293155613,330931,262631,454321
653324606300590308,330967,262523,454344
653324606308025003,330834,262533,454239
653324606315459698,330934,262528,454307
653324606322894393,330965,262479,454391
653324606330329088,330890,262417,454438
653324606337763785,331084,262145,454609
653324606345198480,330911,262415,454485
653324606352633175,330984,262493,454470
653324606360067870,331026,262410,454403
653324606367502565,330896,262426,454307
653324606374937260,330948,262549,454416
653324606382371955,331013,262483,454493
653324606389806650,331032,262515,454563
653324606397241345,330971,262585,454505
653324606404676040,330825,262772,454539
653324606412110735,330941,262533,454701
653324606419545430,330873,262378,454658
653324606426980125,331090,262470,454754
653324606434414820,330936,262443,454823
653324606441849515,330814,262400,454767
653324606449284210,330879,262394,454801
653324606456718905,330750,262412,454725
653324606464153600,331529,262409,455421
653324606471588297,331244,262412,454828
653324606479022992,331102,262384,454909
653324606486457687,331164,262418,454933
653324606493892382,331124,262423,454792
653324606501327077,331134,262435,454604
653324606508761772,331057,262478,454520
653324606516196467,331089,262578,454491
653324606523631162,331122,262652,454368
653324606531065857,331153,262671,454302
653324606538500552,331255,262714,454363
653324606545935247,331188,262721,454329
653324606553369942,331153,262651,454184
653324606560804637,331101,262645,454191
653324606568239332,331162,262542,454174
653324606575674027,331074,262546,454137
653324606583108722,331280,262667,454237
653324606590543417,331197,262479,454188
653324606597978112,331084,262397,454125
653324606605289032,331169,262246,453947
653324606612731008,331002,262262,453951
653324606620172984,330855,262183,454011
653324606627614960,330747,262191,453913
653324606635056936,330733,261970,453902
653324606642498912,330578,261986,453700
653324606649940888,330557,261915,453540
653324606657382864,330545,261994,453484
653324606664824840,330350,261932,453253
653324606672266816,330281,261756,452929
653324606679708792,330283,261825,452730
653324606687150768,330280,261875,452541
653324606694592744,330314,261941,452452
653324606702034720,330180,261832,452287
653324606709476696,330201,261881,452284
653324606716918672,330169,261821,452332
653324606724360648,330182,261905,452380
653324606731802624,330134,261867,452465
653324606739492187,330018,261524,452392
653324606746919600,329905,261461,452425
653324606754347013,329892,261419,452524
653324606761774426,329921,261570,452543
653324606769201839,329913,261436,452577
653324606776629252,329859,261378,452647
653324606784056665,330507,261983,453437
653324606791484078,330030,261699,453085
653324606798911491,329806,261438,452840
653324606806338904,329677,261352,452900
653324606813766317,329666,261243,452841
653324606821193730,329593,261258,452902
653324606828621143,329594,261139,452988
653324606836048556,329516,261234,452986
653324606843475969,329532,261162,452797
653324606850903382,329378,261073,452884
653324606858330795,329416,260964,452914
653324606865758208,329340,260937,452948
653324606872938056,329502,260528,453280
653324606880380032,329446,260667,453246
653324606887822008,329286,260711,453240
653324606895263984,329406,260739,453276
653324606902705960,329268,260945,453176
653324606910147936,329265,260877,452916
653324606917589912,329218,260737,452814
653324606925031888,329105,260763,452610
653324606932473864,329179,260735,452305
653324606939915840,329301,260835,452149
653324606947357816,329207,260924,452002
653324606954799792,329302,260953,451878
653324606962241768,329160,260876,451578
653324606969683744,329269,261043,451375
653324606977125720,329243,261094,451373
653324606984567696,329184,261070,451369
653324606992009672,329228,260941,451406
653324606999451648,329207,260940,451313
653324607007017417,329181,260729,451050
653324607014452112,329205,260746,451306
653324607021886807,329166,260895,451456
653324607029321502,329186,260962,451630
653324607036756197,329223,260984,451744
653324607044190892,329263,260879,451932
653324607051625587,329246,260809,451940
653324607059060282,329181,260837,452041
653324607066494977,329245,260787,452040
653324607073929672,329139,260760,452154
653324607081364367,329197,260749,452309
653324607088799062,329105,260743,452141
653324607096233757,329129,260711,452255
653324607103668452,329897,261403,453014
653324607111103147,329542,260996,452674
653324607118537842,329421,260883,452565
653324607125972537,329358,260829,452514
653324607133407232,329272,260894,452357
653324607140718152,329332,261093,452148
653324607148160128,329336,260932,452197
653324607155602104,329257,260900,452307
653324607163044080,329281,260911,452254
653324607170486056,329235,260851,452363
653324607177928032,329194,260836,452267
653324607185370008,329183,260922,452181
653324607192811984,329378,260982,452169
653324607200253960,329397,260995,452049
653324607207695936,329429,260982,452083
653324607215137912,329311,260977,452183
653324607222579888,329498,260964,452195
653324607230021864,329349,261001,452011
653324607237463840,329427,260929,452114
653324607244905816,329471,260948,452179
653324607252347792,329450,260910,452215
653324607259789768,329452,260897,452236
653324607267231744,329537,260943,452193
653324607274921307,329625,260995,451982
653324607282348720,329577,260798,452072
653324607289776133,329531,260827,452073
653324607297203546,329521,260834,452113
653324607304630959,329434,260892,452039
653324607312058372,329488,260894,452161
653324607319485785,329512,260925,451947
653324607326913198,329546,260919,451842
653324607334340611,329583,260976,451845
653324607341768024,329700,260958,451928
653324607349195437,329623,260968,451747
653324607356622850,329618,260815,451695
653324607364050263,329642,260937,451682
653324607371477676,329618,260888,451667
653324607378905089,329681,260926,451584
653324607386332502,329609,260933,451534
653324607393759915,329538,260832,451384
653324607401187328,329454,260744,451443
653324607408367176,329266,260862,451566
653324607415809152,329278,260856,451307
653324607423251128,330025,261417,451822
653324607430693104,329666,260830,451318
653324607438135080,329420,260621,451032
653324607445577056,329210,260347,450899
653324607453019032,329150,260367,450802
653324607460461008,329043,260359,450613
653324607467902984,329078,260193,450639
653324607475344960,329031,260078,450557
653324607482786936,328887,260115,450589
653324607490228912,328909,259964,450411
653324607497670888,328977,260021,450478
653324607505112864,328872,259993,450230
653324607512554840,328853,259933,450207
653324607519996816,328740,259924,450159
653324607527438792,328818,259881,450194
653324607534880768,328853,259870,450125
653324607542322760,328951,260044,450229
653324607549764736,328951,259909,450047
653324607557206712,328717,259756,449850
653324607564648688,328573,259725,449695
653324607572090664,328761,259719,449596
653324607579532640,328729,259715,449674
653324607586974616,328719,259849,449699
653324607594416592,328762,259816,449531
653324607601858568,328812,259905,449542
653324607609300544,328808,259864,449384
653324607616742520,328754,259856,449337
653324607624184496,328716,259805,449419
653324607631626472,328715,259676,449279
653324607639068448,328643,259745,449306
653324607646510424,328692,259807,449341
653324607653952400,328728,259874,449294
653324607661394376,328674,259776,449461
653324607668836352,328707,259706,449308
653324607676525915,328450,259385,449076
653324607683953328,328585,259564,449227
653324607691380741,328720,259662,449311
653324607698808154,328836,259729,449241
653324607706235567,328715,259813,449214
653324607713662980,328672,259735,449217
653324607721090393,328648,259783,449300
653324607728517806,328707,259715,449259
653324607735945219,328630,259770,449223
653324607743372632,329409,260489,449930
653324607750800045,329101,260172,449483
653324607758227458,328928,259967,449218
653324607765654871,328881,259880,449154
653324607773082284,328913,259925,449265
653324607780509697,328851,259835,449159
653324607787937110,328903,259798,448991
653324607795364523,328795,259805,448955
653324607802791936,328926,259893,448999
653324607809971784,328814,260103,448706
653324607817413760,328814,260069,448813
653324607824855736,328950,260092,448940
653324607832297712,328863,260087,448978
653324607839739688,328919,260011,449012
653324607847181664,328924,259964,449108
653324607854623640,329013,260047,449107
653324607862065616,329036,260050,449153
653324607869507592,329091,260028,449173
653324607876949568,329192,260142,449075
653324607884391544,329292,260077,449065
653324607891833520,329181,260132,448997
653324607899275496,329285,260134,449077
653324607906717472,329357,260255,449248
653324607914159448,329382,260264,449211
653324607921601424,329417,260307,449219
653324607929043400,329289,260331,449293
653324607936485376,329298,260360,449336
653324607944051145,329523,260414,448781
653324607951485840,329334,260365,449036
653324607958920535,329461,260504,449166
653324607966355230,329653,260536,449345
653324607973789925,329647,260529,449355
653324607981224620,329597,260572,449164
653324607988659315,329627,260650,449319
653324607996094010,329713,260707,449457
653324608003528705,329799,260705,449370
653324608010963400,329891,260746,449348
653324608018398095,329859,260718,449367
653324608025832790,329948,260625,449490
653324608033267485,329972,260698,449575
653324608040702180,329924,260661,449662
653324608048136875,329990,260600,449790
653324608055571570,330014,260810,449837
653324608063006265,330775,261467,450681
653324608070440960,330337,261019,450184
653324608077875657,330536,260752,450242
653324608085310352,330259,260826,449999
653324608092745047,330276,260818,450032
653324608100179742,330219,260858,449938
653324608107614437,330172,260897,450196
653324608115049132,330362,261002,450178
653324608122483827,330406,261048,450240
653324608129918522,330443,261071,450394
653324608137353217,330412,261007,450354
653324608144787912,330383,260961,450334
653324608152222607,330250,260936,450417
653324608159657302,330367,260881,450377
653324608167091997,330325,260880,450442
653324608174526692,330367,260865,450443
653324608181961387,330345,261042,450489
653324608189396082,330213,260907,450285
653324608196830777,330074,260772,450271
653324608204265472,330166,260720,450159
653324608211700169,330472,260504,450308
653324608219134864,330408,260617,450167
653324608226569559,330351,260615,450021
653324608234004254,330337,260648,450021
653324608241438949,330299,260522,449857
653324608248873644,330273,260612,449893
653324608256308339,330205,260562,449767
653324608263743034,330144,260552,449714
653324608271177729,330197,260503,449743
653324608278612424,330050,260544,449663
653324608286047119,330071,260439,449512
653324608293481814,330174,260468,449648
653324608300916509,330091,260446,449548
653324608308351204,330142,260443,449466
653324608315785899,330085,260364,449483
653324608323220594,330133,260351,449467
653324608330655289,330126,260415,449483
653324608338089984,330139,260505,449436
653324608345400904,330057,260539,449212
653324608352842880,330153,260546,449165
653324608360284856,330231,260471,449251
653324608367726832,330162,260545,449187
653324608375168808,330083,260535,449269
653324608382610784,330268,261257,449842
653324608390052760,330319,260877,449583
653324608397494736,330387,260565,449434
653324608404936712,330365,260544,449444
653324608412378688,330249,260549,449301
653324608419820664,330299,260587,449375
653324608427262640,330434,260608,449344
653324608434704616,330532,260531,449412
653324608442146592,330429,260493,449526
653324608449588568,330590,260549,449591
653324608457030544,330633,260557,449617
653324608464472520,330554,260465,449541
653324608471914496,330537,260498,449682
653324608479604059,330941,260317,449500
653324608487031472,330737,260566,449648
653324608494458885,330650,260669,449823
653324608501886298,330575,260661,449826
653324608509313711,330625,260650,449822
653324608516741124,330691,260671,450134
653324608524168537,330734,260566,450142
653324608531595950,330729,260706,450359
653324608539023363,330745,260650,450472
653324608546450776,330677,260736,450393
653324608553878189,330919,260633,450593
653324608561305602,330928,260627,450862
653324608568733015,330919,260670,450763
653324608576160428,330942,260657,450920
653324608583587841,330993,260652,450981
653324608591015254,331036,260743,451170
653324608598442667,331050,260736,451146
653324608605870080,330987,260774,451516
653324608613049928,331348,260555,451294
653324608620491904,331376,260716,451526
653324608627933880,331268,260772,451693
653324608635375856,331314,260729,451826
653324608642817832,331281,260864,451970
653324608650259808,331310,260878,452072
653324608657701784,331278,260797,452171
653324608665143760,331304,260787,452343
653324608672585736,331322,260775,452593
653324608680027712,331426,260774,452585
653324608687469688,331503,260891,452750
653324608694911664,331478,261001,452666
653324608702353640,331526,261674,453545
653324608709795616,331688,261199,453446
653324608717237592,331737,261093,453282
653324608724679568,331689,261010,453380
653324608732121544,331638,261129,453381
653324608739563520,331731,261160,453317
653324608747129289,332063,260982,453642
653324608754563984,331977,261132,453534
653324608761998679,332182,261118,453481
653324608769433374,332061,261203,453440
653324608776868069,332047,261338,453701
653324608784302764,332078,261231,453785
653324608791737459,332024,261249,453790
653324608799172154,332004,261282,453864
653324608806606849,332067,261307,453991
653324608814041544,332220,261326,454217
653324608821476239,332206,261381,454240
653324608828910934,332192,261449,454350
653324608836345629,332184,261471,454513
653324608843780324,332423,261604,454588
653324608851215019,332396,261580,454672
653324608858649714,332388,261588,454727
653324608866084409,332509,261599,455016
653324608873519104,332457,261673,455005
653324608880830024,332557,261884,455248
6.53325E+17,332498,261671,455133
653324608895713976,332503,261594,455292
653324608903155952,332551,261732,455179
653324608910597928,332626,261742,455410
653324608918039904,332712,261721,455562
653324608925481880,332748,261801,455616
653324608932923856,332782,261793,455742
653324608940365832,332725,261752,455761
653324608947807808,332842,261742,455862
653324608955249784,332809,261756,455900
653324608962691760,332694,261753,455913
653324608970133736,332694,261636,456178
653324608977575712,332787,261604,456177
653324608985017688,332747,261613,456176
653324608992459664,332800,261592,456296
653324608999901640,332694,261443,456191
653324609007343616,332678,261386,456338
653324609014909385,332800,261069,456766
653324609022344080,332686,261870,457282
653324609029778775,332716,261560,456975
653324609037213470,332642,261418,456824
653324609044648165,332627,261337,456774
653324609052082860,332653,261273,456845
653324609059517555,332650,261179,456798
653324609066952250,332578,261180,456738
653324609074386945,332701,261160,456714
653324609081821640,333333,261214,456672
653324609089256335,333051,261246,456799
653324609096691030,332907,261252,456778
653324609104125725,332828,261183,456754
653324609111560420,332762,261351,456586
653324609118995115,332778,261239,456535
653324609126429810,332739,261249,456423
653324609133864505,332843,261327,456262
653324609141299200,332834,261477,456141
653324609148733897,333079,261313,455929
653324609156168592,333077,261443,456023
653324609163603287,332983,261480,456050
653324609171037982,332903,261519,455864
653324609178472677,332903,261678,455825
653324609185907372,333006,261655,455877
653324609193342067,332977,261628,455785
653324609200776762,333077,261702,455826
653324609208211457,333159,261732,455719
653324609215646152,333205,261797,455837
653324609223080847,333142,261893,455802
653324609230515542,333201,261778,455885
653324609237950237,333128,261783,455875
653324609245384932,333184,261762,455911
653324609252819627,333234,261746,455898
653324609260254322,333207,261796,456092
653324609267689017,333321,261798,456105
653324609275123712,333304,261815,456057
653324609282434632,333231,261650,455940
653324609289876608,333200,261774,456037
653324609297318584,333242,261791,456052
653324609304760560,333262,261639,456101
653324609312202536,333257,261722,456204
653324609319644512,333249,261696,456220
653324609327086488,333378,261586,456211
653324609334528464,333363,261705,456307
653324609341970440,333340,262324,456700
653324609349412416,333333,261901,456525
653324609356854392,333310,261909,456444
653324609364296368,333453,261973,456433
653324609371738344,333459,261872,456487
653324609379180320,333489,261856,456482
653324609386622296,333599,261877,456354
653324609394064272,333581,261907,456365
653324609401506248,334183,261927,456426
653324609408948224,333900,262020,456452
653324609416513993,333981,261933,456426
653324609423948688,333834,261973,456528
653324609431383383,333717,261972,456371
653324609438818078,333613,262040,456374
653324609446252773,333746,261970,456477
653324609453687468,333767,262014,456577
653324609461122163,333715,261979,456697
653324609468556858,333713,262030,456653
653324609475991553,333704,261991,456697
653324609483426248,333723,262035,456911
653324609490860943,333779,262094,456911
653324609498295638,333807,262042,456975
653324609505730333,333738,262048,456936
653324609513165028,333788,262137,457121
653324609520599723,333746,262178,457157
653324609528034418,333812,262053,457193
653324609535469113,333705,262075,457261
653324609542903808,333694,262132,457192
653324609550338505,333600,262052,457485
653324609557773200,333889,262133,457429
653324609565207895,333833,262201,457288
653324609572642590,333975,262211,457391
653324609580077285,333846,262237,457298
653324609587511980,333858,262202,457386
653324609594946675,334047,262290,457297
653324609602381370,334036,262251,457343
653324609609816065,334165,262271,457414
653324609617250760,334016,262327,457424
653324609624685455,334126,262272,457528
653324609632120150,334195,262355,457616
653324609639554845,334164,262388,457586
653324609646989540,334137,262312,457677
653324609654424235,334132,262357,457757
653324609661858930,334274,263064,457935
653324609669293625,334313,262660,457916
653324609676728320,334292,262521,457900
653324609684039240,334569,262444,458213
653324609691481216,334477,262451,458071
653324609698923192,334445,262439,458095
653324609706365168,334469,262498,458116
653324609713807144,334488,262413,458218
653324609721249120,335103,262416,458313
653324609728691096,334841,262367,458406
653324609736133072,334576,262470,458544
653324609743575048,334484,262493,458605
653324609751017024,334413,262483,458544
6.53325E+17,334421,262423,458506
653324609765900976,334350,262407,458592
653324609773342952,334187,262240,458606
653324609780784928,334273,262209,458620
653324609788226904,334145,262100,458517
653324609795668880,334136,262190,458463
653324609803110856,334093,262098,458386
653324609810552832,334098,261985,458291
653324609818242395,334310,261640,458375
653324609825669808,334097,261819,458329
653324609833097221,334054,261781,458270
653324609840524634,334040,261867,458172
653324609847952047,334001,261742,458085
653324609855379460,333866,261821,457920
653324609862806873,333819,261724,457841
653324609870234286,333786,261710,457750
653324609877661699,333723,261586,457672
653324609885089112,333727,261575,457588
653324609892516525,333679,261648,457468
653324609899943938,333722,261608,457474
653324609907371351,333648,261474,457438
653324609914798764,333552,261500,457161
653324609922226177,333533,261415,457179
653324609929653590,333533,261370,457044
653324609937081003,333549,261398,457049
653324609944508416,333546,261453,457072
653324609951688264,333122,261611,457329
653324609959130240,333355,261448,456988
653324609966572216,333302,261426,456922
653324609974014192,333397,261276,456759
653324609981456168,333413,262023,456855
653324609988898144,333353,261511,456771
653324609996340120,333401,261346,456738
653324610003782096,333377,261227,456865
653324610011224072,333355,261188,456724
653324610018666048,333345,261261,456689
653324610026108024,333287,261138,456811
6.53325E+17,333414,261059,456771
653324610040991976,334132,261145,457040
653324610048433952,333689,261153,456920
653324610055875928,333506,261101,456897
653324610063317904,333397,261094,456887
653324610070759880,333356,261046,457040
653324610078201856,333233,261048,457055
653324610085767625,333453,261256,457071
653324610093202320,333446,261154,456922
653324610100637015,333466,261170,456900
653324610108071710,333489,261108,456815
653324610115506405,333282,261124,456782
653324610122941100,333340,261146,456803
653324610130375795,333364,261076,456808
653324610137810490,333306,261074,456809
653324610145245185,333405,261085,456744
653324610152679880,333415,261076,456789
653324610160114575,333494,261221,456873
653324610167549270,333477,261155,456856
653324610174983965,333384,261028,456903
653324610182418660,333319,261154,456851
653324610189853355,333399,261187,456968
653324610197288050,333447,261111,457019
653324610204722745,333354,261145,456863
653324610212157440,333456,261144,456862
653324610219592137,333583,260931,456872
653324610227026832,333430,261015,456908
653324610234461527,333370,261136,456938
653324610241896222,333385,261024,457072
653324610249330917,333390,260938,457097
653324610256765612,333342,261031,457194
653324610264200307,333289,261076,457255
653324610271635002,333289,261129,457204
653324610279069697,333234,261121,457271
653324610286504392,333329,261079,457284
653324610293939087,333446,261074,457287
653324610301373782,333513,261592,457356
653324610308808477,333424,261334,457213
653324610316243172,333524,261212,457454
653324610323677867,333490,261069,457430
653324610331112562,333479,261129,457405
653324610338547257,333414,261150,457470
653324610345981952,333547,261122,457452
653324610353292872,333714,261185,457890
653324610360734848,334223,261186,458037
653324610368176824,333705,261177,457712
653324610375618800,333493,261219,457515
653324610383060776,333578,261214,457609
653324610390502752,333462,261201,457563
653324610397944728,333382,261108,457588
653324610405386704,333550,261135,457588
653324610412828680,333414,261047,457634
653324610420270656,333382,261206,457752
653324610427712632,333476,261282,457701
653324610435154608,333594,261341,457711
653324610442596584,333725,261193,457753
653324610450038560,333672,261202,457668
653324610457480536,333621,261235,457483
653324610464922512,333592,261205,457693
653324610472364488,333686,261196,457815
653324610479806464,333756,261118,457864
653324610487372233,333854,260906,458165
653324610494806928,333732,261224,457772
653324610502241623,333725,261291,457803
653324610509676318,333778,261353,457856
653324610517111013,333713,261229,457784
653324610524545708,333780,261309,457845
653324610531980403,333691,261252,457726
653324610539415098,333719,261252,457767
653324610546849793,333776,261354,457675
653324610554284488,333791,261355,457774
653324610561719183,333823,261252,457778
653324610569153878,333785,261282,457929
653324610576588573,333830,261315,458033
653324610584023268,333786,261224,458096
653324610591457963,333813,261289,458037
653324610598892658,333725,261177,458030
653324610606327353,333714,261219,458231
653324610613762048,333681,261226,458243
653324610621196745,333385,260983,458018
653324610628631440,333481,261009,458120
653324610636066135,333464,261054,457958
653324610643500830,333578,260797,458095
653324610650935525,333505,260716,458010
653324610658370220,333329,260692,457951
653324610665804915,333338,260660,457887
653324610673239610,333317,260588,457927
653324610680674305,333956,260582,458548
6.53325E+17,333402,260503,458209
653324610695543695,333282,260429,457893
653324610702978390,333099,260360,457739
653324610710413085,333060,260259,457950
653324610717847780,333042,260165,457822
653324610725282475,332925,260183,457664
653324610732717170,332960,260140,457669
653324610740151865,332912,260046,457676
653324610747586560,332840,260084,457572
653324610755021257,332998,259784,457469
653324610762455952,332917,259846,457441
653324610769890647,332895,259831,457361
653324610777325342,332728,259906,457288
653324610784760037,332584,259803,457129
653324610792194732,332641,259898,457158
653324610799629427,332696,259965,457335
653324610807064122,332600,259945,457169
653324610814498817,332543,259786,456977
653324610821933512,332476,259687,456951
653324610829368207,332539,259719,457003
653324610836802902,332501,259688,456954
653324610844237597,332456,259753,457098
653324610851672292,332431,259688,456963
653324610859106987,332352,259689,457024
653324610866541682,332394,259618,457050
653324610873976377,332338,259678,457027
653324610881411072,332262,259599,456892
653324610888721992,332401,259165,456924
653324610896163968,332349,259275,457002
653324610903605944,332398,259365,457144
653324610911047920,332214,259435,456991
653324610918489896,332258,259512,457117
653324610925931872,332247,259470,456940
653324610933373848,332265,259470,457112
653324610940815824,332301,259456,457085
653324610948257800,332297,259538,457033
653324610955699776,332184,259480,457016
653324610963141752,332127,259394,456911
653324610970583728,332174,259530,456997
653324610978025704,332195,259540,457014
653324610985467680,332172,259593,456942
653324610992909656,332160,259558,457041
653324611000351632,332897,259772,457825
653324611007793608,332555,259595,457580
653324611015235584,332352,259410,457402
653324611022801353,332136,259481,457488
653324611030236048,332286,259500,457644
653324611037670743,332278,259461,457576
653324611045105438,332136,259444,457544
653324611052540133,332246,259385,457682
653324611059974828,332316,259426,457705
653324611067409523,332195,259414,457865
653324611074844218,332146,259405,457913
653324611082278913,332223,259403,458082
653324611089713608,332234,259173,458027
653324611097148303,332284,259241,458170
653324611104582998,332255,259286,458124
653324611112017693,332317,259259,458317
653324611119452388,332390,259306,458408
653324611126887083,332280,259231,458446
653324611134321778,332378,259397,458600
653324611141756473,332313,259322,458661
653324611149191168,332292,259386,458729
653324611156625865,332426,259135,458624
653324611164060560,332494,259274,458763
653324611171495255,332476,259345,458875
653324611178929950,332462,259396,459070
653324611186364645,332401,259344,459107
653324611193799340,332423,259393,459258
653324611201234035,332365,259372,459234
653324611208668730,332453,259326,459260
653324611216103425,332457,259414,459267
653324611223538120,332516,259440,459284
653324611230972815,332481,259338,459212
653324611238407510,332475,259455,459230
653324611245842205,332563,259481,459324
653324611253276900,332558,259518,459297
653324611260711595,332552,259516,459334
653324611268146290,332663,259579,459514
653324611275580985,332651,259548,459623
653324611283015680,332757,259652,459643
653324611290326600,332641,259739,459797
653324611297768576,332779,259538,459762
653324611305210552,332816,259581,459891
653324611312652528,332828,259653,459846
653324611320094504,333489,259945,460564
653324611327536480,333033,259845,460160
653324611334978456,332984,259778,460095
653324611342420432,333021,259729,459914
653324611349862408,332931,259789,459923
653324611357304384,332900,259766,459954
653324611364746360,332874,259829,460172
653324611372188336,332878,259873,460112
653324611379630312,332918,259759,460278
653324611387072288,332969,259849,460184
653324611394514264,333042,259813,460226
653324611401956240,333111,259840,460210
653324611409398216,333150,260002,460401
653324611416840192,333154,259901,460491
653324611424405961,332977,259880,460166
653324611431840656,333084,259916,460404
653324611439275351,333170,260071,460706
653324611446710046,333132,260055,460616
653324611454144741,333200,260077,460862
653324611461579436,333111,259881,460700
653324611469014131,333139,259951,460804
653324611476448826,333092,259867,460876
653324611483883521,333105,259645,460907
653324611491318216,333075,259777,460931
653324611498752911,333119,259701,460797
653324611506187606,332977,259710,460800
653324611513622301,332978,259648,460819
653324611521056996,332860,259585,460734
653324611528491691,332827,259515,460662
653324611535926386,332833,259440,460691
653324611543361081,332818,259370,460588
653324611550795776,332806,259486,460322
653324611558230473,332927,259269,460558
653324611565665168,332775,259336,460399
653324611573099863,332677,259365,460269
653324611580534558,332680,259385,460316
653324611587969253,332652,259357,460302
653324611595403948,332644,259296,460263
653324611602838643,332657,259330,460268
653324611610273338,332662,259315,460205
653324611617708033,332817,259372,460073
653324611625142728,332682,259373,460130
653324611632577423,332731,259386,460186
653324611640012118,333324,259829,460784
653324611647446813,332902,259578,460426
653324611654881508,332737,259599,460355
653324611662316203,332601,259330,460154
653324611669750898,332511,259249,460141
653324611677185593,332533,259284,460287
653324611684620288,332576,259283,460264
653324611692054985,332516,259132,460262
653324611699489680,332553,259251,460160
653324611706924375,332626,259317,460300
653324611714359070,332639,259432,460368
653324611721793765,332612,259456,460341
653324611729228460,332617,259405,460462
653324611736663155,332759,259233,460382
653324611744097850,332742,259355,460391
653324611751532545,332730,259416,460453
653324611758967240,332648,259442,460497
653324611766401935,332758,259444,460520
653324611773836630,332771,259509,460553
653324611781271325,332780,259499,460483
653324611788706020,332875,259529,460420
653324611796140715,332842,259541,460329
653324611803575410,332942,259631,460339
653324611811010105,332843,259561,460320
653324611818444800,332705,259494,460241
653324611825755720,333088,259444,460221
653324611833197696,333046,259530,460336
653324611840639672,333038,259458,460330
653324611848081648,333051,259567,460354
653324611855523624,332847,259678,460292
653324611862965600,332996,259740,460206
653324611870407576,333012,259732,460348
653324611877849552,333071,259688,460337
653324611885291528,332981,259716,460354
653324611892733504,332971,259691,460432
653324611900175480,333087,259683,460402
653324611907617456,333115,259705,460448
653324611915059432,333154,259615,460429
653324611922501408,333040,259706,460527
653324611929943384,333117,259732,460609
653324611937385360,333084,259777,460491
653324611944827336,333176,259835,460647
653324611952269312,333351,259836,460731
653324611959958875,333909,260237,461155
653324611967386288,333539,260037,460958
653324611974813701,333432,259966,460899
653324611982241114,333202,259899,460663
653324611989668527,333265,259904,460735
653324611997095940,333273,259977,460568
653324612004523353,333424,259917,460675
653324612011950766,333413,260022,460581
653324612019378179,333215,259919,460704
653324612026805592,333254,259952,460680
653324612034233005,333410,260036,460609
653324612041660418,333460,260037,460572
653324612049087831,333498,260139,460741
653324612056515244,333397,260109,460602
653324612063942657,333430,260092,460612
653324612071370070,333505,260072,460739
653324612078797483,333603,260262,460755
653324612086224896,333525,260231,460824
653324612093404744,333563,260184,460980
653324612100846720,333540,260217,460815
653324612108288696,333630,260299,460894
653324612115730672,333665,260307,460943
653324612123172648,333638,260267,461013
653324612130614624,333679,260308,461062
653324612138056600,333739,260347,460994
653324612145498576,333790,260340,461031
653324612152940552,333841,260313,461299
653324612160382528,333819,260386,461435
653324612167824504,333902,260320,461462
653324612175266480,333822,260382,461478
653324612182708456,333872,260362,461529
653324612190150432,333939,260336,461440
653324612197592408,333969,260339,461595
653324612205034384,334018,260377,461692
653324612212476360,333991,260453,461637
653324612219918336,334055,260391,461655
653324612227360328,334068,260261,461718
653324612234802304,334079,260415,461798
653324612242244280,334089,260538,461939
653324612249686256,333988,260385,461996
653324612257128232,334070,260465,462108
653324612264570208,334039,260570,462047
653324612272012184,334121,260524,462035
653324612279454160,334739,261128,462710
653324612286896136,334227,260736,462322
653324612294338112,334181,260627,462198
653324612301780088,333991,260466,461940
653324612309222064,333864,260415,461833
653324612316664040,333903,260314,461726
653324612324106016,333852,260476,461648
653324612331547992,333779,260446,461568
653324612338989968,333854,260420,461482
653324612346431944,333820,260407,461521
653324612353873920,333732,260344,461458
653324612361563483,333566,260632,461476
653324612368990896,333679,260380,461409
653324612376418309,333595,260339,461504
653324612383845722,333592,260377,461375
653324612391273135,333592,260295,461313
653324612398700548,333601,260193,461348
653324612406127961,333672,260184,461278
653324612413555374,333701,260172,461122
653324612420982787,333537,260052,461178
653324612428410200,333549,259968,461054
653324612435837613,333450,260131,460944
653324612443265026,333389,260274,460904
653324612450692439,333517,260161,460989
653324612458119852,333487,260125,460945
653324612465547265,333353,260125,460830
653324612472974678,333481,260090,460845
653324612480402091,333282,260042,460736
653324612487829504,333478,260059,460597
653324612495009352,333459,260028,460809
653324612502451328,333476,260166,460804
653324612509893304,333500,260189,460653
653324612517335280,333481,260301,460587
653324612524777256,333399,260239,460647
653324612532219232,333554,260247,460758
653324612539661208,333490,260241,460666
653324612547103184,333488,260215,460717
653324612554545160,333415,260169,460911
653324612561987136,333461,260197,460998
653324612569429112,333517,260171,461012
653324612576871088,333563,260228,461046
653324612584313064,333584,260293,461049
653324612591755040,333525,260263,461018
653324612599197016,334207,260879,461626
653324612606638992,333884,260490,461278
653324612614080968,333712,260280,461001
653324612621522944,333714,260272,460947
653324612629088713,333748,260170,461220
653324612636523408,333662,260228,461040
653324612643958103,333721,260278,461123
653324612651392798,333573,260376,461059
653324612658827493,333578,260186,461065
653324612666262188,333571,260365,460965
653324612673696883,333613,260303,460955
653324612681131578,333632,260335,460956
653324612688566273,333710,260336,461065
653324612696000968,333752,260320,461076
653324612703435663,333716,260365,461102
653324612710870358,333786,260508,461156
653324612718305053,333865,260473,461222
653324612725739748,333828,260468,461228
653324612733174443,333846,260545,461188
653324612740609138,333814,260551,461142
653324612748043833,333922,260496,461322
653324612755478528,333842,260547,461178
653324612762789448,334268,260583,461323
653324612770231424,334121,260598,461321
653324612777673400,334123,260580,461361
653324612785115376,334084,260608,461432
653324612792557352,334114,260681,461513
653324612799999328,333986,260673,461429
653324612807441304,334076,260693,461356
653324612814883280,334076,260651,461431
653324612822325256,334058,260674,461514
653324612829767232,334103,260723,461496
653324612837209208,334157,260708,461426
653324612844651184,334205,260709,461511
653324612852093160,334327,260854,461595
653324612859535136,334279,260940,461565
653324612866977112,334360,260876,461568
653324612874419088,334362,260978,461666
653324612881861064,334327,260871,461656
653324612889303040,334396,260973,461634
653324612896992603,334309,260868,461534
653324612904420016,334357,261058,461513
653324612911847429,334513,261041,461498
653324612919274842,335073,261662,462112
653324612926702255,334717,261389,461704
653324612934129668,334701,261283,461610
653324612941557081,334636,261238,461451
653324612948984494,334604,261088,461384
653324612956411907,334581,261182,461490
653324612963839320,334773,261210,461682
653324612971266733,334758,261305,461576
653324612978694146,334767,261229,461706
653324612986121559,334739,261231,461803
653324612993548972,334650,261184,461923
653324613000976385,334688,261219,462006
653324613008403798,334774,261222,461921
653324613015831211,334855,261349,462027
653324613023258624,334924,261376,462078
653324613030438472,335164,261480,462177
653324613037880448,335056,261508,462137
653324613045322424,335107,261545,462265
653324613052764400,335045,261414,462258
653324613060206376,335020,261384,462198
653324613067648352,335214,261494,462308
653324613075090328,335135,261528,462263
653324613082532304,335200,261586,462422
653324613089974280,335217,261592,462436
653324613097416256,335230,261549,462404
653324613104858232,335300,261558,462533
653324613112300208,335288,261496,462422
653324613119742184,335184,261589,462493
653324613127184160,335103,261609,462619
653324613134626136,335073,261558,462526
653324613142068112,335032,261513,462424
653324613149510088,335051,261366,462442
653324613156952064,335079,261360,462288
653324613164394056,335160,261187,462368
653324613171836032,335064,261283,462247
653324613179278008,335014,261289,462149
653324613186719984,334871,261243,462070
653324613194161960,334825,261280,461973
653324613201603936,334808,261114,462015
653324613209045912,334640,261087,461803
653324613216487888,334736,261127,461940
653324613223929864,334639,261058,461963
653324613231371840,334653,260975,461870
653324613238813816,335310,261580,462501
653324613246255792,334919,261131,462010
653324613253697768,334705,261079,461779
653324613261139744,334544,260921,461639
653324613268581720,334401,260835,461412
653324613276023696,334488,261024,461370
653324613283465672,334564,260992,461259
653324613290907648,334530,261062,461263
653324613298597211,334540,261099,461544
653324613306024624,334536,260893,461182
653324613313452037,334503,260843,461083
653324613320879450,334385,260894,461009
653324613328306863,334514,260907,460922
653324613335734276,334499,260914,460813
653324613343161689,334521,260960,460854
653324613350589102,334464,260841,460932
653324613358016515,334547,261086,461102
653324613365443928,334467,261005,461106
653324613372871341,334525,260920,460961
653324613380298754,334585,260865,461057
653324613387726167,334533,260913,461121
653324613395153580,334541,260971,461221
653324613402580993,334515,260911,461252
653324613410008406,334547,260948,461261
653324613417435819,334503,260893,461318
653324613424863232,334636,260998,461206
653324613432043080,334832,260881,461177
653324613439485056,334789,260963,461193
653324613446927032,334637,260961,461122
653324613454369008,334700,260896,461193
653324613461810984,334660,260922,461059
653324613469252960,334740,261039,461151
653324613476694936,334788,261029,461074
653324613484136912,334695,261076,460909
653324613491578888,334786,261063,460853
653324613499020864,334718,261061,460917
653324613506462840,334728,261061,461074
653324613513904816,334677,261078,460994
653324613521346792,334747,261039,460901
653324613528788768,334737,261082,460921
653324613536230744,334805,261161,460952
653324613543672720,334855,261116,461007
653324613551114696,334858,261192,461019
653324613558556672,335573,261838,461809
653324613565998664,335127,261361,461569
653324613573440640,334992,261250,461355
653324613580882616,334971,261228,461192
653324613588324592,335002,261272,461176
653324613595766568,335010,261306,461363
653324613603208544,334975,261349,461320
653324613610650520,335032,261337,461379
653324613618092496,335087,261355,461293
653324613625534472,335110,261300,461340
653324613632976448,335112,261390,461501
653324613640418424,335169,261304,461559
653324613647860400,335130,261358,461599
653324613655302376,335057,261351,461661
653324613662744352,335058,261429,461845
653324613670186328,335175,261432,461941
653324613677628304,335204,261494,462081
653324613685070280,335333,261439,462159
653324613692512256,335230,261471,462058
653324613700201819,335564,261736,462077
653324613707629232,335525,261701,462156
653324613715056645,335512,261522,462171
653324613722484058,335520,261520,462084
653324613729911471,335454,261551,462202
653324613737338884,335552,261499,462255
653324613744766297,335462,261708,462232
653324613752193710,335492,261674,462284
653324613759621123,335432,261646,462151
653324613767048536,335623,261870,462320
653324613774475949,335681,261827,462303
653324613781903362,335585,261831,462300
653324613789330775,335583,261865,462285
653324613796758188,335751,261828,462182
653324613804185601,335778,261912,462245
653324613811613014,335815,261975,462385
653324613819040427,335781,261977,462373
653324613826467840,335867,261935,462333
653324613833647688,335772,261798,462440
653324613841089664,335900,261981,462423
653324613848531640,335997,262049,462610
653324613855973616,335965,262129,462620
653324613863415592,336060,262167,462670
653324613870857568,336063,262070,462691
653324613878299544,336718,262771,463436
653324613885741520,336387,262419,463128
653324613893183496,336343,262332,463110
653324613900625472,336264,262330,463056
653324613908067448,336153,262544,462988
653324613915509424,336281,262402,463110
653324613922951400,336330,262348,463252
653324613930393376,336356,262376,463408
653324613937835352,336230,262319,463438
653324613945277328,336292,262323,463590
653324613952719304,336549,262345,463664
653324613960161280,336485,262298,463665
653324613967603272,336351,262424,463724
653324613975045248,336379,262308,463690
653324613982487224,336224,262225,463780
653324613989929200,336235,262134,463568
653324613997371176,336272,262308,463619
653324614004813152,336285,262154,463506
653324614012255128,336169,262136,463344
653324614019697104,336005,261947,463225
653324614027139080,336084,261983,463166
653324614034581056,336121,262037,462915
653324614042023032,336100,261981,462928
653324614049465008,336092,261928,462844
653324614056906984,336140,261882,462783
653324614064348960,336070,261852,462793
653324614071790936,336018,261939,462900
653324614079232912,335990,261910,462701
653324614086674888,335989,261863,462520
653324614094116864,335896,261885,462543
653324614101806427,336185,261834,462454
653324614109233840,335980,261777,462346
653324614116661253,335853,261653,462272
653324614124088666,335818,261555,462251
653324614131516079,335843,261677,462171
653324614138943492,335821,261664,462235
653324614146370905,335839,261691,462101
653324614153798318,335910,261697,461986
653324614161225731,335837,261650,462052
653324614168653144,335719,261659,461978
653324614176080557,335685,261767,461911
653324614183507970,335672,261740,461872
653324614190935383,335759,261694,461797
653324614198362796,336463,262297,462491
653324614205790209,336031,261910,462193
653324614213217622,335888,261729,462067
653324614220645035,335784,261706,461836
653324614228072448,335741,261687,461805
653324614235252296,336082,261854,461803
653324614242694272,335978,261852,461947
653324614250136248,335907,261756,462075
653324614257578224,335873,261725,462106
653324614265020200,335927,261668,462004
653324614272462176,335811,261690,462006
653324614279904152,335797,261643,462044
653324614287346128,335785,261733,462107
653324614294788104,335804,261668,461984
653324614302230080,335798,261792,462023
653324614309672056,335848,261655,461999
653324614317114032,335884,261792,462010
653324614324556008,335848,261767,461894
653324614331997984,335845,261731,461824
653324614339439960,335967,261721,461992
653324614346881936,335845,261755,462074
653324614354323912,335833,261831,462061
653324614361765888,335943,261787,462023
653324614369331657,335661,261503,461987
653324614376766352,336009,261625,462115
653324614384201047,336148,261726,462291
653324614391635742,335968,261694,462433
653324614399070437,336097,261715,462367
653324614406505132,336075,261827,462423
653324614413939827,335903,261816,462354
653324614421374522,335893,261797,462467
653324614428809217,336021,261775,462424
653324614436243912,336024,261684,462586
653324614443678607,335994,261649,462564
653324614451113302,336107,261693,462688
653324614458547997,336072,261779,462605
653324614465982692,336152,261866,462560
653324614473417387,336110,261847,462561
653324614480852082,336124,261930,462650
653324614488286777,336199,261916,462667
653324614495721472,336117,261922,462582
653324614503156169,336468,261926,462404
653324614510590864,336341,261930,462356
653324614518025559,336972,262637,463174
653324614525460254,336647,262311,462898
653324614532894949,336533,262170,462846
653324614540329644,336368,262065,462728
653324614547764339,336305,262017,462635
653324614555199034,336240,262057,462632
653324614562633729,336314,262013,462581
653324614570068424,336481,262030,462711
653324614577503119,336426,262013,462730
653324614584937814,336500,261984,462741
653324614592372509,336443,262015,462961
653324614599807204,336444,262103,463030
653324614607241899,336375,262031,463040
653324614614676594,336323,262141,463034
653324614622111289,336458,262025,463145
653324614629545984,336453,261967,463091
653324614636980681,336184,261807,463128
653324614644415376,336394,261943,463329
653324614651850071,336490,262030,463446
653324614659284766,336370,262056,463441
653324614666719461,336415,262064,463597
653324614674154156,336466,262090,463670
653324614681588851,336531,262056,463705
653324614689023546,336661,262131,463793
653324614696458241,336706,262187,463859
653324614703892936,336784,262279,463708
653324614711327631,336684,262085,463835
653324614718762326,336626,262085,463729
653324614726197021,336711,262221,463851
653324614733631716,336779,262269,463852
653324614741066411,336586,262240,463795
653324614748501106,336628,262209,463882
653324614755935801,336728,262187,463992
653324614763370496,336711,262194,463863
653324614770681416,336746,262534,464056
653324614778123392,336740,262324,463994
653324614785565368,336713,262158,463936
653324614793007344,336721,262202,463956
653324614800449320,336567,262189,463850
653324614807891296,336605,262201,463625
653324614815333272,336576,262185,463611
653324614822775248,336399,262127,463445
653324614830217224,336360,261985,463327
653324614837659200,337033,262650,463867
653324614845101176,336561,262265,463529
653324614852543152,336372,261941,463266
653324614859985128,336322,261949,463053
653324614867427104,336237,261802,462957
653324614874869080,336197,261740,462857
653324614882311056,336216,261670,462860
653324614889753032,336031,261611,462771
653324614897195008,335998,261565,462701
653324614904760777,336098,261795,462550
653324614912195472,335872,261674,462403
653324614919630167,335921,261577,462403
653324614927064862,335826,261434,462370
653324614934499557,335768,261489,462288
653324614941934252,335762,261504,462270
653324614949368947,335811,261487,462313
653324614956803642,335863,261577,462308
653324614964238337,335772,261483,462173
653324614971673032,335825,261388,462157
653324614979107727,335784,261384,461992
653324614986542422,335786,261365,461923
653324614993977117,335843,261374,462001
653324615001411812,335813,261355,461825
653324615008846507,335730,261323,461869
653324615016281202,335881,261302,461843
653324615023715897,335615,261297,461922
653324615031150592,335552,261199,461843
653324615038585289,335642,261365,461637
653324615046019984,335513,261202,461652
653324615053454679,335548,261188,461757
653324615060889374,335582,261219,461805
653324615068324069,335586,261218,461765
653324615075758764,335600,261223,461874
653324615083193459,335563,261125,461959
653324615090628154,335488,261205,461783
653324615098062849,335448,261126,461837
653324615105497544,335546,261120,461620
653324615112932239,335489,261099,461712
653324615120366934,335551,261117,461652
653324615127801629,335521,261159,461601
653324615135236324,335453,261164,461438
653324615142671019,335458,261068,461391
653324615150105714,335497,260984,461487
653324615157540409,335895,261651,462128
653324615164975104,335580,261240,461660
653324615172286024,335185,260982,461361
6.53325E+17,335134,261005,461374
653324615187169976,335248,261058,461455
653324615194611952,335316,261016,461498
653324615202053928,335256,260977,461436
653324615209495904,335325,260974,461536
653324615216937880,335400,260957,461583
653324615224379856,335373,260953,461478
653324615231821832,335303,261000,461572
653324615239263808,335269,260902,461480
653324615246705784,335371,261050,461392
653324615254147760,335330,260985,461375
653324615261589736,335341,261002,461531
653324615269031712,335374,260980,461431
653324615276473688,335300,260974,461339
653324615283915664,335326,261040,461411
653324615291357640,335317,260953,461361
653324615298799616,335305,261051,461381
653324615306241608,335180,261192,461310
653324615313683584,335335,261164,461446
653324615321125560,335342,261159,461355
653324615328567536,335405,261178,461441
653324615336009512,335586,261113,461404
653324615343451488,335468,261146,461409
653324615350893464,335426,261201,461422
653324615358335440,335453,261121,461323
653324615365777416,335548,261144,461290
653324615373219392,335366,261117,461442
653324615380661368,335493,261155,461476
653324615388103344,335487,261150,461560
653324615395545320,335583,261064,461664
653324615402987296,335485,261146,461620
653324615410429272,335514,261222,461625
653324615417871248,335523,261145,461728
653324615425313224,335403,261141,461689
653324615432755200,335410,261150,461738
653324615440444763,335500,260917,461605
653324615447872176,335450,261033,461701
653324615455299589,335555,261189,461688
653324615462727002,335574,261354,461919
653324615470154415,335575,261215,461953
653324615477581828,336002,261810,462765
653324615485009241,335704,261411,462337
653324615492436654,335687,261241,462156
653324615499864067,335729,261254,462125
653324615507291480,335679,261404,462138
653324615514718893,335697,261361,462267
653324615522146306,335784,261377,462280
653324615529573719,335812,261419,462373
653324615537001132,335842,261394,462359
653324615544428545,335782,261432,462496
653324615551855958,335798,261455,462482
653324615559283371,335822,261348,462556
653324615566710784,335827,261350,462527
653324615573890632,335607,261341,462124
653324615581332608,335640,261303,462308
653324615588774584,335586,261232,462217
653324615596216560,335666,261272,462184
653324615603658536,335774,261246,462299
653324615611100512,335719,261111,462174
653324615618542488,335721,261135,462175
653324615625984464,335665,261105,462023
653324615633426440,335460,261020,461970
653324615640868416,335440,260994,461789
653324615648310392,335532,261011,461845
653324615655752368,335651,260875,461809
653324615663194344,335542,260871,461712
653324615670636320,335384,260907,461509
653324615678078296,335324,260837,461495
653324615685520272,335293,260853,461385
653324615692962248,335244,260758,461382
653324615700404224,335160,260809,461365
653324615707846216,335502,260538,461392
653324615715288192,335399,260711,461310
653324615722730168,335424,260808,461358
653324615730172144,335385,260779,461242
653324615737614120,335288,260766,461220
653324615745056096,335170,260739,461036
653324615752498072,335308,260661,461074
653324615759940048,335300,260728,460991
653324615767382024,335211,260734,460921
6.53325E+17,335290,260825,461032
653324615782265976,335373,260835,460897
653324615789707952,335280,260806,460789
653324615797149928,335270,261361,461683
653324615804591904,335288,260976,461285
653324615812033880,335267,260844,461097
653324615819475856,335265,260704,460952
653324615826917832,335300,260729,461094
653324615834359808,335286,260774,461092
653324615842049371,335532,260705,461252
653324615849476784,335347,260650,461253
653324615856904197,335408,260564,461277
653324615864331610,335212,260740,461323
653324615871759023,335259,260757,461261
653324615879186436,335214,260532,461275
653324615886613849,335119,260547,461183
653324615894041262,335152,260553,461362
653324615901468675,335078,260591,461094
653324615908896088,335148,260657,461067
653324615916323501,335196,260691,461106
653324615923750914,335217,260675,461094
653324615931178327,335261,260663,461068
653324615938605740,335261,260636,460995
653324615946033153,335220,260661,460966
653324615953460566,335279,260663,460960
653324615960887979,335206,260605,461114
653324615968315392,335200,260666,461170
653324615975495240,335474,260471,461294
653324615982937216,335303,260520,461126
653324615990379192,335284,260617,461224
653324615997821168,335197,260641,461163
653324616005263144,335336,260522,461202
653324616012705120,335267,260513,461391
653324616020147096,335315,260622,461204
653324616027589072,335305,260729,461274
653324616035031048,335329,260718,461274
653324616042473024,335264,260727,461170
6.53325E+17,335246,260734,461222
653324616057356976,335372,260821,461272
653324616064798952,335303,260741,461169
653324616072240928,335317,260706,461294
653324616079682904,335388,260825,461328
653324616087124880,335355,260819,461284
653324616094566856,335380,260746,461322
653324616102008832,335389,260806,461309
653324616109574601,335687,260846,461486
653324616117009296,335624,261540,462124
653324616124443991,335565,261226,461845
653324616131878686,335526,261002,461533
653324616139313381,335429,260910,461444
653324616146748076,335479,260818,461456
653324616154182771,335502,260894,461453
653324616161617466,335557,260835,461433
653324616169052161,335563,260979,461531
653324616176486856,336107,260936,461391
653324616183921551,335843,260892,461474
653324616191356246,335561,260955,461579
653324616198790941,335593,261006,461613
653324616206225636,335508,260928,461679
653324616213660331,335610,260929,461690
653324616221095026,335621,260973,461725
653324616228529721,335626,261043,461755
653324616235964416,335602,261019,461827
653324616243399113,335485,260814,461843
653324616250833808,335555,260919,461903
653324616258268503,335656,261016,461871
653324616265703198,335710,260980,462062
653324616273137893,335706,261090,461960
653324616280572588,335765,261041,462031
653324616288007283,335820,261211,462248
653324616295441978,335897,261160,462407
653324616302876673,335815,261115,462287
653324616310311368,335938,261240,462482
653324616317746063,335887,261250,462586
653324616325180758,335854,261250,462669
653324616332615453,335953,261152,462557
653324616340050148,336023,261192,462441
653324616347484843,335937,261238,462476
653324616354919538,336092,261258,462561
653324616362354233,336078,261303,462562
653324616369788928,336034,261247,462618
653324616377223625,336042,261094,462622
653324616384658320,335890,261146,462350
653324616392093015,335848,261119,462262
653324616399527710,335868,261197,462237
653324616406962405,335864,261143,462106
653324616414397100,335928,261167,462004
653324616421831795,335781,261137,461895
653324616429266490,335663,260965,461874
653324616436701185,335783,261657,462485
653324616444135880,335715,261197,461999
653324616451570575,335607,260926,461850
653324616459005270,335596,260751,461570
653324616466439965,335680,260845,461527
653324616473874660,335615,260838,461517
653324616481309355,335564,260907,461361
653324616488744050,335692,260821,461205
653324616496178745,336409,260771,461146
653324616503613440,335927,260822,461159
653324616510924360,335388,260665,460954
653324616518366336,335496,260631,461050
653324616525808312,335634,260559,461144
653324616533250288,335614,260643,461091
653324616540692264,335648,260724,461103
653324616548134240,335645,260779,461020
653324616555576216,335626,260751,461034
653324616563018192,335593,260625,460900
653324616570460168,335647,260702,460750
653324616577902144,335572,260637,460727
653324616585344120,335619,260735,460801
653324616592786096,335603,260750,460804
653324616600228072,335664,260633,460723
653324616607670048,335616,260671,460808
653324616615112024,335690,260790,460839
6.53325E+17,335667,260630,460894
653324616629995976,335727,260638,460929
653324616637437952,335678,260672,460996
653324616645003721,335756,260403,460990
653324616652438416,335523,260383,460947
653324616659873111,335607,260489,461022
653324616667307806,335583,260471,461029
653324616674742501,335539,260442,461182
653324616682177196,335558,260412,461112
653324616689611891,335517,260285,461237
653324616697046586,335485,260306,461187
653324616704481281,335442,260277,461225
653324616711915976,335194,260375,461305
653324616719350671,335351,260300,461356
653324616726785366,335448,260241,461447
653324616734220061,335496,260197,461541
653324616741654756,335401,260136,461448
653324616749089451,335420,260155,461492
653324616756524146,335460,260962,462029
653324616763958841,335425,260545,461667
653324616771393536,335341,260320,461608
653324616778828233,335617,259962,461668
653324616786262928,335375,260182,461510
653324616793697623,335320,260218,461569
653324616801132318,335344,260149,461585
653324616808567013,335262,260180,461613
653324616816001708,336011,260175,461639
653324616823436403,335522,260204,461540
653324616830871098,335465,260191,461632
653324616838305793,335476,260110,461530
653324616845740488,335441,260205,461490
653324616853175183,335450,260301,461462
653324616860609878,335198,260367,461557
653324616868044573,335279,260294,461574
653324616875479268,335392,260242,461745
653324616882913963,335543,260346,461777
653324616890348658,335473,260330,461755
653324616897783353,335467,260265,461753
653324616905218048,335504,260294,461809
653324616912528968,335724,260049,461763
653324616919970944,335440,260104,461671
653324616927412920,335353,260268,461564
653324616934854896,335559,260369,461797
653324616942296872,335570,260370,461763
653324616949738848,335571,260388,461711
653324616957180824,335539,260491,461577
653324616964622800,335482,260360,461592
653324616972064776,335537,260394,461614
653324616979506752,335541,260412,461524
653324616986948728,335558,260432,461577
653324616994390704,335565,260454,461514
653324617001832680,335491,260477,461508
653324617009274656,335559,260376,461604
653324617016716632,335557,260563,461537
653324617024158608,335501,260575,461517
653324617031600584,335522,260494,461578
653324617039042560,335552,260542,461656
653324617046608329,335532,260705,461774
653324617054043024,335576,260689,461620
653324617061477719,335707,260596,461625
653324617068912414,335664,260647,461499
653324617076347109,335761,261296,462383
653324617083781804,335779,261001,461878
653324617091216499,335833,260857,461759
653324617098651194,335834,260781,461741
653324617106085889,335865,260665,461592
653324617113520584,335808,260673,461594
653324617120955279,335860,260746,461805
653324617128389974,335888,260651,461725
653324617135824669,336558,260727,461670
653324617143259364,335988,260660,461685
653324617150694059,335879,260665,461696
653324617158128754,335795,260579,461605
653324617165563449,335728,260555,461668
653324617172998144,335723,260603,461475
653324617180432841,335955,260530,461625
653324617187867536,335545,260426,461270
653324617195302231,335471,260370,461143
653324617202736926,335408,260342,461092
653324617210171621,335276,260244,460957
653324617217606316,335274,260130,460839
653324617225041011,335193,260159,460672
653324617232475706,335190,260079,460678
653324617239910401,335030,260003,460603
653324617247345096,334957,259959,460564
653324617254779791,334942,260009,460598
653324617262214486,334957,259931,460597
653324617269649181,334910,259834,460471
653324617277083876,334819,259795,460366
653324617284518571,334803,259671,460391
653324617291953266,334721,259679,460364
653324617299387961,334690,259507,460241
653324617306822656,334677,259574,460182
653324617314133576,334926,259334,460470
653324617321575552,334822,259456,460437
653324617329017528,334578,259397,460357
653324617336459504,334496,259332,460334
653324617343901480,334366,259313,460218
653324617351343456,334408,259261,460180
653324617358785432,334323,259319,460152
653324617366227408,334373,259350,460115
653324617373669384,334342,259299,460169
653324617381111360,334381,259257,460279
653324617388553336,334285,259232,460169
653324617395995312,334257,259848,460919
653324617403437288,334322,259505,460516
653324617410879264,334294,259335,460410
653324617418321240,334218,259151,460175
653324617425763216,334195,259149,460306
653324617433205192,334310,259168,460363
653324617440647168,334068,259142,460324
653324617448212937,333964,258937,460293
653324617455647632,334751,259092,460332
653324617463082327,334360,259159,460248
653324617470517022,334229,259008,460164
653324617477951717,334122,259048,460322
653324617485386412,334117,259102,460439
653324617492821107,334049,259136,460545
653324617500255802,333981,258933,460596
653324617507690497,334141,258878,460602
653324617515125192,334169,258932,460622
653324617522559887,334173,258991,460604
653324617529994582,334103,258997,460691
653324617537429277,334103,258912,460751
653324617544863972,334073,258914,460861
653324617552298667,334072,258991,460974
653324617559733362,333984,258974,461086
653324617567168057,333991,258806,461162
653324617574602752,334132,258916,461391
653324617582037449,334166,258861,461135
653324617589472144,334145,258858,461415
653324617596906839,334067,258848,461461
653324617604341534,334004,258774,461605
653324617611776229,334078,258773,461901
653324617619210924,334074,258645,461858
653324617626645619,333974,258594,462038
653324617634080314,333867,258737,462049
653324617641515009,333949,258810,462037
653324617648949704,333924,258763,462114
653324617656384399,333982,258736,462162
653324617663819094,333927,258839,462254
653324617671253789,333954,258777,462268
653324617678688484,333954,258640,462193
653324617686123179,333923,258656,462265
653324617693557874,333939,258680,462155
653324617700992569,334004,258731,462278
653324617708427264,333900,258686,462383
653324617715861961,333950,259356,463055
653324617723296656,333880,259045,462684
653324617730731351,334003,258915,462599
653324617738166046,333986,258843,462661
653324617745600741,334037,258778,462553
653324617753035436,333948,258776,462595
653324617760470131,334009,258793,462743
653324617767904826,333989,258755,462608
653324617775339521,334597,258690,462728
653324617782774216,334308,258720,462817
653324617790208911,334167,258789,462874
653324617797643606,334092,258783,462713
653324617805078301,333917,258779,462537
653324617812512996,333989,258824,462679
653324617819947691,334006,258775,462842
653324617827382386,334008,258831,462877
653324617834817081,333993,258836,462895
653324617842251776,334004,258783,462984
653324617849562696,333955,258505,462874
653324617857004672,333974,258650,462591
653324617864446648,333879,258811,462842
653324617871888624,333874,258762,462970
653324617879330600,333908,258832,463079
653324617886772576,333898,258884,463101
653324617894214552,334029,258957,463344
653324617901656528,334022,258856,463309
653324617909098504,333919,258822,463390
653324617916540480,333951,258773,463456
653324617923982456,333930,258744,463424
653324617931424432,333872,258725,463589
653324617938866408,333786,258676,463631
653324617946308384,333845,258691,463659
653324617953750360,333689,258553,463641
653324617961192336,333714,258480,463666
653324617968634312,333453,258341,463557
653324617976076288,333457,258262,463420
653324617983642057,333222,258383,463575
653324617991076752,333346,258238,463345
653324617998511447,333247,258199,463307
653324618005946142,333283,258128,463265
653324618013380837,333233,258070,463342
653324618020815532,333124,257986,463249
653324618028250227,333126,257908,463323
653324618035684922,333054,258480,463908
653324618043119617,333033,258116,463548
653324618050554312,333060,257897,463364
653324618057989007,332998,257761,463294
653324618065423702,332809,257731,463243
653324618072858397,332783,257561,463094
653324618080293092,332790,257607,463150
653324618087727787,332823,257494,463082
653324618095162482,333380,257502,463127
653324618102597177,333064,257393,463033
653324618110031872,332727,257396,463039
653324618117466569,332673,257223,463210
653324618124901264,332707,257339,462975
653324618132335959,332611,257399,462960
653324618139770654,332546,257401,462845
653324618147205349,332469,257384,462860
653324618154640044,332476,257383,462727
653324618162074739,332490,257344,462875
653324618169509434,332435,257253,462962
653324618176944129,332442,257248,462703
653324618184378824,332349,257234,462738
653324618191813519,332310,257258,462677
653324618199248214,332405,257238,462851
653324618206682909,332294,257160,462941
653324618214117604,332343,257258,463121
653324618221552299,332265,257279,463111
653324618228986994,332110,257148,463164
653324618236421689,332246,257098,463101
653324618243856384,332196,256984,463085
653324618251167304,332267,256855,463229
653324618258609280,332104,257084,463258
653324618266051256,332161,256991,463289
653324618273493232,332283,257059,463255
653324618280935208,332245,257110,463174
653324618288377184,332218,257042,463163
653324618295819160,332208,257055,463181
653324618303261136,332270,257166,463239
653324618310703112,332214,257139,463192
653324618318145088,332135,257114,463386
653324618325587064,332042,257146,463449
653324618333029040,332017,257120,463477
653324618340471016,332117,257060,463459
653324618347912992,332096,257061,463478
653324618355354968,332139,257754,464227
653324618362796944,332108,257417,463953
653324618370238920,332130,257351,463893
653324618377680896,332202,257208,463920
653324618385246665,332025,257014,463967
653324618392681360,332149,257024,463988
653324618400116055,332281,257115,464089
653324618407550750,332332,257221,464188
653324618414985445,332926,257254,464377
653324618422420140,332596,257271,464267
653324618429854835,332452,257119,464377
653324618437289530,332290,257158,464467
653324618444724225,332430,257234,464492
653324618452158920,332439,257153,464590
653324618459593615,332514,257140,464654
653324618467028310,332493,257304,464792
653324618474463005,332399,257232,464855
653324618481897700,332324,257285,464945
653324618489332395,332425,257397,465076
653324618496767090,332412,257372,464972
653324618504201785,332474,257413,464920
653324618511636480,332572,257434,465035
653324618519071177,332361,257157,465006
653324618526505872,332421,257405,465193
653324618533940567,332613,257558,465311
653324618541375262,332727,257543,465397
653324618548809957,332754,257533,465503
653324618556244652,332712,257454,465539
653324618563679347,332638,257603,465513
653324618571114042,332752,257691,465755
653324618578548737,332746,257656,465755
653324618585983432,332852,257790,465817
653324618593418127,332879,257768,465776
653324618600852822,332919,257774,465959
653324618608287517,332894,257790,465899
653324618615722212,332937,257780,466014
653324618623156907,332993,257866,466080
653324618630591602,332964,257836,466089
653324618638026297,332952,257743,466150
653324618645460992,333073,257839,466291
653324618652771912,333315,257632,466507
653324618660213888,333206,257794,466478
653324618667655864,333242,258019,466650
653324618675097840,333238,258709,467265
653324618682539816,333339,258381,467039
653324618689981792,333337,258286,467023
653324618697423768,333309,258117,467026
653324618704865744,333378,258089,466991
653324618712307720,333260,258201,466756
653324618719749696,333197,258143,466933
653324618727191672,333277,258147,466941
653324618734633648,333992,257987,466945
653324618742075624,333599,258092,466837
653324618749517600,333480,258062,466842
653324618756959576,333391,258024,466779
653324618764401552,333320,257992,466620
653324618771843528,333130,257927,466501
653324618779285504,333149,258004,466441
653324618786975067,333000,257673,466246
653324618794402480,333160,257804,466193
653324618801829893,333163,257870,466309
653324618809257306,333011,257883,466090
653324618816684719,332966,257857,465949
653324618824112132,332942,257869,465811
653324618831539545,332904,257936,465824
653324618838966958,332819,257872,465766
653324618846394371,332914,257814,465657
653324618853821784,333040,257991,465690
653324618861249197,332991,257822,465711
653324618868676610,332849,257826,465574
653324618876104023,332872,257862,465636
653324618883531436,332876,257836,465625
653324618890958849,332863,257781,465523
653324618898386262,332850,257831,465564
653324618905813675,332857,257757,465452
653324618913241088,332896,257897,465393
653324618920420936,332901,257845,465611
653324618927862912,332947,257886,465496
653324618935304888,332963,257894,465473
653324618942746864,332924,257947,465396
653324618950188840,332900,258030,465345
653324618957630816,332832,257996,465278
653324618965072792,332936,257884,465196
653324618972514768,333003,257889,465183
653324618979956744,332993,257941,465277
653324618987398720,332968,257911,465423
653324618994840696,333092,258624,465915
653324619002282672,333036,258181,465748
653324619009724648,333069,258094,465744
653324619017166624,333054,258050,465738
653324619024608600,333042,258003,465628
653324619032050576,333045,258027,465615
653324619039492552,333145,258129,465504
653324619046934528,333073,258145,465357
653324619054500297,333790,257716,465837
653324619061934992,333458,257893,465679
653324619069369687,333306,258045,465627
653324619076804382,333151,258128,465588
653324619084239077,333188,258145,465647
653324619091673772,333262,258106,465646
653324619099108467,333143,258147,465472
653324619106543162,333194,258122,465522
653324619113977857,333183,258004,465511
653324619121412552,333344,258135,465449
653324619128847247,333277,258178,465443
653324619136281942,333254,258181,465567
653324619143716637,333360,258215,465672
653324619151151332,333387,258228,465644
653324619158586027,333387,258311,465710
653324619166020722,333422,258334,465760
653324619173455417,333463,258482,465933
653324619180890112,333528,258483,465855
653324619188201032,333795,258212,465828
653324619195643008,333632,258304,465906
653324619203084984,333556,258420,466019
653324619210526960,333535,258458,466241
653324619217968936,333569,258436,466307
653324619225410912,333629,258333,466332
653324619232852888,333720,258558,466458
653324619240294864,333796,258517,466423
653324619247736840,333793,258542,466418
653324619255178816,333719,258587,466369
653324619262620792,333778,258580,466445
653324619270062768,333739,258641,466542
653324619277504744,333844,258647,466710
653324619284946720,333894,258671,466776
653324619292388696,333914,258687,466737
653324619299830672,334039,258758,466694
653324619307272648,334003,258839,466688
653324619314714624,333999,259565,467022
653324619322404187,334238,258910,466812
653324619329831600,334163,258884,466947
653324619337259013,334097,258986,467007
653324619344686426,334169,258999,467019
653324619352113839,334289,258965,467072
653324619359541252,334329,259080,467008
653324619366968665,334192,259047,467005
653324619374396078,334933,259043,467193
653324619381823491,334672,259015,467111
653324619389250904,334552,259066,467121
653324619396678317,334455,259192,467131
653324619404105730,334506,259323,467213
653324619411533143,334499,259294,467288
653324619418960556,334667,259351,467491
653324619426387969,334670,259321,467587
653324619433815382,334706,259345,467636
653324619441242795,334715,259391,467635
653324619448670208,334737,259405,467595
653324619455850056,334442,259487,467878
653324619463292032,334615,259450,467876
653324619470734008,334699,259407,467961
653324619478175984,334717,259466,468004
653324619485617960,334763,259435,468029
653324619493059936,334744,259446,468031
653324619500501912,334772,259433,467941
653324619507943888,334703,259396,467804
653324619515385864,334685,259374,467655
653324619522827840,334675,259327,467568
653324619530269816,334595,259277,467529
653324619537711792,334530,259251,467455
653324619545153768,334504,259187,467394
653324619552595744,334414,259133,467400
653324619560037720,334359,259062,467282
653324619567479696,334367,259045,467134
653324619574921672,334316,258934,467176
653324619582363648,334203,258883,466936
653324619589929417,334383,258816,466781
653324619597364112,334170,258843,466805
653324619604798807,334214,258780,466832
653324619612233502,334205,258804,466854
653324619619668197,334064,258840,466773
653324619627102892,334057,258794,466728
653324619634537587,333940,259551,466879
653324619641972282,334024,259092,466721
653324619649406977,333944,258968,466739
653324619656841672,333897,258863,466594
653324619664276367,333938,258824,466482
653324619671711062,333994,258797,466496
653324619679145757,333764,258682,466399
653324619686580452,333857,258761,466329
653324619694015147,334584,258720,466296
653324619701449842,334186,258705,466176
653324619708884537,333947,258712,466092
653324619716319232,333870,258610,466064
653324619723630152,334106,258756,465833
653324619731072128,334022,258654,465955
653324619738514104,333829,258684,465961
653324619745956080,333802,258658,466118
653324619753398056,333754,258670,466136
653324619760840032,333844,258747,466301
653324619768282008,333881,258711,466173
653324619775723984,333852,258703,466201
653324619783165960,333945,258729,466258
653324619790607936,333845,258711,466092
653324619798049912,333922,258747,466191
653324619805491888,333823,258757,466041
653324619812933864,333952,258804,466139
653324619820375840,334036,258868,466114
653324619827817816,333853,258850,465869
653324619835259792,333901,258850,465655
653324619842701768,333922,258829,465832
653324619850143744,333956,258942,465718
653324619857709513,334113,258786,465593
653324619865144208,334022,258793,465748
653324619872578903,333824,258825,465766
653324619880013598,333911,258946,465835
653324619887448293,333977,258855,465779
653324619894882988,333891,258911,465713
653324619902317683,333925,258874,465767
653324619909752378,333910,258930,465994
653324619917187073,333897,258818,466028
653324619924621768,333899,258857,466138
653324619932056463,334056,258924,466189
653324619939491158,334056,258946,465997
653324619946925853,333945,258952,466105
653324619954360548,333961,259646,466256
653324619961795243,334006,259261,466254
653324619969229938,334062,259044,466065
653324619976664633,334096,258962,466238
653324619984099328,334125,259056,466235
653324619991410248,334279,258821,466218
653324619998852224,334235,258885,466261
653324620006294200,334220,259054,466270
653324620013736176,334966,259170,466341
653324620021178152,334669,259152,466425
653324620028620128,334419,259191,466375
653324620036062104,334293,259132,466338
653324620043504080,334396,259123,466426
653324620050946056,334432,259220,466420
653324620058388032,334448,259226,466401
653324620065830008,334383,259199,466415
653324620073271984,334320,259254,466360
653324620080713960,334480,259281,466541
653324620088155936,334456,259309,466473
653324620095597912,334506,259270,466625
653324620103039888,334598,259304,466513
653324620110481864,334489,259325,466596
653324620117923840,334466,259347,466720
653324620125613403,334630,259477,466946
653324620133040816,334739,259443,466967
653324620140468229,334669,259384,466908
653324620147895642,334698,259332,466972
653324620155323055,334627,259433,467022
653324620162750468,334740,259456,467022
653324620170177881,334652,259493,467086
653324620177605294,334678,259533,467060
653324620185032707,334743,259586,467111
653324620192460120,334781,259598,467116
653324620199887533,334963,259782,467058
653324620207314946,334944,259735,467162
653324620214742359,335042,259818,467271
653324620222169772,334982,259689,467305
653324620229597185,335029,259717,467411
653324620237024598,334919,259812,467576
653324620244452011,334959,259753,467690
653324620251879424,335033,259696,467719
653324620259059272,334783,259531,467537
653324620266501248,334916,259583,467524
653324620273943224,334786,260068,467391
653324620281385200,334806,259749,467519
653324620288827176,334825,259637,467486
653324620296269152,334779,259449,467354
653324620303711128,334848,259455,467299
653324620311153104,334793,259403,467269
653324620318595080,334640,259336,467057
653324620326037056,334589,259326,466997
653324620333479032,335346,259271,467399
653324620340921008,334877,259235,467137
653324620348362984,334619,259052,466988
653324620355804960,334443,259064,466706
653324620363246936,334284,258954,466703
653324620370688912,334231,258932,466837
653324620378130888,334221,258997,466682
653324620385572864,334138,259014,466586
653324620393138633,334164,259126,465987
653324620400573328,334115,258949,466226
653324620408008023,334112,258890,466366
653324620415442718,334017,258889,466435
653324620422877413,334115,258775,466355
653324620430312108,334105,258775,466363
653324620437746803,334104,258886,466308
653324620445181498,334081,258822,466274
653324620452616193,334138,258887,466216
653324620460050888,334030,258831,466038
653324620467485583,333982,258783,465962
653324620474920278,333776,258715,465792
653324620482354973,333745,258695,465878
653324620489789668,333767,258688,465757
653324620497224363,333869,258736,465852
653324620504659058,333914,258675,465746
653324620512093753,333853,258679,465795
653324620519528448,333910,258637,465767
653324620526963145,333852,258673,466034
653324620534397840,333898,258675,465903
653324620541832535,333814,258686,465943
653324620549267230,333901,258681,466041
653324620556701925,333844,258586,465914
653324620564136620,333689,258606,465828
653324620571571315,333776,258593,465713
653324620579006010,333762,258585,465765
653324620586440705,333774,258572,465853
653324620593875400,333751,258494,465790
653324620601310095,333780,258574,465738
653324620608744790,333759,258651,465574
653324620616179485,333804,258636,465641
653324620623614180,333808,258584,465591
653324620631048875,333751,258540,465572
653324620638483570,333636,258576,465599
653324620645918265,333592,258557,465704
653324620653352960,334188,258715,466353
653324620660663880,334119,258383,465664
653324620668105856,333833,258432,465682
653324620675547832,333675,258578,465522
653324620682989808,333691,258496,465585
653324620690431784,333713,258472,465631
653324620697873760,333683,258467,465704
653324620705315736,333615,258542,465582
653324620712757712,333693,258603,465628
653324620720199688,333699,258500,465690
653324620727641664,333572,258521,465716
653324620735083640,333600,258552,465753
653324620742525616,333617,258571,465715
653324620749967592,333658,258549,465636
653324620757409568,333603,258542,465636
653324620764851544,333742,258726,465755
653324620772293520,333821,258594,465723
653324620779735496,333800,258667,465810
653324620787177472,333702,258651,465764
653324620794743241,333546,258331,465965
653324620802177936,333575,258563,465797
653324620809612631,333677,258595,465735
653324620817047326,333797,258662,465836
653324620824482021,333676,258593,465826
653324620831916716,333759,258704,465799
653324620839351411,333742,258693,465813
653324620846786106,333789,258662,465912
653324620854220801,333922,258584,465841
653324620861655496,333762,258769,465940
653324620869090191,333851,258670,465852
653324620876524886,333926,258862,465949
653324620883959581,334002,258828,465860
653324620891394276,333933,258843,465850
653324620898828971,333941,258932,465877
653324620906263666,333942,258974,465840
653324620913698361,333934,258892,465886
653324620921133056,333937,258932,465962
653324620928567753,333948,258662,466014
653324620936002448,333902,258899,466147
653324620943437143,333827,258844,466093
653324620950871838,333966,258874,466070
653324620958306533,334091,258899,466127
653324620965741228,334132,258998,466217
653324620973175923,334773,259679,466957
653324620980610618,334381,259275,466569
653324620988045313,334203,259219,466543
653324620995480008,334163,259232,466544
653324621002914703,334140,259167,466355
653324621010349398,334217,259191,466439
653324621017784093,334230,259241,466615
653324621025218788,334193,259181,466585
653324621032653483,334246,259197,466632
653324621040088178,334238,259196,466756
653324621047522873,334282,258863,466740
653324621054957568,334284,259088,466785
653324621062392265,334461,259051,466771
653324621069826960,334477,259102,466927
653324621077261655,334333,259166,466962
653324621084696350,334341,259104,466987
653324621092131045,334379,259285,467144
653324621099565740,334436,259272,466966
653324621107000435,334426,259237,466769
653324621114435130,334313,259162,466669
653324621121869825,334283,259264,466618
653324621129304520,334183,259079,466501
653324621136739215,334136,259023,466458
653324621144173910,334095,259106,466468
653324621151608605,334081,258978,466299
653324621159043300,333958,258944,466260
653324621166477995,333940,258886,466124
653324621173912690,333932,258852,466114
653324621181347385,333861,258833,466058
653324621188782080,333793,258764,466077
6.53325E+17,333506,258963,465786
653324621203534976,333757,258819,465803
653324621210976952,333805,258653,465867
653324621218418928,333628,258679,465698
653324621225860904,333675,258687,465648
653324621233302880,333708,258676,465689
653324621240744856,333640,258622,465823
653324621248186832,333647,258539,465648
653324621255628808,333663,258473,465649
653324621263070784,333674,258538,465482
653324621270512760,333596,258490,465384
653324621277954736,333487,258429,465407
653324621285396712,333561,258414,465219
653324621292838688,334298,259163,465999
653324621300280664,333769,258714,465416
653324621307722640,333645,258629,465357
653324621315164616,333508,258391,465157
653324621322606592,333478,258295,465135
653324621330048584,333662,258152,465335
653324621337490560,333364,258293,465030
653324621344932536,333290,258265,465053
653324621352374512,333283,258343,465223
653324621359816488,333387,258232,465227
653324621367258464,333166,258169,465180
653324621374700440,333228,258191,465149
653324621382142416,333167,258097,465166
653324621389584392,333267,258125,465258
653324621397026368,333316,258145,465348
653324621404468344,333259,258067,465382
653324621411910320,333315,258286,465439
653324621419352296,333247,258223,465368
653324621426794272,333239,258215,465262
653324621434236248,333183,258087,465215
653324621441678224,333151,258135,465098
653324621449120200,333130,258121,465151
653324621456562176,333092,258084,465063
653324621464251739,333445,258204,465039
653324621471679152,333173,258132,464875
653324621479106565,332952,258114,464809
653324621486533978,333061,258032,464778
653324621493961391,333138,258125,464941
653324621501388804,333184,257980,465000
653324621508816217,333118,257968,464895
653324621516243630,333109,258046,464961
653324621523671043,333156,258082,465033
653324621531098456,333155,258039,465011
653324621538525869,333039,258065,464919
653324621545953282,333125,258168,464898
653324621553380695,333283,258074,464978
653324621560808108,333086,258081,464948
653324621568235521,333159,258020,464953
653324621575662934,333117,258128,464860
653324621583090347,333153,258072,464906
653324621590517760,333006,258131,464808
653324621597697608,332997,257805,464803
653324621605139584,333067,257962,464785
653324621612581560,333897,258827,465462
653324621620023536,333347,258504,464941
653324621627465512,333202,258373,464811
653324621634907488,333120,258196,464784
653324621642349464,332989,258175,464732
653324621649791440,333034,258180,464729
653324621657233416,333109,258214,464738
653324621664675392,333141,258172,464722
653324621672117368,333200,258231,464651
653324621679559344,333131,258272,464583
653324621687001320,333095,258242,464787
653324621694443296,333123,258320,464870
653324621701885272,333153,258270,464899
653324621709327248,333168,258218,464782
653324621716769224,333225,258337,464958
653324621724211200,333091,258327,464925
653324621731776969,333411,258272,465148
653324621739211664,333241,258301,465008
653324621746646359,333254,258332,464944
653324621754081054,333237,258428,465189
653324621761515749,333357,258357,465184
653324621768950444,333242,258354,465253
653324621776385139,333213,258486,465195
653324621783819834,333359,258506,465232
653324621791254529,333512,258545,465323
653324621798689224,333367,258429,465298
653324621806123919,333456,258483,465398
653324621813558614,333289,258489,465321
653324621820993309,333324,258555,465410
653324621828428004,333358,258543,465417
653324621835862699,333444,258503,465454
653324621843297394,333495,258553,465597
653324621850732089,333471,258504,465675
653324621858166784,333480,258579,465650
653324621865601481,333745,258447,465454
653324621873036176,333652,258571,465523
653324621880470871,333660,258668,465632
653324621887905566,333752,258833,465879
653324621895340261,333726,258794,465948
653324621902774956,333852,258877,465971
653324621910209651,333816,258907,465950
653324621917644346,333988,259005,466127
653324621925079041,333906,258929,466191
653324621932513736,334668,259648,466936
653324621939948431,334223,259307,466506
653324621947383126,334061,259103,466274
653324621954817821,334072,259051,466366
653324621962252516,334017,259069,466482
653324621969687211,334073,259111,466454
653324621977121906,334073,259079,466559
653324621984556601,333930,259065,466503
653324621991991296,334037,259056,466646
653324621999302216,334232,258945,466786
653324622006744192,334091,258982,466446
653324622014186168,334078,259016,466423
653324622021628144,334030,258878,466274
653324622029070120,333942,258730,466043
653324622036512096,333848,258850,465837
653324622043954072,333723,258833,465835
653324622051396048,333772,258955,465834
653324622058838024,333744,258897,465641
6.53325E+17,333706,258818,465502
653324622073721976,333666,258794,465602
653324622081163952,333559,258855,465616
653324622088605928,333484,258674,465599
653324622096047904,333452,258578,465430
653324622103489880,333406,258546,465411
653324622110931856,333497,258543,465367
653324622118373832,333475,258485,465224
653324622125815808,333530,258479,465217
653324622133381577,333223,258686,465238
653324622140816272,333375,258578,465244
653324622148250967,333298,258490,465212
653324622155685662,333189,258514,465119
653324622163120357,333302,258493,465031
653324622170555052,333364,258553,465055
653324622177989747,333361,258428,464879
653324622185424442,333329,258467,464895
653324622192859137,333284,258442,464791
653324622200293832,333298,258462,464683
653324622207728527,333181,258442,464770
653324622215163222,333142,258350,464868
653324622222597917,333285,258399,464898
653324622230032612,333302,258425,464763
653324622237467307,333149,258336,464684
653324622244902002,333069,258389,464853
653324622252336697,333723,259002,465516
653324622259771392,333503,258721,465125
653324622267329883,333206,258345,464707
653324622274757296,333150,258304,464858
653324622282184709,333074,258310,464881
653324622289612122,333047,258350,464753
653324622297039535,333112,258275,464820
653324622304466948,333019,258363,464667
653324622311894361,332993,258349,464690
653324622319321774,333064,258279,464813
653324622326749187,333062,258305,464789
653324622334176600,333039,258212,464616
653324622341604013,333142,258309,464746
653324622349031426,333118,258245,464706
653324622356458839,333028,258195,464784
653324622363886252,333037,258266,464653
653324622371313665,333008,258241,464623
653324622378741078,333191,258278,464632
653324622386168491,333105,258218,464603
653324622393595904,333054,258268,464562
653324622400651958,333248,258400,464448
653324622408101216,333104,258168,464614
653324622415550474,333065,258285,464667
653324622422999732,333029,258217,464539
653324622430448990,333052,258072,464796
653324622437898248,332935,258068,464790
653324622445347506,333017,258108,464771
653324622452796764,332958,258172,464826
653324622460246022,332997,258204,464931
653324622467695280,333067,258344,464913
653324622475144538,332845,258203,464950
653324622482593796,333023,258130,464975
653324622490043054,332959,258119,464972
653324622497492312,332856,258034,464919
653324622504941570,332861,258106,465012
653324622512390828,332902,258251,465082
653324622519840086,332937,258238,465112
653324622527289344,333026,258232,465096
653324622534986185,333202,257996,464993
653324622542420880,333083,258180,465245
653324622549855575,333092,258187,465196
653324622557290270,333018,258268,465164
653324622564724965,332918,258280,465042
653324622572159660,333115,259032,465976
653324622579594355,333186,258595,465670
653324622587029050,332951,258502,465458
653324622594463745,333070,258324,465503
653324622601898440,333100,258424,465366
653324622609333135,333087,258302,465362
653324622616767830,333084,258329,465421
653324622624202525,333106,258372,465559
653324622631637220,333036,258258,465455
653324622639071915,333151,258337,465563
653324622646506610,333067,258388,465531
653324622653941305,333159,258408,465541
6.53325E+17,333163,258438,465394
653324622668810697,333480,258469,465326
653324622676245392,333350,258372,465576
653324622683680087,333354,258341,465631
653324622691114782,333260,258538,465588
653324622698549477,333361,258579,465697
653324622705984172,333424,258731,465783
653324622713418867,333347,258674,465947
653324622720853562,333391,258664,465976
653324622728288257,333259,258571,465942
653324622735722952,333473,258679,465960
653324622743157647,333427,258695,465970
653324622750592342,333614,258753,466145
653324622758027037,333427,258832,466277
653324622765461732,333478,258754,466257
653324622772896427,333491,258865,466186
653324622780331122,333523,258801,466195
653324622787765817,333489,258926,466257
653324622795200512,333589,258891,466257
653324622802511432,333608,258855,466125
653324622809953408,333582,258859,466342
653324622817395384,333710,258907,466679
653324622824837360,333730,259010,466744
653324622832279336,333825,259046,466734
653324622839721312,333873,259006,466791
653324622847163288,333832,259031,466833
653324622854605264,333852,259115,466849
653324622862047240,333894,259164,466930
653324622869489216,333853,259030,466970
653324622876931192,333743,259079,467085
653324622884373168,333889,259089,467273
653324622891815144,333975,259914,467867
653324622899257120,334011,259526,467507
653324622906699096,334076,259232,467279
653324622914141072,334071,259146,467333
653324622921583048,334103,259158,467231
653324622929025024,334056,259177,467177
653324622936590793,334095,259061,467495
653324622944025488,333868,258997,467301
653324622951460183,333966,259010,467155
653324622958894878,333813,259002,466920
653324622966329573,333861,258991,466874
653324622973764268,333692,258931,466723
653324622981198963,333742,259032,466663
653324622988633658,333791,258898,466571
653324622996068353,333702,258957,466597
653324623003503048,333619,258843,466461
653324623010937743,333551,258745,466377
653324623018372438,333531,258757,466343
653324623025807133,333450,258773,466437
653324623033241828,333473,258822,466381
653324623040676523,333557,258663,466329
653324623048111218,333512,258633,466301
653324623055545913,333494,258622,466235
653324623062980608,333389,258689,466198
653324623070415305,333773,258845,466304
6.53325E+17,333659,258778,466292
653324623085284695,333474,258731,466211
653324623092719390,333367,258690,466077
653324623100154085,333477,258716,466127
653324623107588780,333307,258610,466145
653324623115023475,333245,258569,466130
653324623122458170,333351,258533,465961
653324623129892865,333288,258535,465919
653324623137327560,333278,258441,465809
653324623144762255,333266,258561,465960
653324623152196950,333284,258551,465954
653324623159631645,333224,258470,466000
653324623167066340,333203,258511,465952
653324623174501035,333286,258458,465991
653324623181935730,333175,258377,465896
653324623189370425,333257,258337,465969
653324623196805120,333231,258425,466113
653324623204239817,333350,258534,466098
653324623211674512,333222,259091,466782
653324623219109207,333112,258643,466440
653324623226543902,333105,258515,466193
653324623233978597,333157,258462,466176
653324623241413292,333163,258466,465991
653324623248847987,333056,258347,465888
653324623256282682,332977,258277,465846
653324623263717377,332982,258281,465866
653324623271152072,333597,258231,465884
653324623278586767,333194,258245,465932
653324623286021462,333166,258197,465911
653324623293456157,333009,258231,465931
653324623300890852,332873,258284,465835
653324623308325547,332841,258217,465914
653324623315760242,332824,258197,465948
653324623323194937,332919,258184,465981
653324623330629632,332972,258284,465904
653324623337940552,333180,258375,466305
653324623345382528,333081,258214,465939
653324623352824504,333086,258321,466093
653324623360266480,333002,258186,466019
653324623367708456,332916,258194,465970
653324623375150432,332881,258305,465841
653324623382592408,332910,258398,465964
653324623390034384,333026,258400,465920
653324623397476360,332958,258383,465830
653324623404918336,332895,258396,465973
653324623412360312,332838,258358,466000
653324623419802288,332923,258352,466050
653324623427244264,332977,258351,466059
653324623434686240,333034,258361,466113
653324623442128216,333001,258352,466162
653324623449570192,333097,258440,466266
653324623457012168,333055,258321,466173
653324623464454144,332970,258240,466287
653324623472019913,333279,258494,466082
653324623479454608,333014,258421,466284
653324623486889303,333081,258409,466346
653324623494323998,333035,258289,466542
653324623501758693,333029,258336,466583
653324623509193388,332984,258320,466687
653324623516628083,332997,258372,466772
653324623524062778,332987,258340,466761
653324623531497473,333022,258968,467344
653324623538932168,332999,258708,467087
653324623546366863,332934,258613,466864
653324623553801558,332917,258455,466918
653324623561236253,332855,258276,466887
653324623568670948,332996,258379,466946
653324623576105643,333033,258357,466875
653324623583540338,333085,258423,466822
653324623590975033,333786,258490,466979
653324623598409728,333418,258516,466992
653324623605844425,333445,258429,467080
653324623613279120,333439,258448,467052
653324623620713815,333232,258588,467124
653324623628148510,333197,258596,467195
653324623635583205,333192,258445,467065
653324623643017900,333319,258534,467299
653324623650452595,333326,258616,467413
653324623657887290,333258,258667,467438
653324623665321985,333347,258735,467487
653324623672756680,333323,258606,467543
653324623680191375,333279,258686,467711
653324623687626070,333300,258628,467608
653324623695060765,333226,258667,467618
653324623702495460,333358,258636,467874
653324623709930155,333601,258821,467887
653324623717364850,333515,258775,468093
653324623724799545,333496,258765,468147
653324623732234240,333289,258795,468110
653324623739545160,333628,258630,468248
653324623746987136,333583,258642,468238
653324623754429112,333586,258687,468360
653324623761871088,333588,258635,468423
653324623769313064,333590,258688,468648
653324623776755040,333687,258757,468655
653324623784197016,333697,258870,468790
653324623791638992,333623,258812,468880
653324623799080968,333608,258944,468898
653324623806522944,333726,258899,468939
653324623813964920,333667,258850,468896
653324623821406896,333621,258835,469117
653324623828848872,333648,258834,469060
653324623836290848,333733,258866,468991
653324623843732824,333579,258929,468872
653324623851174800,333586,259471,468822
653324623858616776,333454,258961,468677
653324623866058752,333403,258831,468817
653324623873624521,333729,258712,468849
653324623881059216,333406,258606,468724
653324623888493911,333401,258513,468737
653324623895928606,333210,258466,468540
653324623903363301,333188,258476,468362
653324623910797996,333911,258407,468827
653324623918232691,333562,258423,468591
653324623925667386,333235,258306,468390
653324623933102081,333154,258266,468492
653324623940536776,333128,258218,468459
653324623947971471,333122,258233,468429
653324623955406166,333159,258282,468342
653324623962840861,333025,258199,468454
653324623970275556,333065,258199,468450
653324623977710251,332995,258149,468469
653324623985144946,333048,258199,468340
653324623992579641,332919,258187,468272
653324624000014336,332869,258106,468101
653324624007449033,333140,258065,468233
653324624014883728,332981,257925,468224
653324624022318423,332979,258080,468111
653324624029753118,332948,258151,468188
653324624037187813,332958,258049,468182
653324624044622508,332815,258126,468022
653324624052057203,332809,258158,468115
653324624059491898,332907,258187,468080
653324624066926593,332963,258161,467958
653324624074361288,332928,258158,468012
653324624081795983,332853,258104,468063
653324624089230678,332928,258089,468273
653324624096665373,332845,258004,468301
653324624104100068,332789,258009,468413
653324624111534763,332839,258014,468487
653324624118969458,332819,257957,468368
653324624126404153,332731,258005,468406
653324624133838848,332798,258022,468498
653324624141149768,333084,258039,468701
653324624148591744,332961,257986,468585
653324624156033720,332909,257834,468582
653324624163475696,332856,257771,468459
653324624170917672,332801,258122,468536
653324624178359648,332730,258074,468516
653324624185801624,332673,257976,468572
653324624193243600,332673,257918,468392
653324624200685576,332741,257972,468540
653324624208127552,332762,257993,468568
653324624215569528,332793,258055,468657
653324624223011504,332676,257976,468634
653324624230453480,333389,257963,469309
653324624237895456,332869,257797,468861
653324624245337432,332783,257918,468686
653324624252779408,332796,257934,468703
653324624260221384,332694,257923,468804
653324624267663360,332791,257903,468759
653324624275229129,332587,257809,468982
653324624282663824,332658,257995,468818
653324624290098519,332788,257902,468958
653324624297533214,332787,257921,468931
653324624304967909,332756,258142,468867
653324624312402604,332835,258053,469022
653324624319837299,332821,258060,468988
653324624327271994,332771,257959,469090
653324624334706689,332801,258004,469148
653324624342141384,332870,258033,469116
653324624349576079,332901,258138,469242
653324624357010774,332867,258037,469262
653324624364445469,332876,258008,469334
653324624371880164,332946,258119,469394
653324624379314859,332991,258142,469410
653324624386749554,333036,258023,469415
653324624394184249,333067,258259,469465
653324624401618944,333088,258169,469567
653324624409053641,332828,258311,469412
653324624416488336,332999,258198,469579
653324624423923031,333045,258227,469655
653324624431357726,333036,258246,469620
653324624438792421,333217,258357,469709
653324624446227116,333208,258421,469772
653324624453661811,333163,258328,469765
653324624461096506,333241,258431,469778
653324624468531201,333218,258439,469737
653324624475965896,333275,258506,469931
653324624483400591,333330,258479,469895
653324624490835286,333299,258403,469885
653324624498269981,333359,258545,469980
653324624505704676,333387,258476,470050
653324624513139371,333408,258429,470151
653324624520574066,333351,258558,470172
653324624528008761,333423,258611,470202
653324624535443456,333488,258712,470331
653324624542754376,333541,258571,470296
653324624550196352,334221,259035,471022
653324624557638328,333883,258953,470745
653324624565080304,333713,258833,470682
653324624572522280,333768,258811,470624
653324624579964256,333687,258708,470601
653324624587406232,333644,258731,470654
653324624594848208,333719,258771,470742
653324624602290184,333795,258883,470860
653324624609732160,333643,258869,470989
653324624617174136,333837,258927,471143
653324624624616112,333907,258974,471246
653324624632058088,333858,258924,471230
653324624639500064,333944,258912,471262
653324624646942040,334056,258991,471243
653324624654384016,334022,259015,471357
653324624661825992,334174,259031,471450
653324624669267968,334250,259086,471522
653324624676833737,334384,259006,471768
653324624684268432,334252,258935,471651
653324624691703127,334267,259135,471903
653324624699137822,334188,259146,471738
653324624706572517,334285,259209,471783
653324624714007212,334260,259106,471801
653324624721441907,334207,259177,471787
653324624728876602,334221,259143,471642
653324624736311297,334015,259121,471689
653324624743745992,334134,259073,471650
653324624751180687,334081,259116,471546
653324624758615382,333991,259064,471400
653324624766050077,333935,258935,471336
653324624773484772,334010,258984,471100
653324624780919467,334040,258949,471027
653324624788354162,333881,258951,470930
653324624795788857,333905,258985,470921
653324624803223552,333822,258983,470819
653324624810658249,334221,258729,470604
653324624818092944,334038,258738,470559
653324624825527639,333968,258675,470573
653324624832962334,333840,258815,470453
653324624840397029,333752,258819,470329
653324624847831724,333806,258866,470317
653324624855266419,333735,258827,470209
653324624862701114,333818,258884,470189
653324624870135809,334416,259518,470691
653324624877570504,334110,259215,470215
653324624885005199,333911,259001,470055
653324624892439894,333773,258822,469775
653324624899874589,333730,258770,469717
653324624907309284,333644,258846,469643
653324624914743979,333675,258838,469697
653324624922178674,333776,258875,469578
653324624929613369,333658,258788,469537
653324624937048064,333662,258869,469513
653324624944358984,333703,259068,469707
653324624951800960,333720,258934,469557
653324624959242936,333729,258997,469487
653324624966684912,333533,258839,469457
653324624974126888,333697,258843,469511
653324624981568864,333729,258797,469484
653324624989010840,333759,258994,469583
653324624996452816,333633,258899,469374
653324625003894792,333679,258848,469472
653324625011336768,333715,258777,469523
653324625018778744,333628,258891,469539
653324625026220720,333699,258777,469365
653324625033662696,333791,258849,469478
653324625041104672,333801,258863,469428
653324625048546648,333790,258875,469487
653324625055988624,333822,258824,469401
653324625063430600,333750,258894,469321
653324625070872576,333813,258858,469316
653324625078438345,333652,258800,469148
653324625085873040,333686,258877,469218
653324625093307735,333851,258901,469256
653324625100742430,333790,258887,469210
653324625108177125,333788,258908,469297
653324625115611820,333832,259027,469269
653324625123046515,333829,259005,469266
653324625130481210,333854,258937,469343
653324625137915905,333932,258940,469386
653324625145350600,334026,259032,469449
653324625152785295,334008,259176,469315
653324625160219990,334025,259044,469319
653324625167654685,334102,259037,469539
653324625175089380,334073,259063,469554
653324625182524075,334149,259215,469665
653324625189958770,334773,259814,470287
653324625197393465,334440,259398,469840
653324625204828160,334369,259341,469675
653324625212262857,334642,259413,469916
653324625219697552,334532,259385,469743
653324625227132247,334353,259336,469669
653324625234566942,334298,259279,469538
653324625242001637,334302,259273,469658
653324625249436332,334319,259438,469730
653324625256871027,334265,259343,469658
653324625264305722,334408,259421,469653
653324625271740417,334507,259433,469768
653324625279175112,334540,259555,469726
653324625286609807,334582,259486,469799
653324625294044502,334725,259541,469822
653324625301479197,334706,259619,469806
653324625308913892,334721,259670,469905
653324625316348587,334807,259661,469997
653324625323783282,334740,259708,469969
653324625331217977,334709,259694,470073
653324625338652672,334761,259685,469944
653324625346087369,335067,260009,470008
653324625353522064,335062,259931,470021
653324625360956759,335151,259984,470131
653324625368391454,335152,259902,470144
653324625375826149,335189,259902,470216
653324625383260844,335017,259979,470259
653324625390695539,334982,260020,470266
653324625398130234,335050,260057,470341
653324625405564929,335117,260050,470215
653324625412999624,335081,260028,470379
653324625420434319,335213,260072,470459
653324625427869014,335335,260100,470347
653324625435303709,335441,260071,470348
653324625442738404,335372,260190,470499
653324625450173099,335489,260218,470577
653324625457607794,335410,260221,470646
653324625465042489,335471,260239,470641
653324625472477184,335514,260213,470761
653324625479788104,335777,260281,470761
653324625487230080,335821,260397,470911
653324625494672056,335767,260395,471030
653324625502114032,335787,260459,471114
653324625509556008,336523,261234,471801
653324625516997984,336127,260839,471532
653324625524439960,335957,260789,471536
653324625531881936,335970,260685,471466
653324625539323912,336053,260671,471460
653324625546765888,336100,260644,471529
653324625554207864,336138,260716,471632
653324625561649840,336139,260681,471649
653324625569091816,336111,260650,471591
653324625576533792,336120,260711,471618
653324625583975768,336170,260654,471633
653324625591417744,336114,260671,471694
653324625598859720,336146,260718,471677
653324625606301696,336199,260658,471568
653324625613867465,335843,260732,471575
653324625621302160,335905,260681,471461
653324625628736855,335945,260704,471359
653324625636171550,335846,260429,471201
653324625643606245,335860,260422,470994
653324625651040940,335887,260499,470846
653324625658475635,335885,260384,470744
653324625665910330,335878,260370,470643
653324625673345025,335810,260385,470601
653324625680779720,335733,260409,470605
653324625688214415,335713,260289,470636
653324625695649110,335729,260262,470617
653324625703083805,335785,260227,470566
653324625710518500,335478,260346,470371
653324625717953195,335539,260172,470441
653324625725387890,335486,260127,470205
653324625732822585,335619,260121,470226
653324625740257280,335507,260136,470265
653324625747691977,335637,260169,469932
653324625755126672,335499,260152,469971
653324625762561367,335478,260043,469984
653324625769996062,335571,260023,470005
653324625777430757,335487,260061,469986
653324625784865452,335557,260044,469875
653324625792300147,335534,259970,469788
653324625799734842,335397,259898,469744
653324625807169537,335289,259939,469756
653324625814604232,335206,259842,469651
653324625822038927,335401,259872,469632
653324625829473622,336040,260558,470235
653324625836908317,335656,260193,469829
653324625844343012,335507,260000,469685
653324625851777707,335444,259981,469759
653324625859212402,335352,259969,469730
653324625866647097,335314,259864,469631
653324625874081792,335387,259955,469653
653324625881392712,335701,259700,469570
653324625888834688,335420,259739,469570
653324625896276664,335376,259725,469565
653324625903718640,335325,259708,469501
653324625911160616,335358,259764,469511
653324625918602592,335318,259756,469602
653324625926044568,335332,259834,469588
653324625933486544,335306,259815,469510
653324625940928520,335201,259766,469546
653324625948370496,335282,259722,469382
653324625955812472,335313,259766,469244
653324625963254448,335300,259840,469340
653324625970696424,335269,259763,469318
653324625978138400,335257,259806,469304
653324625985580376,335181,259687,469220
653324625993022352,335224,259776,469413
653324626000464328,335194,259701,469535
653324626007906304,335327,259630,469528
653324626015472073,335439,259594,469450
653324626022906768,335454,259653,469540
653324626030341463,335408,259740,469659
653324626037776158,335280,259680,469624
653324626045210853,335300,259766,469803
653324626052645548,335270,259751,469796
653324626060080243,335265,259865,469841
653324626067514938,335267,259812,469705
653324626074949633,335168,259703,469725
653324626082384328,335194,259722,469758
653324626089819023,335332,259766,469925
653324626097253718,335343,259825,469947
653324626104688413,335391,259868,470031
653324626112123108,335383,259854,470093
653324626119557803,335383,259900,470170
653324626126992498,335385,259790,470168
653324626134427193,335418,259798,470310
653324626141861888,335377,259804,470243
653324626149296585,335452,260310,470948
653324626156731280,335473,260055,470705
653324626164165975,335365,260009,470547
653324626171600670,335376,260011,470583
653324626179035365,335407,259953,470544
653324626186470060,335453,259933,470470
653324626193904755,335485,259910,470594
653324626201339450,335638,259852,470591
653324626208774145,335564,259863,470578
653324626216208840,335627,260028,470620
653324626223643535,335589,260039,470559
653324626231078230,335689,260095,470699
653324626238512925,335606,259999,470598
653324626245947620,335595,260043,470636
653324626253382315,335642,260101,470761
653324626260817010,335654,260090,470606
653324626268251705,335663,260092,470570
653324626275686400,335736,260155,470538
653324626282997320,335637,259965,470762
653324626290439296,335685,260080,470658
653324626297881272,335664,260192,470773
653324626305323248,335668,260207,470813
653324626312765224,335626,260170,470820
653324626320207200,335812,260281,470919
653324626327649176,335836,260294,471142
653324626335091152,335759,260234,471099
653324626342533128,335777,260320,471100
653324626349975104,335832,260303,471069
653324626357417080,335964,260293,471148
653324626364859056,335880,260310,471163
653324626372301032,335886,260211,471262
653324626379743008,335929,260330,471171
653324626387184984,335887,260302,471387
653324626394626960,335978,260351,471312
653324626402068936,336038,260402,471310
653324626409510912,336030,260357,471400
653324626417076681,336238,260548,471449
653324626424511376,336244,260444,471397
653324626431946071,336056,260537,471557
653324626439380766,336036,260415,471516
653324626446815461,336086,260496,471624
653324626454250156,335968,260481,471628
653324626461684851,336035,260507,471562
653324626469119546,336058,260978,472112
653324626476554241,335835,260643,471684
653324626483988936,335916,260426,471453
653324626491423631,335804,260265,471202
653324626498858326,335796,260260,471031
653324626506293021,335649,260057,470891
653324626513727716,335674,260088,470864
653324626521162411,335706,260036,470647
653324626528597106,336189,259938,470588
653324626536031801,335793,259943,470380
653324626543466496,335640,259798,470387
653324626550901193,335637,259611,470389
653324626558335888,335474,259652,470331
653324626565770583,335397,259646,470362
653324626573205278,335335,259564,470216
653324626580639973,335332,259565,470169
653324626588074668,335222,259522,470115
653324626595509363,335185,259568,469998
653324626602944058,335103,259546,469912
653324626610378753,335105,259488,469768
653324626617813448,335090,259488,469607
653324626625248143,335059,259470,469515
653324626632682838,335092,259385,469495
653324626640117533,334990,259377,469393
653324626647552228,334997,259447,469392
653324626654986923,334980,259368,469415
653324626662421618,334898,259390,469361
653324626669856313,334871,259343,469177
653324626677291008,334789,259265,469072
653324626684601928,335071,259460,468930
653324626692043904,334914,259324,469021
653324626699485880,334781,259193,469022
653324626706927856,334648,259225,468909
653324626714369832,334754,259006,468973
653324626721811808,334644,259106,468907
653324626729253784,334507,259136,468880
653324626736695760,334599,259165,469032
653324626744137736,334570,259160,469031
653324626751579712,334541,258976,469029
653324626759021688,334592,259021,468994
653324626766463664,334573,259022,468853
653324626773905640,334501,259070,468929
653324626781347616,334536,258941,468781
653324626788789592,334558,259666,469423
653324626796231568,334523,259283,469001
653324626803673544,334430,259061,468682
653324626811115520,334470,258979,468594
653324626818681289,334524,258715,468776
653324626826115984,334392,258870,468621
653324626833550679,334402,258874,468613
653324626840985374,334438,258982,468463
653324626848420069,335129,258879,468587
653324626855854764,334876,258995,468666
653324626863289459,334513,258824,468408
653324626870724154,334465,258850,468567
653324626878158849,334326,258829,468587
653324626885593544,334352,258800,468537
653324626893028239,334238,258824,468616
653324626900462934,334388,258863,468673
653324626907897629,334365,258884,468653
653324626915332324,334275,258821,468619
653324626922767019,334342,258839,468622
653324626930201714,334351,258792,468565
653324626937636409,334342,258773,468662
653324626945071104,334376,258861,468742
653324626952629595,334303,259080,468641
653324626960057008,334296,259085,468336
653324626967484421,334364,258983,468589
653324626974911834,334375,259005,468567
653324626982339247,334413,258996,468609
653324626989766660,334298,258947,468680
653324626997194073,334379,258946,468694
653324627004621486,334249,258800,468622
653324627012048899,334295,258783,468605
653324627019476312,334346,258826,468624
653324627026903725,334380,258851,468731
653324627034331138,334378,258908,468658
653324627041758551,334227,258795,468723
653324627049185964,334208,258825,468731
653324627056613377,334172,258849,468721
653324627064040790,334322,258927,468812
653324627071468203,334371,258900,468799
653324627078895616,334401,258911,468785
653324627086075464,334629,259012,468598
653324627093517440,334532,258906,468735
653324627100959416,334506,259003,468797
653324627108401392,334480,259678,468800
653324627115843368,334394,259301,468775
653324627123285344,334494,259157,468974
653324627130727320,334484,259107,469003
653324627138169296,334567,259122,468826
653324627145611272,334588,259048,468841
653324627153053248,334499,259078,468926
653324627160495224,334551,258975,468941
653324627167937200,335213,259021,469444
653324627175379176,334845,259169,469103
653324627182821152,334665,259168,469184
653324627190263128,334725,259088,469238
653324627197705104,334691,259123,469214
653324627205147080,334559,258989,469186
653324627212589056,334632,259023,469385
653324627220031048,334951,258995,469248
653324627227473024,334625,259078,469298
6.53325E+17,334666,259080,469290
653324627242356976,334717,259102,469412
653324627249798952,334774,259137,469512
653324627257240928,334644,259057,469516
653324627264682904,334675,259158,469419
653324627272124880,334656,259164,469543
653324627279566856,334639,259095,469504
653324627287008832,334827,259238,469662
653324627294450808,334768,259179,469546
653324627301892784,334580,259276,469587
653324627309334760,334583,259250,469737
653324627316776736,334601,259150,469701
653324627324218712,334646,259206,469662
653324627331660688,334618,259083,469637
653324627339102664,334658,259001,469619
653324627346544640,334544,259013,469485
653324627354110409,334511,258993,469210
653324627361545104,334542,258992,469124
653324627368979799,334359,258960,469019
653324627376414494,334330,258907,468906
653324627383849189,334323,258942,468899
653324627391283884,334299,258900,468779
653324627398718579,334231,258829,468605
653324627406153274,334129,258711,468409
653324627413587969,334085,258604,468358
653324627421022664,334092,258543,468282
653324627428457359,333956,258500,468154
653324627435892054,333888,258528,468054
653324627443326749,333885,258438,468035
653324627450761444,333815,258468,467976
653324627458196139,333585,258324,467942
653324627465630834,333591,258278,467721
653324627473065529,333578,258249,467762
653324627480500224,333496,258230,467518
653324627487934921,334464,258733,468009
653324627495369616,333846,258293,467593
653324627502804311,333486,258269,467234
653324627510239006,333488,258211,467208
653324627517673701,333375,258132,467069
653324627525108396,333465,258110,467036
653324627532543091,333480,258106,466969
653324627539977786,333287,257976,466845
653324627547412481,333231,257975,466852
653324627554847176,333080,258036,466876
653324627562281871,333194,257961,466736
653324627569716566,333191,257841,466566
653324627577151261,333197,258020,466589
653324627584585956,333250,257951,466651
653324627592020651,333223,257908,466656
653324627599455346,333109,257822,466681
653324627606890041,333125,257882,466839
653324627614324736,333057,257851,466786
653324627621635656,333095,257961,466943
653324627629077632,333049,257809,466674
653324627636519608,332981,257816,466517
653324627643961584,332981,257791,466469
653324627651403560,332964,257751,466483
653324627658845536,332823,257677,466421
653324627666287512,332924,257723,466441
653324627673729488,332906,257650,466333
653324627681171464,332852,257565,466315
653324627688613440,332908,257554,466183
653324627696055416,332873,257638,466089
653324627703497392,332915,257662,466207
653324627710939368,333003,257636,466330
653324627718381344,332936,257689,466328
653324627725823320,332928,257718,466162
653324627733265296,332938,257715,466263
653324627740707272,332764,257630,466193
653324627748149248,332867,257517,466341
653324627755715017,332933,257347,466484
653324627763149712,332903,257404,466408
653324627770584407,332702,257502,466224
653324627778019102,332669,257564,466169
653324627785453797,332608,257652,466186
653324627792888492,332873,257627,466386
653324627800323187,332779,257633,466312
653324627807757882,333504,258373,467051
653324627815192577,333163,257896,466522
653324627822627272,332970,257746,466290
653324627830061967,332895,257639,466230
653324627837496662,332817,257614,466217
653324627844931357,332783,257564,466213
653324627852366052,332746,257647,466279
653324627859800747,332824,257613,466140
653324627867235442,332879,257588,466232
653324627874670137,332914,257664,466178
653324627882104832,332892,257734,466274
653324627889415752,332762,257465,466183
653324627896857728,332894,257599,466110
653324627904299704,332812,257604,466259
653324627911741680,332846,257637,466323
653324627919183656,332865,257617,466118
653324627926625632,332926,257712,466348
653324627934067608,332878,257688,466372
653324627941509584,332892,257700,466348
653324627948951560,332987,257698,466448
653324627956393536,332994,257685,466420
653324627963835512,332967,257653,466465
653324627971277488,332915,257631,466423
653324627978719464,332993,257623,466433
653324627986161440,333011,257706,466365
653324627993603416,333048,257645,466320
653324628001045392,332936,257741,466423
653324628008487368,333039,257800,466503
653324628015929344,332998,257789,466438
653324628023495113,333225,257869,466694
653324628030929808,333139,257943,466609
653324628038364503,332960,257770,466638
653324628045799198,332974,257836,466463
653324628053233893,332951,257868,466609
653324628060668588,333012,257801,466486
653324628068103283,333072,257828,466609
653324628075537978,333002,257861,466682
653324628082972673,333113,257891,466755
653324628090407368,333066,257827,466750
653324628097842063,333187,257926,466857
653324628105276758,333164,257942,466967
653324628112711453,333214,257854,466988
