timestamp,ch1,ch2,ch3
653325061919001033,325966,264284,334473
653325061926435728,325838,264328,334394
653325061933870423,325932,264436,334432
653325061941305118,325802,264169,334435
653325061948739813,325814,264201,334407
653325061956174508,325928,264304,334542
653325061963609203,325847,264380,334530
653325061971043898,325945,264531,334538
653325061978478593,325811,264279,334610
653325061985913288,325779,264295,334537
653325061993347983,325690,264316,334604
653325062000782678,325882,264352,334749
653325062008217373,325889,264364,334669
653325062015652068,325876,264353,334790
653325062023086763,325906,264358,334786
653325062030521458,325918,264352,334839
653325062037956153,325933,264417,334887
653325062045390848,325873,264394,334892
653325062052701768,326008,264217,334753
653325062060143744,325867,264426,334734
653325062067585720,326115,264457,334981
653325062075027696,326079,264415,334914
653325062082469672,326014,264375,334914
653325062089911648,326079,264510,334985
653325062097353624,326050,264590,334982
653325062104795600,326005,264564,335008
653325062112237576,326149,264610,334931
653325062119679552,325992,264460,335030
653325062127121528,326041,264590,335105
653325062134563504,325998,264449,335067
653325062142005480,326117,265027,335688
653325062149447456,326273,264762,335382
653325062156889432,326160,264657,335107
653325062164331408,326058,264420,334881
653325062171773384,326614,265014,335367
653325062179215360,326332,264697,335119
653325062186904923,325984,264725,334653
653325062194332336,325862,264460,334620
653325062201759749,326144,264420,334493
653325062209187162,325972,264475,334546
653325062216614575,325953,264440,334472
653325062224041988,325681,264342,334390
653325062231469401,325749,264278,334415
653325062238896814,325630,264380,334308
653325062246324227,325656,264319,334286
653325062253751640,325646,264219,334272
653325062261179053,325765,264254,334176
653325062268606466,325572,264212,334077
653325062276033879,325645,264220,334132
653325062283461292,325562,264268,333987
653325062290888705,325406,264216,334138
653325062298316118,325425,264226,334080
653325062305743531,325412,264162,334134
653325062313170944,325405,264157,333943
653325062320350792,325309,263996,333876
653325062327792768,325336,264004,333972
653325062335234744,325221,264017,333989
653325062342676720,325271,263968,333942
653325062350118696,325245,264087,334046
653325062357560672,325319,264091,334157
653325062365002648,325293,264003,334130
653325062372444624,325274,263999,334139
653325062379886600,325254,263959,334222
653325062387328576,325170,263943,334200
653325062394770552,325140,263864,333958
653325062402212528,325268,263953,334023
653325062409654504,325155,264081,334046
653325062417096480,324999,263881,333999
653325062424538456,325037,263940,334067
653325062431980432,325081,263799,334156
653325062439422408,325115,263926,334106
653325062446864384,325068,263997,334115
653325062454430153,325370,263890,334140
653325062461864848,325289,264540,334767
653325062469299543,325120,264107,334392
653325062476734238,325093,264146,334229
653325062484168933,325062,264039,334040
653325062491603628,325673,264526,334683
653325062499038323,325345,264216,334308
653325062506473018,325207,264176,334298
653325062513907713,325046,263932,334093
653325062521342408,325704,263914,334278
653325062528777103,325515,263999,334282
653325062536211798,325388,264019,334302
653325062543646493,325277,263959,334217
653325062551081188,325289,264116,334184
653325062558515883,325288,264036,334354
653325062565950578,325384,264003,334332
653325062573385273,325214,264043,334245
653325062580819968,325242,264028,334223
653325062588254665,325163,264329,333950
653325062595689360,325305,264027,334110
653325062603124055,325304,264045,334117
653325062610558750,325287,264164,334301
653325062617993445,325208,264080,334215
653325062625428140,325126,263923,334076
653325062632862835,325001,263983,334013
653325062640297530,325165,263981,334054
653325062647732225,325021,264179,334194
653325062655166920,325103,264101,334026
653325062662601615,325108,264067,334055
653325062670036310,325108,264035,334058
653325062677471005,325127,264025,334101
653325062684905700,325054,264079,334086
653325062692340395,325047,264115,334146
653325062699775090,325069,264088,334203
653325062707209785,325112,264076,334110
653325062714644480,325017,264008,334092
653325062721955400,324992,263653,334345
653325062729397376,325089,263869,334177
653325062736839352,325021,263915,334224
653325062744281328,325051,263974,334124
653325062751723304,325164,263926,334215
653325062759165280,325249,264070,334314
653325062766607256,325074,264090,334296
653325062774049232,325174,264085,334301
653325062781491208,325108,264623,334966
653325062788933184,325211,264347,334614
653325062796375160,325220,264278,334551
653325062803817136,325243,264207,334558
653325062811259112,325811,264781,334981
653325062818701088,325552,264445,334641
653325062826143064,325332,264264,334583
653325062833585040,325374,264307,334549
653325062841027016,325998,264167,334568
653325062848468992,325652,264044,334529
653325062856034761,325616,263809,334773
653325062863469456,325281,263975,334378
653325062870904151,325284,264010,334257
653325062878338846,325283,263942,334293
653325062885773541,325120,263892,334128
653325062893208236,325046,263947,334110
653325062900642931,324966,263867,334127
653325062908077626,324989,263859,333910
653325062915512321,324926,263856,333861
653325062922947016,324883,263810,333931
653325062930381711,324875,263910,333865
653325062937816406,324919,263706,333862
653325062945251101,324809,263695,333628
653325062952685796,324812,263803,333676
653325062960120491,324848,263840,333554
653325062967555186,324616,263775,333486
653325062974989881,324526,263653,333458
653325062982424576,324614,263591,333402
653325062989859273,324562,263670,333055
653325062997293968,324537,263669,333152
653325063004728663,324504,263502,333198
653325063012163358,324466,263510,333209
653325063019598053,324302,263571,333069
653325063027032748,324436,263599,333072
653325063034467443,324445,263474,333047
653325063041902138,324427,263550,333036
653325063049336833,324445,263521,333112
653325063056771528,324433,263558,333155
653325063064206223,324469,263550,333159
653325063071640918,324337,263561,333210
653325063079075613,324403,263561,333277
653325063086510308,324552,263670,333146
653325063093945003,324542,263606,333040
653325063101379698,324468,264086,333725
653325063108814393,324486,263809,333413
653325063116249088,324625,263593,333322
653325063123683785,324434,263357,333231
653325063131118480,324850,264082,333790
653325063138553175,324549,263703,333517
653325063145987870,324390,263571,333271
653325063153422565,324433,263544,333335
653325063160857260,325028,263509,333348
653325063168291955,324753,263481,333404
653325063175726650,324582,263657,333370
653325063183161345,324389,263555,333242
653325063190596040,324390,263537,333295
653325063198030735,324363,263540,333298
653325063205465430,324368,263550,333294
653325063212900125,324221,263623,333200
653325063220334820,324142,263519,333100
653325063227769515,324264,263611,333151
653325063235204210,324255,263589,333074
653325063242638905,324304,263466,332941
653325063250073600,324247,263613,332953
653325063257384520,324039,263829,332945
653325063264826496,324099,263494,332957
653325063272268472,324069,263433,332875
653325063279710448,324174,263533,332971
653325063287152424,324209,263492,333035
653325063294594400,324229,263475,333062
653325063302036376,324110,263414,333152
653325063309478352,324199,263456,333165
653325063316920328,324257,263523,333116
653325063324362304,324252,263469,333162
653325063331804280,324162,263329,333060
653325063339246256,324172,263404,333018
653325063346688232,324055,263544,333051
653325063354130208,324126,263464,333173
653325063361572184,324216,263414,333255
653325063369014160,324112,263543,333276
653325063376456136,324074,263276,333285
653325063383898112,324056,263194,333145
653325063391587675,324213,263079,333317
653325063399015088,324142,263117,333260
653325063406442501,324207,263268,333288
653325063413869914,324100,263305,333148
653325063421297327,324107,264061,333692
653325063428724740,324117,263551,333386
653325063436152153,324059,263467,333133
653325063443579566,324146,263425,332994
653325063451006979,324724,264051,333629
653325063458434392,324372,263630,333271
653325063465861805,324244,263463,333164
653325063473289218,324156,263402,333108
653325063480716631,324731,263320,333029
653325063488144044,324445,263326,332919
653325063495571457,324111,263246,332816
653325063502998870,324080,263318,332741
653325063510426283,324083,263399,332724
653325063517853696,324062,263363,332718
653325063525033544,323999,263351,332840
653325063532475520,323905,263439,332663
653325063539917496,323965,263410,332791
653325063547359472,323929,263413,332592
653325063554801448,324052,263402,332595
653325063562243424,324003,263336,332582
653325063569685400,324091,263436,332667
653325063577127376,324023,263344,332479
653325063584569352,324017,263244,332537
653325063592011328,323984,263236,332445
653325063599453304,323925,263343,332435
653325063606895280,323857,263039,332441
653325063614337256,323805,263134,332420
653325063621779232,323805,263069,332316
653325063629221208,323878,263200,332326
653325063636663184,323805,263024,332279
653325063644105160,323749,262931,332246
653325063651547136,323596,262875,332170
653325063658989128,323612,262821,332122
653325063666431104,323651,262854,332028
653325063673873080,323684,262836,332090
653325063681315056,323699,262889,332037
653325063688757032,323633,262861,332157
653325063696199008,323648,262879,332220
653325063703640984,323596,262708,332194
653325063711082960,323642,262821,332141
653325063718524936,323634,262799,332230
653325063725966912,323511,262868,332108
653325063733408888,323533,262861,332153
653325063740850864,323629,263511,332301
653325063748292840,323643,263160,332320
653325063755734816,323609,262963,332208
653325063763176792,323517,262992,332126
653325063770618768,324059,263541,332708
653325063778060744,323721,263158,332395
653325063785502720,323619,263059,332315
653325063793068489,323693,263165,331834
653325063800503184,324291,263001,332029
653325063807937879,323909,262883,332195
653325063815372574,323744,262908,332168
653325063822807269,323744,262964,332285
653325063830241964,323625,262952,332178
653325063837676659,323624,262984,332130
653325063845111354,323513,262838,332118
653325063852546049,323595,262839,332267
653325063859980744,323666,262924,332238
653325063867415439,323755,262969,332258
653325063874850134,323717,262925,332297
653325063882284829,323649,262810,332336
653325063889719524,323655,262935,332270
653325063897154219,323639,262941,332271
653325063904588914,323641,262874,332127
653325063912023609,323709,262967,332215
653325063919458304,323763,263061,332213
653325063926893001,323997,263234,331768
653325063934327696,323878,263099,332059
653325063941762391,323812,262934,332152
653325063949197086,323889,262828,332312
653325063956631781,323806,262886,332450
653325063964066476,323765,262975,332413
653325063971501171,323702,263009,332281
653325063978935866,323748,263015,332406
653325063986370561,323765,263016,332371
653325063993805256,323771,262892,332392
653325064001239951,323860,262993,332433
653325064008674646,323931,262972,332387
653325064016109341,323938,263080,332314
653325064023544036,323791,263086,332360
653325064030978731,323975,263048,332555
653325064038413426,323965,263132,332387
653325064045848121,324107,263033,332429
653325064053282816,323989,263152,332592
653325064060717513,323938,263988,332688
653325064068152208,323982,263579,332594
653325064075586903,324082,263448,332630
653325064083021598,324165,263377,332630
653325064090456293,324705,263967,333243
653325064097890988,324303,263605,332916
653325064105325683,324350,263476,332883
653325064112760378,324295,263395,332902
653325064120195073,325025,263299,333038
653325064127629768,324650,263326,333039
653325064135064463,324502,263281,332988
653325064142499158,324555,263412,332970
653325064149933853,324336,263365,333009
653325064157368548,324457,263473,333118
653325064164803243,324413,263453,333072
653325064172237938,324414,263626,332971
653325064179672633,324467,263575,333067
653325064187107328,324586,263494,332995
653325064194418248,324889,263477,333232
653325064201860224,324812,263414,333224
653325064209302200,324640,263560,333224
653325064216744176,324629,263524,333147
653325064224186152,324529,263497,333114
653325064231628128,324483,263518,333122
653325064239070104,324761,263559,333323
653325064246512080,324792,263633,333301
653325064253954056,324822,263660,333377
653325064261396032,324812,263743,333311
653325064268838008,324795,263799,333363
653325064276279984,324804,263732,333367
653325064283721960,324719,263729,333382
653325064291163936,324707,263706,333313
653325064298605912,324852,263715,333465
653325064306047888,324897,263765,333444
653325064313489864,324873,263719,333543
653325064320931840,324918,263862,333628
653325064328621403,325172,263874,333379
653325064336048816,325036,263891,333471
653325064343476229,324927,263658,333492
653325064350903642,325041,263598,333579
653325064358331055,325053,263730,333641
653325064365758468,325172,263719,333595
653325064373185881,325045,263748,333597
653325064380613294,324969,263643,333591
653325064388040707,324946,263570,333456
653325064395468120,324992,263641,333424
653325064402895533,324816,263638,333407
653325064410322946,325330,264310,334162
653325064417750359,325116,263981,333836
653325064425177772,325054,263679,333564
653325064432605185,325023,263711,333321
653325064440032598,325559,263662,334066
653325064447460011,325093,263650,333771
653325064454887424,324858,263475,333394
653325064462067272,324709,263416,333581
653325064469509248,324838,263574,333561
653325064476951224,324849,263564,333594
653325064484393200,324843,263600,333507
653325064491835176,324713,263674,333410
653325064499277152,324761,263687,333491
653325064506719128,324788,263574,333456
653325064514161104,324729,263573,333458
653325064521603080,324738,263564,333487
653325064529045056,324841,263584,333565
653325064536487032,324896,263586,333469
653325064543929008,324985,263617,333586
653325064551370984,325013,263628,333572
653325064558812960,325052,263706,333790
653325064566254936,325038,263780,333794
653325064573696912,325009,263618,333659
653325064581138888,324910,263588,333823
653325064588580864,325111,263770,333936
653325064596146633,324872,263531,333563
653325064603581328,324994,263635,333667
653325064611016023,325009,263756,333726
653325064618450718,324997,263852,333808
653325064625885413,324917,263813,333778
653325064633320108,325049,263858,333874
653325064640754803,325140,263852,333847
653325064648189498,325181,263948,333887
653325064655624193,325155,263920,333948
653325064663058888,325236,263937,334021
653325064670493583,325316,263963,334073
653325064677928278,325358,264034,334034
653325064685362973,325439,264014,334094
653325064692797668,325441,264122,334203
653325064700232363,325477,264043,334180
653325064707667058,325375,264166,334340
653325064715101753,325468,264089,334317
653325064722536448,325501,264047,334377
653325064729971145,325418,264515,334795
653325064737405840,325407,264339,334634
653325064744840535,325520,264255,334472
653325064752275230,325531,264067,334557
653325064759709925,326241,264593,335188
653325064767144620,325915,264412,334907
653325064774579315,325811,264307,334834
653325064782014010,325693,264248,334673
653325064789448705,325993,264216,334813
653325064796883400,325862,264288,334713
653325064804318095,325758,264209,334730
653325064811752790,325729,264179,334770
653325064819187485,325769,264272,334773
653325064826622180,325703,264357,334763
653325064834056875,325843,264292,334783
653325064841491570,325784,264286,334778
653325064848926265,325928,264321,334964
653325064856360960,325985,264398,335029
653325064863795657,326035,264178,334917
653325064871230352,325855,264269,335029
653325064878665047,326015,264420,335189
653325064886099742,326098,264486,335146
653325064893534437,326045,264461,335148
653325064900969132,326096,264363,335198
653325064908403827,326145,264449,335252
653325064915838522,326144,264516,335214
653325064923273217,326185,264598,335314
653325064930707912,326168,264572,335271
653325064938142607,326293,264713,335317
653325064945577302,326240,264713,335380
653325064953011997,326360,264630,335377
653325064960446692,326365,264680,335487
653325064967881387,326407,264684,335333
653325064975316082,326447,264816,335492
653325064982750777,326375,264768,335538
653325064990185472,326440,264754,335643
653325064997496392,326276,264955,335563
653325065004938368,326390,264973,335594
653325065012380344,326419,264889,335621
653325065019822320,326529,264915,335622
653325065027264296,326637,265028,335764
653325065034706272,326622,264959,335814
653325065042148248,326559,264920,335687
653325065049590224,326582,265564,336312
653325065057032200,326673,265202,336088
653325065064474176,326816,265110,336053
653325065071916152,326871,265039,336021
653325065079358128,327463,265641,336566
653325065086800104,327019,265305,336129
653325065094242080,326784,265067,335969
653325065101684056,326740,265039,335904
653325065109126032,327349,265031,335852
653325065116568008,327016,264938,335745
653325065124009984,326896,264955,335740
653325065131575753,326833,264661,335681
653325065139010448,326832,264731,335829
653325065146445143,326571,264834,335794
653325065153879838,326665,264810,335705
653325065161314533,326606,264762,335697
653325065168749228,326596,264845,335653
653325065176183923,326632,264907,335743
653325065183618618,326591,264937,335878
653325065191053313,326665,264836,335803
653325065198488008,326705,264959,335894
653325065205922703,326556,264924,335795
653325065213357398,326600,264883,335775
653325065220792093,326555,264863,335719
653325065228226788,326774,265003,335940
653325065235661483,326747,264956,335849
653325065243096178,326561,264994,335716
653325065250530873,326542,264989,335801
653325065257965568,326664,264994,335803
653325065265400265,327057,264817,335673
653325065272834960,326905,264907,335786
653325065280269655,326810,264964,335833
653325065287704350,326775,265063,335832
653325065295139045,326849,264920,335918
653325065302573740,326818,264910,335918
653325065310008435,326641,264958,335821
653325065317443130,326746,264965,336066
653325065324877825,326805,265027,336004
653325065332312520,326820,264967,335938
653325065339747215,326872,264971,336009
653325065347181910,326849,264919,335988
653325065354616605,326788,264993,336022
653325065362051300,326758,265031,336018
653325065369485995,326798,265766,335949
653325065376920690,326904,265377,335954
653325065384355385,326909,265250,336017
653325065391790080,326890,265103,336000
6.53325E+17,327525,265640,336641
653325065406542976,327205,265314,336200
653325065413984952,326880,265061,336106
653325065421426928,326868,265054,335939
653325065428868904,327518,265068,335971
653325065436310880,327107,265138,335801
653325065443752856,326925,265101,335897
653325065451194832,326847,265077,335966
653325065458636808,326917,265044,335883
653325065466078784,326902,265022,336000
653325065473520760,326874,265078,336037
653325065480962736,326788,264964,335909
653325065488404712,326691,265062,335844
653325065495846688,326828,265094,335973
653325065503288664,326810,265067,335878
653325065510730640,326703,265055,335927
653325065518172616,326827,265166,336142
653325065525614592,326746,265123,336002
653325065533180361,327020,265394,335699
653325065540615056,326898,265199,335803
653325065548049751,326918,265173,336095
653325065555484446,326935,265159,335980
653325065562919141,326818,265117,336004
653325065570353836,326852,265073,336034
653325065577788531,326946,265101,335961
653325065585223226,326894,265086,335901
653325065592657921,326809,265153,336015
653325065600092616,326844,265160,335980
653325065607527311,326808,265282,336073
653325065614962006,326774,265333,336117
653325065622396701,326850,265223,336141
653325065629831396,326922,265245,336043
653325065637266091,326985,265223,336085
653325065644700786,326792,265145,336116
653325065652135481,326872,265198,336138
653325065659570176,326813,265189,336093
653325065667004873,327115,265432,335864
653325065674439568,327011,265270,336001
653325065681874263,326868,265210,336074
653325065689308958,326982,265847,336131
653325065696743653,326909,265469,336086
653325065704178348,326969,265300,336092
653325065711613043,326890,265365,336086
653325065719047738,327529,265896,336647
653325065726482433,327125,265512,336345
653325065733917128,327066,265363,336280
653325065741351823,327010,265296,336135
653325065748786518,327627,265259,336227
653325065756221213,327320,265260,336121
653325065763655908,327110,265297,336141
653325065771090603,327017,265349,336187
653325065778525298,326988,265227,336094
653325065785959993,327091,265351,336242
653325065793394688,327007,265210,336243
653325065800829385,327167,264918,336440
653325065808264080,326981,265044,336280
653325065815698775,327012,264999,336268
653325065823133470,326954,265104,336174
653325065830568165,326901,265074,336175
653325065838002860,326936,265138,336220
653325065845437555,326868,265198,336081
653325065852872250,326741,265063,335983
653325065860306945,326781,265100,335999
653325065867741640,326830,265053,336139
653325065875176335,326650,265040,336035
653325065882611030,326741,265021,336077
653325065890045725,326737,264968,335934
653325065897480420,326817,265038,335955
653325065904915115,326623,265100,335784
653325065912349810,326636,264868,335688
653325065919784505,326474,264920,335701
653325065927219200,326602,264898,335748
653325065934530120,326367,264786,335966
653325065941972096,326567,264822,335774
653325065949414072,326537,264870,335717
653325065956856048,326566,264964,335718
653325065964298024,326511,264872,335710
6.53325E+17,326543,264807,335741
653325065979181976,326537,264825,335751
653325065986623952,326538,264942,335708
653325065994065928,326453,264817,335621
653325066001507904,326424,264889,335509
653325066008949880,326450,265380,335575
653325066016391856,326513,265096,335642
653325066023833832,326454,264966,335547
653325066031275808,326527,264943,335583
653325066038717784,327064,265493,336179
653325066046159760,326648,265139,335702
653325066053601736,326413,264871,335563
653325066061043712,326344,264876,335560
653325066068733275,326960,264633,335437
653325066076160688,326639,264746,335455
653325066083588101,326471,264770,335380
653325066091015514,326503,264769,335427
653325066098442927,326540,264831,335610
653325066105870340,326402,264892,335612
653325066113297753,326477,264868,335453
653325066120725166,326277,264827,335431
653325066128152579,326368,264797,335433
653325066135579992,326312,264811,335445
653325066143007405,326189,264830,335393
653325066150434818,326250,264716,335371
653325066157862231,326316,264851,335625
653325066165289644,326379,264838,335285
653325066172717057,326239,264741,335412
653325066180144470,326137,264711,335333
653325066187571883,326235,264764,335474
653325066194999296,326346,264819,335529
653325066202179144,326513,264654,335488
653325066209621120,326313,264748,335387
653325066217063096,326418,264717,335440
653325066224505072,326227,264772,335471
653325066231947048,326157,264664,335374
653325066239389024,326065,264769,335283
6.53325E+17,326159,264858,335453
653325066254272976,326135,264680,335330
653325066261714952,326059,264661,335346
653325066269156928,326206,264734,335402
653325066276598904,326207,264699,335408
653325066284040880,326198,264709,335377
653325066291482856,326161,264730,335391
653325066298924832,326170,264705,335309
653325066306366808,326122,264806,335235
653325066313808784,326120,264717,335215
653325066321250760,326091,264715,335261
653325066328692736,326118,265312,335306
653325066336258505,326091,265023,335387
653325066343693200,326238,264813,335437
653325066351127895,326270,264799,335503
653325066358562590,326864,265472,336105
653325066365997285,326448,264998,335773
653325066373431980,326296,264910,335491
653325066380866675,326287,264796,335306
653325066388301370,326823,264814,335501
653325066395736065,326527,264802,335420
653325066403170760,326295,264832,335183
653325066410605455,326187,264865,335282
653325066418040150,326282,264912,335316
653325066425474845,326375,264942,335427
653325066432909540,326312,264845,335400
653325066440344235,326363,264967,335414
653325066447778930,326294,264783,335463
653325066455213625,326292,264772,335446
653325066462648320,326305,264697,335465
653325066470083017,326478,264675,335393
653325066477517712,326335,264858,335300
653325066484952407,326317,264771,335422
653325066492387102,326323,264895,335331
653325066499821797,326332,264831,335429
653325066507256492,326442,264929,335556
653325066514691187,326431,264891,335542
653325066522125882,326361,264912,335488
653325066529560577,326441,264929,335514
653325066536995272,326534,265000,335602
653325066544429967,326386,264792,335501
653325066551864662,326466,264904,335487
653325066559299357,326470,264942,335589
653325066566734052,326433,264984,335647
653325066574168747,326386,265016,335565
653325066581603442,326598,264981,335597
653325066589038137,326576,265050,335566
653325066596472832,326528,264946,335560
653325066603783752,326549,265092,335559
653325066611225728,326496,264909,335646
653325066618667704,326453,264801,335649
653325066626109680,326316,264829,335445
653325066633551656,326332,264840,335327
653325066640993632,326295,264797,335429
653325066648435608,326414,265378,335747
653325066655877584,326457,265163,335597
653325066663319560,326329,264760,335484
653325066670761536,326256,264741,335493
653325066678203512,326913,265387,336112
653325066685645488,326610,265015,335701
653325066693087464,326458,264900,335520
653325066700529440,326408,264830,335398
653325066707971416,326849,264764,335284
653325066715413392,326476,264793,335281
653325066722855368,326366,264795,335375
653325066730297344,326282,264845,335323
653325066737863113,326589,264903,335555
653325066745297808,326526,264862,335421
653325066752732503,326402,264729,335471
653325066760167198,326401,264848,335443
653325066767601893,326498,264921,335466
653325066775036588,326441,264661,335492
653325066782471283,326380,264705,335407
653325066789905978,326367,264846,335359
653325066797340673,326389,265041,335538
653325066804775368,326258,264850,335553
653325066812210063,326160,264837,335468
653325066819644758,326275,264881,335448
653325066827079453,326500,264959,335545
653325066834514148,326351,264958,335493
653325066841948843,326422,264993,335528
653325066849383538,326413,264951,335543
653325066856818233,326480,264848,335649
653325066864252928,326538,264926,335519
653325066871811419,326355,264959,335380
653325066879238832,326450,264964,335510
653325066886666245,326510,265040,335633
653325066894093658,326600,264966,335706
653325066901521071,326594,264987,335683
653325066908948484,326482,264963,335629
653325066916375897,326533,265000,335647
653325066923803310,326557,264965,335700
653325066931230723,326526,264917,335676
653325066938658136,326568,264952,335724
653325066946085549,326652,264891,335583
653325066953512962,326658,264939,335700
653325066960940375,326565,264918,335639
653325066968367788,326522,265500,335813
653325066975795201,326400,265080,335724
653325066983222614,326519,265068,335734
653325066990650027,326629,265012,335775
653325066998077440,327148,265607,336269
653325067005257288,326680,265480,335764
653325067012699264,326579,265264,335791
653325067020141240,326639,265038,335923
653325067027583216,327352,265121,335907
653325067035025192,326979,265094,335892
653325067042467168,326879,265140,335950
653325067049909144,326716,265103,335769
653325067057351120,326781,264948,335609
653325067064793096,326658,265006,335749
653325067072235072,326656,265023,335889
653325067079677048,326702,265083,335889
653325067087119024,326696,265126,335982
6.53325E+17,326690,265120,335872
653325067102002976,326706,265107,335931
653325067109444952,326784,265149,335978
653325067116886928,326828,265271,336088
653325067124328904,326870,265279,336068
653325067131770880,326866,265176,336172
653325067139212872,326789,265073,336275
653325067146654848,326864,265282,336142
653325067154096824,326843,265329,336175
653325067161538800,326947,265250,336220
653325067168980776,326954,265215,336250
653325067176422752,327046,265270,336297
653325067183864728,326965,265271,336340
653325067191306704,327063,265317,336263
653325067198748680,327085,265238,336359
653325067206190656,327047,265324,336152
653325067213632632,327142,265259,336201
653325067221074608,327126,265318,336151
653325067228516584,327134,265301,336273
653325067235958560,327187,265336,336444
653325067243400536,327196,265352,336392
653325067250842512,327086,265402,336328
653325067258284488,327111,265480,336410
653325067265726464,327178,265434,336327
653325067273292233,327429,265154,336348
653325067280726928,327301,265288,336422
653325067288161623,327264,266109,336559
653325067295596318,327261,265799,336484
653325067303031013,327294,265520,336894
653325067310465708,327306,265578,336845
653325067317900403,328022,266265,337377
653325067325335098,327730,265949,337022
653325067332769793,327559,265704,336854
653325067340204488,327533,265588,336909
653325067347639183,328159,265501,336857
653325067355073878,327662,265557,336736
653325067362508573,327520,265582,336804
653325067369943268,327441,265528,336624
653325067377377963,327503,265572,336822
653325067384812658,327518,265555,336784
653325067392247353,327430,265528,336755
653325067399682048,327249,265546,336765
653325067407116745,327200,265651,336751
653325067414551440,327287,265487,336624
653325067421986135,327289,265527,336692
653325067429420830,327286,265467,336497
653325067436855525,327345,265524,336599
653325067444290220,327329,265517,336586
653325067451724915,327319,265600,336694
653325067459159610,327246,265546,336605
653325067466594305,327409,265617,336672
6.53325E+17,327229,265479,336552
653325067481463695,327199,265530,336624
653325067488898390,327332,265485,336721
653325067496333085,327379,265393,336665
653325067503767780,327358,265351,336706
653325067511202475,327356,265481,336610
653325067518637170,327296,265458,336628
653325067526071865,327287,265532,336600
653325067533506560,327385,265513,336669
653325067540941257,327636,265193,336414
653325067548375952,327492,265276,336529
653325067555810647,327425,265428,336741
653325067563245342,327416,265469,336738
653325067570680037,327391,265524,336775
653325067578114732,327331,265506,336764
653325067585549427,327346,265540,336774
653325067592984122,327391,265602,336639
653325067600418817,327448,265585,336799
653325067607853512,327494,266213,336678
653325067615288207,327582,265931,336893
653325067622722902,327493,265787,336839
653325067630157597,327419,265619,336783
653325067637592292,328112,266218,337447
653325067645026987,327646,265941,337111
653325067652461682,327582,265772,336997
653325067659896377,327664,265716,336964
653325067667331072,328192,265818,336907
653325067674641992,327765,265668,336664
653325067682083968,327770,265666,336823
653325067689525944,327790,265694,336996
653325067696967920,327670,265726,336986
653325067704409896,327748,265733,337052
653325067711851872,327754,265785,336883
653325067719293848,327724,265676,336939
653325067726735824,327834,265729,337014
653325067734177800,327750,265675,336922
653325067741619776,327899,265779,337069
653325067749061752,327845,265833,336960
653325067756503728,327814,265904,337076
653325067763945704,327766,265869,337116
653325067771387680,327839,265874,337027
653325067778829656,327913,265831,337069
653325067786271632,327885,266013,337101
653325067793713608,327831,265940,337216
653325067801155584,327976,265951,337135
653325067808845147,328040,265701,337550
653325067816272560,328198,265806,337390
653325067823699973,328079,265877,337288
653325067831127386,328089,265943,337344
653325067838554799,328189,265966,337388
653325067845982212,328235,265879,337421
653325067853409625,328155,265870,337399
653325067860837038,327988,265833,337378
653325067868264451,328154,265988,337466
653325067875691864,328195,266052,337357
653325067883119277,328119,266085,337230
653325067890546690,328126,266079,337415
653325067897974103,328245,266099,337518
653325067905401516,328273,266106,337587
653325067912828929,328262,266135,337594
653325067920256342,328254,266167,337606
653325067927683755,328296,266306,337608
653325067935111168,328368,266280,337657
653325067942291016,328604,266496,337380
653325067949732992,328492,266284,337532
653325067957174968,329063,266794,338371
653325067964616944,328682,266505,337958
653325067972058920,328508,266362,337953
653325067979500896,328379,266457,337859
653325067986942872,328813,266367,338309
653325067994384848,328553,266329,338046
653325068001826824,328522,266370,337963
653325068009268800,328370,266315,337941
653325068016710776,328465,266329,337968
653325068024152752,328645,266376,337851
653325068031594728,328456,266343,337865
653325068039036704,328470,266391,337927
653325068046478680,328536,266351,337939
653325068053920656,328663,266553,338038
653325068061362632,328536,266444,338011
653325068068804608,328641,266436,338104
653325068076246600,328768,266349,338380
653325068083688576,328667,266411,338248
653325068091130552,328516,266448,338158
653325068098572528,328475,266518,338180
653325068106014504,328577,266545,338202
653325068113456480,328638,266509,338133
653325068120898456,328735,266473,338185
653325068128340432,328672,266420,338124
653325068135782408,328741,266420,338237
653325068143224384,328603,266342,338100
653325068150666360,328545,266220,338162
653325068158108336,328467,266356,338053
653325068165550312,328548,266363,338047
653325068172992288,328468,266279,338040
653325068180434264,328416,266286,337978
653325068187876240,328441,266280,337991
653325068195318216,328424,266236,337991
653325068202760192,328425,266281,338027
653325068210449755,328283,266218,338131
653325068217877168,328372,266228,337924
653325068225304581,328359,266226,337994
653325068232731994,328416,266306,338040
653325068240159407,328375,266256,337906
653325068247586820,328442,266298,337860
653325068255014233,328392,266266,337826
653325068262441646,328348,266236,337781
653325068269869059,328165,266194,337676
653325068277296472,328425,266731,338439
653325068284723885,328371,266308,338159
653325068292151298,328323,266214,337909
653325068299578711,328265,266193,337883
653325068307006124,328821,266396,338411
653325068314433537,328620,266234,338077
653325068321860950,328449,266182,337902
653325068329288363,328311,266188,337792
653325068336715776,328241,266107,337774
653325068343895624,328342,266142,338001
653325068351337600,328276,266004,337863
653325068358779576,328120,266157,337726
653325068366221552,328064,266113,337620
653325068373663528,328251,265852,337846
653325068381105504,328092,265939,337715
653325068388547480,328201,265978,337753
653325068395989456,328269,266000,337873
653325068403431432,328175,265931,337642
653325068410873408,328048,266030,337679
653325068418315384,328164,265989,337828
653325068425757360,328113,266112,337777
653325068433199336,328112,265934,337598
653325068440641312,328090,266128,337604
653325068448083288,327904,265938,337677
653325068455525264,328070,266048,337607
653325068462967240,327933,265995,337502
653325068470409216,327960,265974,337569
653325068477974985,328183,265726,337703
653325068485409680,328039,265804,337612
653325068492844375,328012,265885,337585
653325068500279070,328091,265994,337619
653325068507713765,328101,265887,337605
653325068515148460,328013,265772,337577
653325068522583155,327973,265895,337569
653325068530017850,327990,265910,337590
653325068537452545,327828,265867,337568
653325068544887240,327839,265945,337363
653325068552321935,327814,265949,337306
653325068559756630,327873,265896,337311
653325068567191325,327910,265910,337382
653325068574626020,327868,265963,337415
653325068582060715,327908,265906,337304
653325068589495410,327896,265869,337363
653325068596930105,328055,266521,337989
653325068604364800,327835,266252,337693
653325068611799497,328064,266066,337311
653325068619234192,327863,265910,337456
653325068626668887,328504,266048,338021
653325068634103582,328174,265940,337726
653325068641538277,327894,265931,337560
653325068648972972,327774,265944,337449
653325068656407667,327845,265788,337519
653325068663842362,327815,265909,337523
653325068671277057,327809,265874,337496
653325068678711752,327867,265927,337403
653325068686146447,328018,265794,337347
653325068693581142,327870,265741,337390
653325068701015837,327705,265871,337399
653325068708450532,327839,265931,337420
653325068715885227,327821,265966,337412
653325068723319922,327824,265923,337450
653325068730754617,327791,265942,337419
653325068738189312,327711,265857,337374
653325068745624009,327627,266055,337234
653325068753058704,327587,265989,337200
653325068760493399,327669,265977,337293
653325068767928094,327521,265915,337220
653325068775362789,327621,265858,337308
653325068782797484,327709,265885,337306
653325068790232179,327712,265722,337331
653325068797666874,327751,265957,337474
653325068805101569,327715,265869,337355
653325068812536264,327648,265881,337384
653325068819970959,327627,265841,337387
653325068827405654,327729,265818,337408
653325068834840349,327692,265802,337390
653325068842275044,327706,265831,337259
653325068849709739,327776,265934,337471
653325068857144434,327807,265869,337577
653325068864579129,327774,265825,337502
653325068872013824,327700,265913,337463
653325068879324744,327999,265847,337359
653325068886766720,327765,265844,337260
653325068894208696,327766,265760,337453
653325068901650672,327710,265843,337323
653325068909092648,327593,265834,337321
653325068916534624,327732,266514,337988
653325068923976600,327715,266149,337641
653325068931418576,327573,265924,337371
653325068938860552,327553,265834,337314
653325068946302528,328185,266152,337979
653325068953744504,327780,265894,337480
653325068961186480,327615,265700,337234
653325068968628456,327491,265540,337059
653325068976070432,327423,265579,336959
653325068983512408,327346,265650,336955
653325068990954384,327263,265534,336923
653325068998396360,327420,265504,336922
653325069005838336,327346,265422,336997
653325069013404105,327069,265404,336769
653325069020838800,327158,265345,336803
653325069028273495,327139,265450,336864
653325069035708190,327222,265482,336850
653325069043142885,327145,265486,336874
653325069050577580,327105,265334,336740
653325069058012275,327080,265376,336746
653325069065446970,327166,265396,336798
653325069072881665,327129,265380,336813
653325069080316360,327082,265411,336647
653325069087751055,327161,265339,336721
653325069095185750,327127,265301,336647
653325069102620445,327082,265256,336628
653325069110055140,327078,265329,336686
653325069117489835,326992,265350,336565
653325069124924530,326924,265280,336516
653325069132359225,326875,265271,336529
653325069139793920,326954,265311,336636
653325069147228617,326717,265243,336333
653325069154663312,326873,265271,336442
653325069162098007,326853,265270,336491
653325069169532702,326886,265317,336473
653325069176967397,326756,265275,336565
653325069184402092,326676,265226,336362
653325069191836787,326847,265261,336429
653325069199271482,326823,265302,336461
653325069206706177,326685,265104,336353
653325069214140872,326759,265170,336375
653325069221575567,326740,265136,336376
653325069229010262,326802,265148,336412
653325069236444957,326691,265755,336897
653325069243879652,326800,265500,336630
653325069251314347,326700,265208,336520
653325069258749042,326629,265181,336318
653325069266183737,327314,265751,336882
653325069273618432,326918,265260,336510
653325069281053129,326995,265209,336250
653325069288487824,326674,265193,336168
653325069295922519,327209,265093,336158
653325069303357214,326912,265012,336293
653325069310791909,326635,265016,336387
653325069318226604,326598,265005,336320
653325069325661299,326618,265004,336343
653325069333095994,326654,264959,336247
653325069340530689,326485,264989,336226
653325069347965384,326620,265083,336213
653325069355400079,326528,265127,336229
653325069362834774,326520,265067,336176
653325069370269469,326518,265056,336246
653325069377704164,326610,264940,336279
653325069385138859,326536,265138,336357
653325069392573554,326453,265083,336250
653325069400008249,326570,265065,336200
653325069407442944,326513,265107,336175
653325069414630070,326702,264869,335949
653325069422079328,326528,265115,336012
653325069429528586,326618,265135,336105
653325069436977844,326675,265065,336145
653325069444427102,326548,265083,336174
653325069451876360,326473,264960,336216
653325069459325618,326398,265012,336121
653325069466774876,326428,265000,336202
653325069474224134,326449,264999,336153
653325069481673392,326482,264990,336077
653325069489122650,326313,264936,336085
653325069496571908,326373,264987,336196
653325069504021166,326362,265008,336019
653325069511470424,326401,265028,335909
653325069518919682,326464,265012,336106
653325069526368940,326440,265032,336088
653325069533818198,326460,264976,336137
653325069541267456,326452,265053,336149
653325069549088091,326538,264755,336094
653325069556515504,326445,265543,336423
653325069563942917,326350,265155,336363
653325069571370330,326238,265089,336026
653325069578797743,326172,264974,336014
653325069586225156,326921,265623,336746
653325069593652569,326584,265282,336374
653325069601079982,326552,265145,336278
653325069608507395,326473,265040,336073
653325069615934808,327067,265043,336142
653325069623362221,326663,264963,336060
653325069630789634,326496,264964,336076
653325069638217047,326493,264994,336206
653325069645644460,326469,265020,336211
653325069653071873,326402,264934,336227
653325069660499286,326501,264971,336240
653325069667926699,326454,264986,336303
653325069675354112,326454,265031,336255
653325069682533960,326417,265281,336038
653325069689975936,326366,265152,336141
653325069697417912,326449,265141,336170
653325069704859888,326491,265058,336194
653325069712301864,326466,265001,336167
653325069719743840,326297,264941,336155
653325069727185816,326368,264947,336230
653325069734627792,326502,264930,336219
653325069742069768,326307,264818,336094
653325069749511744,326265,264803,336050
653325069756953720,326203,264785,335930
653325069764395696,326320,264743,335928
653325069771837672,326118,264659,335905
653325069779279648,326170,264735,335887
653325069786721624,326147,264803,335918
653325069794163600,326115,264713,335906
653325069801605576,326150,264771,335830
653325069809047552,326071,264742,335882
653325069816489544,326071,264770,335807
653325069823931520,326090,264736,335733
653325069831373496,326010,264562,335760
653325069838815472,325993,264627,335641
653325069846257448,326041,264596,335704
653325069853699424,325951,264640,335617
653325069861141400,325981,264454,335717
653325069868583376,325975,264464,335728
653325069876025352,325942,265192,335859
653325069883467328,325889,264797,335677
653325069890909304,325808,264709,335545
653325069898351280,325859,264588,335596
653325069905793256,326512,265111,336182
653325069913235232,326193,264793,335862
653325069920677208,326058,264646,335671
653325069928119184,326025,264680,335587
653325069935561160,326568,264661,335987
653325069943003136,326249,264606,335705
653325069950692699,326252,264376,335884
653325069958120112,326122,264463,335698
653325069965547525,326095,264449,335714
653325069972974938,326008,264539,335748
653325069980402351,325972,264622,335701
653325069987829764,325951,264626,335749
653325069995257177,326005,264628,335769
653325070002684590,325913,264485,335701
653325070010112003,325951,264619,335781
653325070017539416,325997,264649,335710
653325070024966829,325948,264733,335688
653325070032394242,325876,264674,335554
653325070039821655,325948,264615,335664
653325070047249068,325938,264504,335790
653325070054676481,326085,264652,335873
653325070062103894,325939,264625,335793
653325070069531307,325823,264537,335659
653325070076958720,325690,264530,335544
653325070084138568,325965,264708,335441
653325070091580544,325826,264652,335503
653325070099022520,325826,264593,335497
653325070106464496,325970,264647,335604
653325070113906472,325921,264519,335651
653325070121348448,325959,264585,335752
653325070128790424,326013,264527,335784
653325070136232400,325958,264645,335692
653325070143674376,325923,264657,335664
653325070151116352,325952,264631,335780
653325070158558328,325897,264550,335706
653325070166000304,325856,264610,335643
653325070173442280,326031,264543,335753
653325070180884256,326069,264664,335822
653325070188326232,326132,264709,335807
653325070195768208,326072,264683,335714
653325070203210184,326064,264667,335879
653325070210652160,326052,264694,335736
653325070218094152,325924,264520,335480
653325070225536128,326117,265153,336310
653325070232978104,325927,264892,336117
653325070240420080,325846,264765,335917
653325070247862056,325933,264732,335837
653325070255304032,326503,265202,336487
653325070262746008,326223,264887,336208
653325070270187984,326116,264767,336097
653325070277629960,326157,264786,335934
653325070285071936,326137,264686,336002
653325070292513912,325987,264699,335795
653325070299955888,326052,264686,335910
653325070307397864,326185,264713,336032
653325070314839840,326171,264739,335936
653325070322281816,326136,264732,335999
653325070329723792,326055,264760,336049
653325070337165768,326094,264742,336089
653325070344607744,326162,264815,336145
653325070352297307,326146,264954,336207
653325070359724720,326136,264844,336018
653325070367152133,326271,264815,336020
653325070374579546,326340,264858,336238
653325070382006959,326474,264865,336162
653325070389434372,326409,264872,336141
653325070396861785,326304,264750,336050
653325070404289198,326475,264828,336236
653325070411716611,326351,264890,336204
653325070419144024,326294,264968,336244
653325070426571437,326364,264893,336176
653325070433998850,326409,264983,336364
653325070441426263,326449,264930,336284
653325070448853676,326344,265050,336202
653325070456281089,326471,264902,336363
653325070463708502,326537,264960,336297
653325070471135915,326447,264900,336328
653325070478563328,326459,264937,336325
653325070485866953,326490,264865,336513
653325070493301648,326462,264867,336414
653325070500736343,326312,264763,336323
653325070508171038,326218,264849,336225
653325070515605733,326364,264861,336141
653325070523040428,326350,264754,336191
653325070530475123,326167,264702,336098
653325070537909818,326210,264639,336074
653325070545344513,326179,265170,336751
653325070552779208,326128,264863,336354
653325070560213903,326171,264714,336071
653325070567648598,326098,264627,336112
653325070575083293,326748,265251,336593
653325070582517988,326323,264814,336236
653325070589952683,326220,264674,336064
653325070597387378,326084,264577,336006
653325070604822073,326639,264661,335992
653325070612256768,326395,264610,335909
653325070619443894,326043,264663,335851
653325070626893152,326121,264710,335920
653325070634342410,326078,264730,335956
653325070641791668,326027,264675,335933
653325070649240926,326070,264534,335983
653325070656690184,326143,264648,336045
653325070664139442,326175,264559,335974
653325070671588700,326031,264490,335954
653325070679037958,326133,264611,335958
653325070686487216,326406,264741,336093
653325070693936474,326215,264729,336026
653325070701385732,326099,264612,335906
653325070708834990,325996,264576,335892
653325070716284248,326155,264701,336082
653325070723733506,326263,264841,336211
653325070731182764,326291,264733,336134
653325070738632022,326212,264719,336072
653325070746081280,326252,264775,336141
653325070753901915,325953,264768,336391
653325070761329328,326024,264813,336310
653325070768756741,326091,264761,336244
653325070776184154,326276,264769,336305
653325070783611567,326195,264822,336292
653325070791038980,326187,264861,336269
653325070798466393,326264,264917,336285
653325070805893806,326217,264865,336244
653325070813321219,326300,264669,336302
653325070820748632,326259,264734,336281
653325070828176045,326226,264748,336406
653325070835603458,326223,264730,336351
653325070843030871,326215,264721,336380
653325070850458284,326300,264693,336349
653325070857885697,326359,264842,336306
653325070865313110,326430,265462,336448
653325070872740523,326431,265048,336299
653325070880167936,326340,264872,336363
653325070887347784,326658,264635,336413
653325070894789760,327075,265371,337057
653325070902231736,326791,265132,336694
653325070909673712,326639,264903,336679
653325070917115688,326591,264956,336698
653325070924557664,327106,264999,336611
653325070931999640,326772,265000,336597
653325070939441616,326542,264862,336557
653325070946883592,326447,264949,336480
653325070954325568,326473,264906,336575
653325070961767544,326356,264884,336504
653325070969209520,326454,264941,336435
653325070976651496,326471,265020,336592
653325070984093472,326486,264984,336443
653325070991535448,326475,265025,336503
653325070998977424,326583,265035,336555
653325071006419400,326580,265052,336603
653325071013861376,326509,265096,336775
653325071021427145,326736,264858,336725
653325071028861840,326618,264986,336647
653325071036296535,326581,265063,336686
653325071043731230,326670,265143,336686
653325071051165925,326768,265086,336664
653325071058600620,326669,265020,336653
653325071066035315,326580,265012,336586
653325071073470010,326633,265194,336585
653325071080904705,326600,265058,336634
653325071088339400,326602,265109,336647
653325071095774095,326673,265043,336826
653325071103208790,326732,265177,336804
653325071110643485,326618,265158,336740
653325071118078180,326610,265153,336776
653325071125512875,326656,265152,336906
653325071132947570,326607,265139,336834
653325071140382265,326727,265164,336919
653325071147816960,326742,265143,336876
653325071155251657,326721,265232,336739
653325071162686352,326735,265266,336861
653325071170121047,326839,265264,336919
653325071177555742,326776,265253,336992
653325071184990437,326791,265480,336990
653325071192425132,326871,265366,337019
653325071199859827,326896,265183,337046
653325071207294522,326813,265287,337065
653325071214729217,327491,265870,337702
653325071222163912,327160,265550,337312
653325071229598607,327019,265414,337247
653325071237033302,326892,265268,337112
653325071244467997,327495,265170,337739
653325071251902692,327054,265279,337424
653325071259337387,326935,265236,337118
653325071266772082,326898,265175,337067
653325071274206777,326833,265091,337092
653325071281641472,326811,264907,337067
653325071288952392,326858,264700,336872
653325071296394368,326629,264898,336783
653325071303836344,326388,264918,336709
653325071311278320,326504,264919,336699
653325071318720296,326494,264905,336821
653325071326162272,326338,264836,336689
653325071333604248,326414,264844,336658
653325071341046224,326395,264852,336680
653325071348488200,326396,264788,336707
653325071355930176,326373,264814,336645
653325071363372152,326386,264882,336574
653325071370814128,326398,264820,336523
653325071378256104,326300,264794,336510
653325071385698080,326341,264852,336592
653325071393140056,326275,264788,336498
653325071400582032,326269,264754,336531
653325071408024008,326091,264709,336433
653325071415465984,326221,264588,336467
653325071423031753,326314,264546,336697
653325071430466448,326124,264608,336428
653325071437901143,326115,264637,336450
653325071445335838,326130,264696,336331
653325071452770533,326102,264653,336338
653325071460205228,326065,264549,336465
653325071467639923,326172,264597,336374
653325071475074618,326095,264597,336365
653325071482509313,326133,264704,336416
653325071489944008,326170,264647,336548
653325071497378703,326101,264728,336431
653325071504813398,326123,264795,336451
653325071512248093,326043,264752,336327
653325071519682788,326065,264746,336213
653325071527117483,326142,264732,336426
653325071534552178,326028,265352,337078
653325071541986873,326035,264990,336716
653325071549421568,325958,264800,336510
653325071556732488,326038,264585,336336
653325071564174464,326661,265178,337069
653325071571616440,326351,264854,336726
653325071579058416,326090,264709,336639
653325071586500392,325904,264645,336514
653325071593942368,325881,264665,336557
653325071601384344,325981,264664,336520
653325071608826320,325969,264629,336493
653325071616268296,326016,264673,336465
653325071623710272,325951,264636,336398
653325071631152248,325958,264473,336448
653325071638594224,325975,264498,336425
653325071646036200,326010,264461,336526
653325071653478176,325993,264543,336327
653325071660920152,325955,264658,336433
653325071668362128,325919,264643,336427
653325071675804104,325887,264508,336435
653325071683246080,325920,264648,336493
653325071690811849,325529,264353,336409
653325071698246544,325727,264517,336431
653325071705681239,325907,264503,336432
653325071713115934,325907,264627,336571
653325071720550629,325912,264614,336483
653325071727985324,325872,264577,336469
653325071735420019,325992,264582,336374
653325071742854714,325888,264609,336441
653325071750289409,325826,264596,336459
653325071757724104,325691,264558,336284
653325071765158799,325733,264609,336262
653325071772593494,325774,264659,336278
653325071780028189,325854,264643,336379
653325071787462884,325881,264605,336421
653325071794897579,325879,264671,336406
653325071802332274,325877,264586,336320
653325071809766969,325812,264500,336429
653325071817201664,325784,264456,336474
653325071824636361,325809,264543,336210
653325071832071056,325784,264524,336404
653325071839505751,325786,264635,336418
653325071846940446,325816,264589,336445
653325071854375141,325765,265112,336937
653325071861809836,325819,264799,336698
653325071869244531,325831,264754,336534
653325071876679226,325812,264520,336507
653325071884113921,326356,265090,337109
653325071891548616,326094,264833,336622
653325071898983311,325944,264702,336521
653325071906418006,325700,264659,336404
653325071913852701,326365,264610,336525
653325071921287396,326067,264562,336538
653325071928722091,325946,264512,336558
653325071936156786,325825,264614,336575
653325071943591481,325877,264613,336575
653325071951026176,325940,264552,336445
653325071958337096,325680,264879,336492
653325071965779072,325911,264754,336567
653325071973221048,325934,264573,336621
653325071980663024,325817,264569,336461
6.53325E+17,325874,264622,336477
653325071995546976,325846,264554,336542
653325072002988952,325799,264619,336588
653325072010430928,325804,264588,336470
653325072017872904,325911,264561,336602
653325072025314880,325726,264509,336465
653325072032756856,325815,264586,336584
653325072040198832,325725,264539,336549
653325072047640808,325744,264524,336547
653325072055082784,325799,264431,336462
653325072062524760,325764,264394,336267
653325072069966736,325727,264308,336145
653325072077408712,325713,264270,336162
653325072084850688,325610,264338,336252
653325072092540251,325660,264030,336171
653325072099967664,325576,264091,336124
653325072107395077,325478,264222,336188
653325072114822490,325377,264227,336050
653325072122249903,325365,264229,335923
653325072129677316,325341,264111,336048
653325072137104729,325351,264190,335944
653325072144532142,325331,264215,335816
653325072151959555,325409,264163,335952
653325072159386968,325221,264106,335929
653325072166814381,325337,264090,335946
653325072174241794,325347,264724,336112
653325072181669207,325290,264227,335884
653325072189096620,325292,264187,335909
653325072196524033,325211,264159,335956
653325072203951446,325835,264627,336490
653325072211378859,325468,264332,336135
653325072218806272,325332,264218,335861
653325072225986120,325270,264251,336166
653325072233428096,325834,264168,335902
653325072240870072,325422,264131,335869
653325072248312048,325169,264020,335801
653325072255754024,325078,264090,335791
6.53325E+17,325076,264002,335678
653325072270637976,325009,264030,335629
653325072278079952,324977,264070,335522
653325072285521928,324998,264054,335619
653325072292963904,324998,264045,335734
653325072300405880,325026,264038,335671
653325072307847856,325106,264019,335699
653325072315289832,325000,263917,335590
653325072322731808,324906,264032,335768
653325072330173784,325008,263964,335654
653325072337615760,325006,263941,335611
653325072345057736,324927,263897,335646
653325072352499712,324941,264038,335735
653325072359941704,324894,264069,335410
653325072367383680,324917,263917,335589
653325072374825656,324892,263915,335542
653325072382267632,325007,263851,335700
653325072389709608,325116,263857,335649
653325072397151584,324945,263930,335739
653325072404593560,324808,263808,335710
653325072412035536,324782,263832,335512
653325072419477512,324909,263888,335596
653325072426919488,324986,264031,335518
653325072434361464,324876,263841,335648
653325072441803440,324976,263876,335535
653325072449245416,324883,263906,335531
653325072456687392,324902,263927,335624
653325072464129368,324933,263878,335573
653325072471571344,324897,263934,335520
653325072479013320,324780,263894,335592
653325072486455296,324854,263838,335564
653325072494144859,324669,264265,335794
653325072501572272,324629,264006,335458
653325072508999685,324735,263741,335348
653325072516427098,324821,263795,335404
653325072523854511,325512,264483,336140
653325072531281924,325007,264054,335679
653325072538709337,324918,263967,335526
653325072546136750,324938,263850,335534
653325072553564163,325455,263947,335810
653325072560991576,325080,263814,335555
653325072568418989,325057,263889,335553
653325072575846402,324957,263829,335573
653325072583273815,324844,263855,335483
653325072590701228,324807,263846,335547
653325072598128641,324900,263914,335609
653325072605556054,324826,263875,335582
653325072612983467,324844,263875,335573
653325072620410880,324885,263842,335517
653325072627590728,324821,264017,335314
653325072635032704,324892,264053,335454
653325072642474680,324857,264049,335462
653325072649916656,324897,263928,335509
653325072657358632,324964,263829,335556
653325072664800608,324840,263864,335590
653325072672242584,324958,263943,335626
653325072679684560,324931,263923,335544
653325072687126536,324818,263843,335591
653325072694568512,324899,263946,335604
653325072702010488,324941,263960,335582
653325072709452464,324816,263856,335603
653325072716894440,324910,263953,335557
653325072724336416,324867,263847,335501
653325072731778392,324870,263895,335539
653325072739220368,324836,263937,335628
653325072746662344,324839,264000,335495
653325072754104320,324913,263947,335549
653325072761546312,324880,264011,335474
653325072768988288,324725,264077,335606
653325072776430264,324861,264000,335653
653325072783872240,324936,263991,335620
653325072791314216,324938,263872,335697
653325072798756192,324943,263858,335704
653325072806198168,325072,264017,335759
653325072813640144,325147,264004,335824
653325072821082120,325048,263995,335782
653325072828524096,324947,263965,335763
653325072835966072,324957,263977,335748
653325072843408048,325262,264544,336443
653325072850850024,325104,264185,336084
6.53325E+17,324929,264026,335852
653325072865733976,324973,263978,335850
653325072873175952,325439,264088,336296
653325072880617928,325140,263874,335810
653325072888059904,324890,263891,335607
653325072895749467,324689,263983,335213
653325072903176880,324706,263906,335302
653325072910604293,324604,263703,335405
653325072918031706,324666,263736,335432
653325072925459119,324515,263720,335347
653325072932886532,324454,263698,335167
653325072940313945,324507,263671,335195
653325072947741358,324500,263689,335280
653325072955168771,324473,263666,335179
653325072962596184,324532,263571,335266
653325072970023597,324500,263518,335170
653325072977451010,324507,263551,335232
653325072984878423,324481,263548,335102
653325072992305836,324437,263638,335203
653325072999733249,324484,263656,335093
653325073007160662,324487,263549,335149
653325073014588075,324417,263595,334978
653325073022015488,324448,263485,334996
653325073029195336,324253,263629,335119
653325073036637312,324400,263637,335061
653325073044079288,324286,263543,335102
653325073051521264,324311,263439,334953
653325073058963240,324413,263381,334978
653325073066405216,324294,263398,335028
653325073073847192,324326,263464,334979
653325073081289168,324285,263561,334896
653325073088731144,324343,263651,334972
653325073096173120,324414,263560,334997
653325073103615096,324388,263483,335102
653325073111057072,324332,263456,334887
653325073118499048,324214,263431,334928
653325073125941024,324267,263407,334915
6.53325E+17,324283,263484,334866
653325073140824976,324153,263531,334955
653325073148266952,324242,263484,335015
653325073155708928,324248,263541,334953
653325073163150920,324565,263925,335835
653325073170592896,324230,263695,335249
653325073178034872,324244,263517,335050
653325073185476848,324227,263347,335007
653325073192918824,324781,263918,335581
653325073200360800,324434,263545,335251
653325073207802776,324272,263389,335091
653325073215244752,324137,263397,334866
653325073222686728,324497,263346,334804
653325073230128704,324346,263450,334843
653325073237570680,324205,263364,334885
653325073245012656,324212,263378,334823
653325073252454632,324079,263406,334734
653325073259896608,324167,263361,334729
653325073267338584,324154,263396,334789
653325073274780560,324188,263371,334778
653325073282222536,324182,263369,334859
653325073289664512,324086,263387,334837
653325073297354075,324281,263496,334512
653325073304781488,324210,263322,334725
653325073312208901,324137,263449,334784
653325073319636314,324031,263435,334717
653325073327063727,324044,263372,334762
653325073334491140,324045,263274,334818
653325073341918553,324173,263425,334830
653325073349345966,324127,263363,334832
653325073356773379,324031,263361,334754
653325073364200792,324043,263402,334727
653325073371628205,324142,263337,334724
653325073379055618,324139,263406,334831
653325073386483031,324089,263395,334801
653325073393910444,324005,263381,334868
653325073401337857,324079,263339,334924
653325073408765270,323973,263390,334768
653325073416192683,324060,263419,334826
653325073423620096,324093,263422,334820
653325073430923721,324255,263259,334522
653325073438358416,324175,263418,334789
653325073445793111,324184,263398,334778
653325073453227806,324170,263252,334911
653325073460662501,324055,263359,334749
653325073468097196,324148,263412,334856
653325073475531891,324059,263459,334860
653325073482966586,323996,264014,335397
653325073490401281,324146,263712,335068
653325073497835976,324112,263441,334972
653325073505270671,324174,263236,334933
653325073512705366,324797,263929,335477
653325073520140061,324543,263640,335178
653325073527574756,324339,263497,335060
653325073535009451,324285,263523,335053
653325073542444146,324798,263503,335074
653325073549878841,324355,263500,335061
653325073557313536,324368,263508,335040
653325073564500662,324198,263536,334786
653325073571949920,324047,263572,335009
653325073579399178,324069,263552,334976
653325073586848436,324193,263612,334975
653325073594297694,324242,263493,335062
653325073601746952,324209,263545,335248
653325073609196210,324232,263600,335190
653325073616645468,324366,263662,335112
653325073624094726,324362,263610,335227
653325073631543984,324295,263634,335228
653325073638993242,324460,263677,335319
653325073646442500,324356,263693,335205
653325073653891758,324509,263683,335319
653325073661341016,324629,263713,335456
653325073668790274,324557,263676,335350
653325073676239532,324468,263612,335266
653325073683688790,324404,263587,335326
653325073691138048,324390,263561,335367
653325073698834889,324445,263357,335296
653325073706269584,324393,263103,335460
653325073713704279,324358,263236,335301
653325073721138974,324302,263433,335150
653325073728573669,324308,263465,335194
653325073736008364,324155,263452,335017
653325073743443059,324294,263422,335084
653325073750877754,324117,263404,335047
653325073758312449,324253,263246,335114
653325073765747144,324217,263333,334959
653325073773181839,324298,263289,334995
653325073780616534,324227,263275,334967
653325073788051229,324252,263295,334981
653325073795485924,324252,263353,334886
653325073802920619,324131,263956,335336
653325073810355314,324192,263615,335008
653325073817790009,324270,263437,335070
653325073825224704,324225,263342,335090
653325073832659401,324780,264020,335612
653325073840094096,324407,263635,335239
653325073847528791,324310,263399,335086
653325073854963486,324330,263451,335143
653325073862398181,324861,263294,335148
653325073869832876,324468,263370,335117
653325073877267571,324441,263412,335077
653325073884702266,324302,263410,335149
653325073892136961,324236,263355,335102
653325073899571656,324227,263362,335052
653325073907006351,324213,263390,335014
653325073914441046,324234,263498,335041
653325073921875741,324252,263450,335131
653325073929310436,324301,263491,335190
653325073936745131,324347,263492,335288
653325073944179826,324350,263521,335190
653325073951614521,324297,263463,335267
653325073959049216,324256,263543,335375
653325073966483913,324393,263190,335054
653325073973918608,324361,263456,335202
653325073981353303,324364,263539,335282
653325073988787998,324367,263577,335188
653325073996222693,324343,263564,335199
653325074003657388,324310,263487,335172
653325074011092083,324376,263384,335184
653325074018526778,324329,263505,335084
653325074025961473,324390,263442,335169
653325074033396168,324377,263515,335096
653325074040830863,324360,263560,335150
653325074048265558,324385,263537,335283
653325074055700253,324388,263514,335110
653325074063134948,324342,263450,335213
653325074070569643,324332,263532,335253
653325074078004338,324455,263557,335235
653325074085439033,324421,263579,335150
653325074092873728,324402,263541,335116
653325074100184648,324379,263770,335195
653325074107626624,324416,263630,335232
653325074115068600,324565,263644,335244
653325074122510576,324549,264169,335281
653325074129952552,324559,263920,335401
653325074137394528,324542,263749,335213
653325074144836504,324540,263639,335293
653325074152278480,325168,264305,335888
653325074159720456,324842,263988,335583
653325074167162432,324773,263953,335470
653325074174604408,324694,263789,335389
653325074182046384,325228,263796,335358
653325074189488360,324921,263758,335423
653325074196930336,324676,263736,335301
653325074204372312,324582,263773,335444
653325074211814288,324611,263747,335488
653325074219256264,324627,263678,335489
653325074226698240,324566,263712,335485
653325074234264009,324424,263847,335684
653325074241698704,324601,263702,335561
653325074249133399,324689,263805,335549
653325074256568094,324585,263689,335545
653325074264002789,324620,263786,335540
653325074271437484,324678,263778,335582
653325074278872179,324717,263839,335551
653325074286306874,324852,263908,335638
653325074293741569,324802,263873,335596
653325074301176264,324809,263897,335619
653325074308610959,324838,263912,335588
653325074316045654,324760,263837,335632
653325074323480349,324713,263839,335630
653325074330915044,324967,263799,335672
653325074338349739,324918,263854,335616
653325074345784434,324894,263857,335724
653325074353219129,324744,263820,335776
653325074360653824,324736,263879,335849
653325074367964744,324841,263855,336003
653325074375406720,324973,264013,335854
653325074382848696,325088,263749,335913
653325074390290672,325087,264015,335866
653325074397732648,325177,264137,335875
653325074405174624,325235,264009,335894
653325074412616600,325148,264056,335827
653325074420058576,325151,264115,336033
653325074427500552,325294,264281,336126
653325074434942528,325338,264277,336028
653325074442384504,325359,264881,336043
653325074449826480,325313,264578,336009
653325074457268456,325407,264426,336137
653325074464710432,325297,264362,336028
653325074472152408,325958,264855,336733
653325074479594384,325665,264541,336375
653325074487036360,325510,264204,336278
653325074494478336,325385,264118,336247
653325074502044105,326369,264427,336127
653325074509478800,325707,264310,336168
653325074516913495,325398,264131,336014
653325074524348190,325429,264214,336020
653325074531782885,325137,264009,335989
653325074539217580,325206,263961,335921
653325074546652275,325088,263942,335938
653325074554086970,325083,264029,335937
653325074561521665,325209,263971,335931
653325074568956360,325247,264084,335841
653325074576391055,325264,263974,335929
653325074583825750,325145,264020,335851
653325074591260445,325086,264033,335987
653325074598695140,325205,264037,335975
653325074606129835,325209,263956,335968
653325074613564530,325163,264012,335890
653325074620999225,325265,264048,336097
653325074628433920,325135,264071,336012
653325074635868617,325075,264079,336060
653325074643303312,325237,264036,335982
653325074650738007,325222,263995,336032
653325074658172702,325175,263925,336050
653325074665607397,325180,264038,336024
653325074673042092,325304,264056,336111
653325074680476787,325150,263958,335971
653325074687911482,325203,264062,336222
653325074695346177,325215,264136,336167
653325074702780872,325274,264099,336057
653325074710215567,325257,264105,336088
653325074717650262,325308,264158,336128
653325074725084957,325384,264176,336135
653325074732519652,325275,264181,336192
653325074739954347,325325,264135,336082
653325074747389042,325389,264191,336303
653325074754823737,325355,264107,336273
653325074762258432,325354,264417,336213
653325074769569352,325582,264303,336392
653325074777011328,325480,264303,336245
653325074784453304,325468,264240,336304
653325074791895280,326043,264888,336900
653325074799337256,325740,264440,336577
653325074806779232,325523,264324,336404
653325074814221208,325455,264190,336269
653325074821663184,326122,264277,336765
653325074829105160,325760,264253,336564
653325074836547136,325583,264286,336279
653325074843989112,325465,264237,336293
653325074851431088,325421,264145,336309
653325074858873064,325425,264205,336382
653325074866315040,325495,264210,336276
653325074873757016,325513,264334,336251
653325074881198992,325457,264155,336315
653325074888640968,325433,264227,336361
653325074896082944,325510,264268,336431
653325074903648713,325426,264357,336293
653325074911083408,325431,264296,336385
653325074918518103,325549,264340,336460
653325074925952798,325478,264292,336504
653325074933387493,325460,264357,336349
653325074940822188,325650,264329,336435
653325074948256883,325478,264352,336442
653325074955691578,325567,264330,336433
653325074963126273,325524,264260,336493
653325074970560968,325544,264340,336451
653325074977995663,325587,264431,336502
653325074985430358,325541,264363,336433
653325074992865053,325564,264303,336457
653325075000299748,325427,264389,336473
653325075007734443,325535,264410,336601
653325075015169138,325529,264356,336470
653325075022603833,325511,264381,336565
653325075030038528,325535,264361,336456
653325075037473225,325546,264145,336359
653325075044907920,325510,264163,336484
653325075052342615,325546,264299,336397
653325075059777310,325412,264325,336328
653325075067212005,325589,264327,336405
653325075074646700,325610,264334,336444
653325075082081395,325555,264505,336383
653325075089516090,325600,264514,336377
653325075096950785,325651,264394,336435
653325075104385480,325699,264497,336405
653325075111820175,326349,265018,337084
653325075119254870,325788,264730,336774
653325075126689565,325723,264562,336639
653325075134124260,325678,264437,336629
653325075141558955,326281,264397,337128
653325075148993650,326026,264393,336834
653325075156428345,325842,264339,336747
653325075163863040,325797,264451,336591
653325075171297737,326009,264626,336388
653325075178732432,325795,264424,336445
653325075186167127,325816,264497,336511
653325075193601822,325764,264476,336516
653325075201036517,325783,264544,336574
653325075208471212,325700,264548,336555
653325075215905907,325748,264581,336456
653325075223340602,325701,264480,336581
653325075230775297,325768,264580,336681
653325075238209992,325699,264628,336576
653325075245644687,325692,264585,336739
653325075253079382,325690,264460,336527
653325075260514077,325816,264563,336689
653325075267948772,325740,264475,336639
653325075275383467,325577,264463,336662
653325075282818162,325658,264424,336752
653325075290252857,325814,264394,336766
653325075297687552,325678,264321,336514
653325075304998472,325812,264002,336511
653325075312440448,325685,264088,336425
653325075319882424,325601,264184,336499
653325075327324400,325606,264335,336455
653325075334766376,325590,264357,336467
653325075342208352,325506,264328,336418
653325075349650328,325431,264311,336409
653325075357092304,325542,264205,336343
653325075364534280,325491,264034,336315
653325075371976256,325234,264066,336324
653325075379418232,325371,264033,336210
653325075386860208,325309,264089,336169
653325075394302184,325368,264084,336226
653325075401744160,325219,264207,336106
653325075409186136,325181,264133,336168
653325075416628112,325294,264174,336233
653325075424070088,325327,264141,336295
653325075431512064,326028,264778,336840
653325075439201627,325674,264197,336355
653325075446629040,325428,264094,336320
653325075454056453,325230,264121,336108
653325075461483866,325907,264130,336692
653325075468911279,325507,263973,336298
653325075476338692,325371,264052,336187
653325075483766105,325249,263879,336131
653325075491193518,325265,263867,336146
653325075498620931,325135,263919,336033
653325075506048344,325266,264049,336106
653325075513475757,325352,264065,336022
653325075520903170,325098,264004,335946
653325075528330583,325233,264021,336060
653325075535757996,325266,264107,336102
653325075543185409,325177,264129,335940
653325075550612822,325198,264154,336031
653325075558040235,325230,264094,336046
653325075565467648,325111,264070,335920
653325075572647496,325374,264080,335699
653325075580089472,325243,264212,335954
653325075587531448,325208,264182,335974
653325075594973424,324989,264112,335917
653325075602415400,324998,263951,335843
653325075609857376,325168,264029,335885
653325075617299352,325146,263978,335844
653325075624741328,325089,263935,335830
653325075632183304,325037,263864,335751
653325075639625280,325049,263930,335885
653325075647067256,325041,263980,335743
653325075654509232,325017,263976,335691
653325075661951208,324973,263931,335841
653325075669393184,324906,263979,335756
653325075676835160,325014,264085,335841
653325075684277136,324910,264090,335827
653325075691719112,324945,264052,335753
653325075699161088,324916,264002,335735
653325075706603080,324984,263691,335868
653325075714045056,325064,263884,335844
653325075721487032,325109,263893,335876
653325075728929008,325162,264063,335945
653325075736370984,325009,263939,335816
653325075743812960,325089,264045,335742
653325075751254936,325377,264669,336393
653325075758696912,325243,264235,336074
653325075766138888,325121,264125,336058
653325075773580864,325008,264016,335972
653325075781022840,325469,264047,336345
653325075788464816,325306,264012,336105
653325075795906792,325080,264011,335910
653325075803348768,325029,264042,335825
653325075810790744,324895,264004,335785
653325075818232720,325047,264153,335881
653325075825674696,325006,264019,335810
653325075833116672,325076,264000,335836
653325075840682441,324917,264123,336059
653325075848117136,324969,263934,335914
653325075855551831,325035,263969,335928
653325075862986526,325133,264138,335911
653325075870421221,325057,264097,335923
653325075877855916,325014,264019,335914
653325075885290611,324979,264051,335829
653325075892725306,324947,264023,335809
653325075900160001,324969,264038,335889
653325075907594696,325006,264015,335731
653325075915029391,325027,264079,335822
653325075922464086,325111,264111,335772
653325075929898781,325091,264049,335875
653325075937333476,325037,264095,335821
653325075944768171,325043,264066,335803
653325075952202866,325027,263992,335845
653325075959637561,325048,263999,335867
653325075967072256,325020,264067,335786
653325075974506953,324777,264156,335645
653325075981941648,324990,264074,335767
653325075989376343,324996,264004,335899
653325075996811038,324973,264005,335793
653325076004245733,325099,264052,335897
653325076011680428,325059,264102,335844
653325076019115123,325137,263945,335810
653325076026549818,325137,264064,335885
653325076033984513,325118,264108,335846
653325076041419208,325027,264085,335909
653325076048853903,325063,264091,335825
653325076056288598,325122,264078,335957
653325076063723293,325155,264042,335877
653325076071157988,325160,264731,336494
653325076078592683,325119,264292,336243
653325076086027378,325112,264240,336162
653325076093462073,325078,264056,335851
653325076100896768,325612,264477,336533
653325076108207688,325311,263875,336442
653325076115649664,325160,263923,336013
653325076123091640,324947,263809,335790
653325076130533616,324884,263858,335656
653325076137975592,324827,263834,335622
653325076145417568,324708,263777,335556
653325076152859544,324707,263753,335616
653325076160301520,324658,263745,335687
653325076167743496,324803,263757,335543
653325076175185472,324666,263505,335511
653325076182627448,324660,263532,335480
653325076190069424,324693,263647,335451
653325076197511400,324580,263697,335314
653325076204953376,324610,263656,335381
653325076212395352,324575,263649,335261
653325076219837328,324495,263628,335370
653325076227279304,324462,263547,335321
653325076234721280,324564,263488,335359
653325076242287049,324537,263534,335013
653325076249721744,324523,263582,335228
653325076257156439,324478,263658,335377
653325076264591134,324414,263530,335213
653325076272025829,324382,263542,335257
653325076279460524,324287,263394,335252
653325076286895219,324250,263480,335126
653325076294329914,324300,263416,335151
653325076301764609,324366,263432,335160
653325076309199304,324300,263460,335150
653325076316633999,324325,263436,335126
653325076324068694,324345,263519,335165
653325076331503389,324151,263417,335129
653325076338938084,324249,263437,335126
653325076346372779,324292,263596,335131
653325076353807474,324191,263483,335077
653325076361242169,324215,263463,335098
653325076368676864,324266,263473,335071
653325076376111561,324373,263661,334817
653325076383546256,324284,263360,335030
653325076390980951,324038,263996,335546
653325076398415646,324051,263639,335251
653325076405850341,324139,263456,335083
653325076413285036,323987,263544,335111
653325076420719731,324549,263897,335637
653325076428154426,324325,263616,335314
653325076435589121,324158,263561,335171
653325076443023816,323977,263357,335042
653325076450458511,324497,263372,334885
653325076457893206,324393,263427,334837
653325076465327901,324209,263293,334807
653325076472762596,324102,263300,334914
653325076480197291,324089,263323,334802
653325076487631986,324110,263406,334870
653325076495066681,324023,263363,334911
653325076502501376,323996,263310,334856
653325076509812296,323908,263311,334757
653325076517254272,323983,263211,334902
653325076524696248,324087,263373,334823
653325076532138224,323989,263344,334794
653325076539580200,323959,263349,334857
653325076547022176,324086,263253,334842
653325076554464152,324035,263180,334838
653325076561906128,323959,263280,334949
653325076569348104,324094,263303,334975
653325076576790080,324080,263261,335016
653325076584232056,324057,263166,334981
653325076591674032,323979,263259,334943
653325076599116008,324060,263364,334988
653325076606557984,323955,263348,334900
653325076613999960,324004,263356,334933
653325076621441936,323987,263327,335001
653325076628883912,324027,263323,334922
653325076636325888,324019,263247,334777
653325076643891657,323872,263572,334825
653325076651326352,323968,263331,334856
653325076658761047,323974,263220,334873
653325076666195742,324011,263281,334904
653325076673630437,323929,263309,334963
653325076681065132,323916,263292,334828
653325076688499827,323769,263277,334951
653325076695934522,323952,263277,335023
653325076703369217,323895,263283,334750
653325076710803912,324011,264068,335484
653325076718238607,323956,263674,335143
653325076725673302,323943,263433,334941
653325076733107997,324012,263439,334932
653325076740542692,324568,263926,335506
653325076747977387,324185,263540,335215
653325076755412082,324011,263383,335056
653325076762846777,323992,263227,334967
653325076770281472,324571,263372,334923
653325076777592392,324148,263515,335043
653325076785034368,323963,263452,334895
653325076792476344,324013,263361,334890
653325076799918320,323996,263353,334846
653325076807360296,324055,263227,334852
653325076814802272,324130,263247,334914
653325076822244248,323952,263197,334832
653325076829686224,324065,263211,334874
653325076837128200,323970,263228,334772
653325076844570176,324023,263313,334873
653325076852012152,324048,263294,334842
653325076859454128,323954,263371,334891
653325076866896104,323970,263343,334889
653325076874338080,324025,263306,334915
653325076881780056,323954,263296,334841
653325076889222032,323908,263252,334879
653325076896664008,323905,263294,334955
653325076904105984,323909,263156,334808
653325076911671753,324041,262893,334674
653325076919106448,323986,262969,334708
653325076926541143,323871,263147,334639
653325076933975838,323760,263046,334701
653325076941410533,323619,263125,334460
653325076948845228,323704,263135,334356
653325076956279923,323712,263025,334484
653325076963714618,323693,263049,334452
653325076971149313,323720,263093,334461
653325076978584008,323653,263050,334398
653325076986018703,323654,263099,334541
653325076993453398,323567,262934,334336
653325077000888093,323571,262969,334398
653325077008322788,323518,262907,334305
653325077015757483,323491,262840,334269
653325077023192178,323476,262801,334178
653325077030626873,323395,263424,334239
653325077038061568,323517,263144,334273
653325077045372488,323605,263029,334504
653325077052814464,323500,262900,334378
653325077060256440,324145,263402,334875
653325077067698416,323680,263040,334409
653325077075140392,323470,262858,334196
653325077082582368,323353,262766,334077
653325077090024344,323997,262752,334010
653325077097466320,323637,262764,334113
653325077104908296,323375,262698,334093
653325077112350272,323266,262734,333964
653325077119792248,323340,262766,333953
653325077127234224,323278,262771,334117
653325077134676200,323268,262728,333978
653325077142118176,323202,262764,333859
653325077149560152,323292,262720,334015
653325077157002128,323214,262702,333975
653325077164444104,323117,262713,333719
653325077171886080,323070,262685,333778
653325077179575643,322769,262684,334106
653325077187003056,322943,262644,334097
653325077194430469,323004,262630,334049
653325077201857882,323035,262593,333773
653325077209285295,323177,262709,333937
653325077216712708,323101,262580,333981
653325077224140121,323092,262594,333973
653325077231567534,322996,262640,333750
653325077238994947,323096,262592,333807
653325077246422360,323061,262593,333891
653325077253849773,323019,262582,333788
653325077261277186,323038,262628,333887
653325077268704599,323087,262613,333781
653325077276132012,323194,262577,333765
653325077283559425,323152,262626,333729
653325077290986838,323012,262570,333827
653325077298414251,323046,262643,333856
653325077305841664,323045,262630,333772
653325077313021512,323011,262485,333945
653325077320463488,323040,262494,333874
653325077327905464,323029,262550,333891
653325077335347440,323038,262657,333856
653325077342789416,323134,262679,333808
653325077350231392,323001,262937,333716
653325077357673368,323044,262786,333761
653325077365115344,323152,262691,333887
653325077372557320,323174,262670,333749
653325077379999296,323658,263225,334450
653325077387441272,323345,262998,334210
653325077394883248,323235,262894,334045
653325077402325224,323011,262712,333838
653325077409767200,323703,262731,334388
653325077417209176,323229,262584,334098
653325077424651152,323181,262604,333908
653325077432093128,323114,262640,333760
653325077439535104,322989,262690,333769
653325077447100873,322974,262665,333751
653325077454535568,323137,262652,333781
653325077461970263,323120,262737,333831
653325077469404958,323219,262640,333915
653325077476839653,323141,262703,333837
653325077484274348,323117,262747,334017
653325077491709043,323030,262772,334029
653325077499143738,323165,262849,334025
653325077506578433,323200,262852,334097
653325077514013128,323093,262707,333962
653325077521447823,323187,262713,333962
653325077528882518,323309,262850,334049
653325077536317213,323244,262944,333984
653325077543751908,323123,262828,334049
653325077551186603,323279,262876,334113
653325077558621298,323219,262706,334089
653325077566055993,323345,262797,334157
653325077573490688,323416,262682,334188
653325077580801608,323382,262506,334268
653325077588243584,323348,262526,334175
653325077595685560,323375,262645,334238
653325077603127536,323368,262743,334188
653325077610569512,323255,262760,334155
653325077618011488,323345,262845,334146
653325077625453464,323455,262754,334261
653325077632895440,323397,262817,334279
653325077640337416,323454,262845,334400
653325077647779392,323497,262831,334485
653325077655221368,323467,262921,334309
653325077662663344,323579,262895,334359
653325077670105320,323512,262899,334444
653325077677547296,323520,262877,334530
653325077684989272,323491,262886,334398
653325077692431248,323577,262908,334379
653325077699873224,323530,263514,335090
653325077707315200,323414,263156,334606
653325077714880969,323516,262752,334746
653325077722315664,323438,262663,334519
653325077729750359,324126,263295,335031
653325077737185054,323783,262979,334639
653325077744619749,323700,262828,334453
653325077752054444,323542,262805,334408
653325077759489139,323508,262804,334373
653325077766923834,323497,262750,334311
653325077774358529,323463,262751,334273
653325077781793224,323415,262717,334233
653325077789227919,323467,262756,334226
653325077796662614,323508,262745,334114
653325077804097309,323451,262731,334225
653325077811532004,323403,262740,334251
653325077818966699,323307,262674,334124
653325077826401394,323507,262776,334216
653325077833836089,323377,262719,334165
653325077841270784,323379,262697,334053
653325077848581704,323535,262872,334074
653325077856023680,323550,262623,334096
653325077863465656,323429,262665,334013
653325077870907632,323406,262751,334102
653325077878349608,323440,262771,334232
653325077885791584,323481,262750,334305
653325077893233560,323448,262769,334238
653325077900675536,323491,262821,334330
653325077908117512,323575,262805,334367
653325077915559488,323563,262726,334500
653325077923001464,323642,262792,334413
653325077930443440,323643,262914,334373
653325077937885416,323665,262796,334462
653325077945327392,323693,262881,334445
653325077952769368,323760,262922,334394
653325077960211344,323677,262791,334440
653325077967653320,323554,262797,334362
653325077975095296,323622,262857,334488
653325077982661065,323882,263115,334469
653325077990095760,323740,263100,334524
653325077997530455,323797,263004,334522
653325078004965150,323871,262937,334617
653325078012399845,323902,262997,334593
653325078019834540,323914,263484,335264
653325078027269235,323748,263231,334924
653325078034703930,323804,263079,334814
653325078042138625,323844,263006,334803
653325078049573320,324359,263624,335354
653325078057008015,324065,263326,335045
653325078064442710,324106,263122,334949
653325078071877405,324044,262979,334921
653325078079312100,324312,263049,334948
653325078086746795,324014,263147,334817
653325078094181490,324066,263057,334869
653325078101616185,324057,263042,334802
653325078109050880,324094,263066,334737
653325078116485577,324005,263254,334889
653325078123920272,323970,263193,334936
653325078131354967,324044,263220,334991
653325078138789662,323968,263238,335057
653325078146224357,324110,263144,335029
653325078153659052,324091,263182,335037
653325078161093747,324136,263166,335018
653325078168528442,324195,263113,335185
653325078175963137,324122,263121,335115
653325078183397832,324197,263200,335125
653325078190832527,324111,263214,335036
653325078198267222,324233,263255,335190
653325078205701917,324142,263306,335138
653325078213136612,324241,263286,335210
653325078220571307,324268,263286,335162
653325078228006002,324338,263278,335111
653325078235440697,324331,263320,335081
653325078242875392,324333,263264,335249
653325078250186312,324341,263282,335178
653325078257628288,324497,263380,335259
653325078265070264,324358,263391,335337
653325078272512240,324451,263316,335296
653325078279954216,324397,263386,335230
653325078287396192,324287,263376,335266
653325078294838168,324484,263415,335538
653325078302280144,324371,263404,335495
653325078309722120,324474,263369,335417
653325078317164096,324427,263523,335528
653325078324606072,324542,263486,335563
653325078332048048,324556,263526,335558
653325078339490024,324597,264088,336223
6.53325E+17,324690,263778,335971
653325078354373976,324509,263663,335873
653325078361815952,324680,263643,335846
653325078369257928,325361,264157,336393
653325078376699904,324996,263763,336052
653325078384389467,324546,263871,335639
653325078391816880,324632,263686,335711
653325078399244293,325306,263675,335802
653325078406671706,324977,263680,335902
653325078414099119,324797,263607,336005
653325078421526532,324933,263715,336004
653325078428953945,324831,263705,336020
653325078436381358,324864,263753,335987
653325078443808771,324994,263749,336053
653325078451236184,324916,263762,336033
653325078458663597,324819,263687,335936
653325078466091010,324956,263661,336177
653325078473518423,324977,263772,336054
653325078480945836,324824,263745,335927
653325078488373249,324905,263692,336076
653325078495800662,324859,263600,336020
653325078503228075,324888,263559,335986
653325078510655488,324906,263561,335985
653325078517835336,325175,263741,336088
653325078525277312,325137,263636,335988
653325078532719288,324934,263564,335888
653325078540161264,324862,263517,335871
653325078547603240,324877,263337,335883
653325078555045216,324873,263345,335830
653325078562487192,324909,263438,335945
653325078569929168,324799,263501,335825
653325078577371144,324752,263475,335910
653325078584813120,324841,263514,335953
653325078592255096,324790,263459,335818
653325078599697072,324814,263408,335824
653325078607139048,324812,263483,335972
653325078614581024,324860,263345,335968
6.53325E+17,324892,263405,335750
653325078629464976,324888,263423,335902
653325078636906952,324753,263474,335833
653325078644348928,324675,263534,335763
653325078651790920,324842,263236,335742
653325078659232896,324770,263914,336430
653325078666674872,324863,263741,336155
653325078674116848,324929,263513,336035
653325078681558824,324879,263448,336080
653325078689000800,325489,263821,336793
653325078696442776,325135,263655,336389
653325078703884752,324984,263573,336107
653325078711326728,324912,263601,336086
653325078718768704,325590,263599,336037
653325078726210680,325255,263611,336049
653325078733652656,325061,263554,336028
653325078741094632,325007,263549,336020
653325078748536608,325006,263525,336093
653325078755978584,324983,263533,336043
653325078763420560,325062,263575,336285
653325078770862536,324942,263610,336176
653325078778304512,325023,263564,336148
653325078785870281,325216,263772,336323
653325078793304976,325137,263731,336285
653325078800739671,325181,263617,336179
653325078808174366,325197,263674,336375
653325078815609061,325060,263729,336264
653325078823043756,324983,263609,336277
653325078830478451,325097,263594,336295
653325078837913146,325103,263626,336239
653325078845347841,325072,263684,336197
653325078852782536,325038,263691,336185
653325078860217231,325033,263606,336136
653325078867651926,325068,263624,336246
653325078875086621,325201,263727,336229
653325078882521316,324995,263736,336270
653325078889956011,324898,263639,336265
653325078897390706,325057,263713,336263
653325078904825401,325167,263647,336344
653325078912260096,325169,263653,336315
653325078919694793,325096,263766,336098
653325078927129488,325023,263756,336121
653325078934564183,325049,263752,336254
653325078941998878,324950,263760,336206
653325078949433573,325062,263698,336187
653325078956868268,325081,263595,336273
653325078964302963,325128,263681,336180
653325078971737658,325112,263664,336233
653325078979172353,325247,264276,336516
653325078986607048,325220,263981,336395
653325078994041743,325145,263723,336282
653325079001476438,325135,263715,336319
653325079008911133,325725,264341,336929
653325079016345828,325523,263981,336580
653325079023780523,325272,263828,336348
653325079031215218,325267,263744,336338
653325079038649913,325793,263730,336202
653325079046084608,325527,263725,336320
653325079053395528,325655,263562,336137
653325079060837504,325334,263620,336213
653325079068279480,325305,263766,336271
653325079075721456,325108,263670,336200
653325079083163432,325075,263714,336166
653325079090605408,325188,263718,336296
653325079098047384,325272,263706,336390
653325079105489360,325237,263618,336412
653325079112931336,325240,263714,336388
653325079120373312,325110,263610,336291
653325079127815288,325143,263777,336380
653325079135257264,325168,263771,336426
653325079142699240,325054,263803,336307
653325079150141216,325079,263814,336354
653325079157583192,325066,263873,336381
653325079165025168,325223,263855,336354
653325079172467144,325110,263748,336399
653325079179909120,325126,263808,336467
653325079187474889,325237,263622,336510
653325079194909584,325203,263762,336533
653325079202344279,325181,263783,336414
653325079209778974,325311,263878,336550
653325079217213669,325216,263851,336481
653325079224648364,325263,263758,336533
653325079232083059,325140,263709,336404
653325079239517754,325180,263762,336357
653325079246952449,325298,263850,336588
653325079254387144,325286,263899,336630
653325079261821839,325230,263675,336568
653325079269256534,325236,263701,336601
653325079276691229,325224,263641,336619
653325079284125924,325266,263706,336565
653325079291560619,325103,263662,336478
653325079298995314,325059,264204,336551
653325079306430009,325105,263809,336508
653325079313864704,325182,263698,336426
653325079321299401,325197,263834,336459
653325079328734096,325677,264302,336948
653325079336168791,325234,263885,336536
653325079343603486,325096,263710,336341
653325079351038181,324882,263354,336190
653325079358472876,325597,263492,336497
653325079365907571,325170,263460,336206
653325079373342266,324989,263385,336141
653325079380776961,324932,263303,336022
653325079388211656,324899,263425,336001
653325079395646351,324826,263460,335973
653325079403081046,324894,263377,335939
653325079410515741,324815,263261,335957
653325079417950436,324739,263254,335926
653325079425385131,324816,263238,335838
653325079432819826,324573,263165,335795
653325079440254521,324668,263248,335924
653325079447689216,324684,263357,335966
653325079455000136,324665,263528,335603
653325079462442112,324592,263451,335844
653325079469884088,324628,263335,335916
653325079477326064,324799,263390,336089
653325079484768040,324624,263328,335870
653325079492210016,324507,263266,335773
653325079499651992,324524,263308,335795
653325079507093968,324663,263242,335752
653325079514535944,324691,263330,335879
653325079521977920,324486,263207,335773
653325079529419896,324479,263252,335755
653325079536861872,324508,263206,335845
653325079544303848,324571,263297,335897
653325079551745824,324496,263315,335767
653325079559187800,324530,263261,335766
653325079566629776,324481,263216,335727
653325079574071752,324508,263304,335831
653325079581513728,324373,263168,335717
653325079588955720,324582,263337,335717
653325079596397696,324466,263300,335688
653325079603839672,324582,263262,335772
653325079611281648,324472,263150,335790
653325079618723624,324500,263215,335890
653325079626165600,324427,263179,335745
653325079633607576,324465,263125,335757
653325079641049552,324444,262970,335726
653325079648491528,324497,263801,336362
653325079655933504,324294,263363,335895
653325079663375480,324395,263309,335859
653325079670817456,324427,263253,335746
653325079678259432,325020,263437,336411
653325079685701408,324633,263220,336076
653325079693143384,324498,263207,335881
653325079700585360,324429,263277,335781
653325079708027336,324456,263124,335729
653325079715469312,324462,263158,335727
653325079723158875,324270,262811,335670
653325079730586288,324407,263010,335687
653325079738013701,324454,263091,335783
653325079745441114,324428,263126,335716
653325079752868527,324475,263224,335757
653325079760295940,324430,263217,335744
653325079767723353,324416,263168,335654
653325079775150766,324438,263243,335638
653325079782578179,324451,263190,335603
653325079790005592,324406,263095,335761
653325079797433005,324400,263156,335773
653325079804860418,324397,263092,335817
653325079812287831,324383,263011,335751
653325079819715244,324347,263096,335654
653325079827142657,324409,263099,335760
653325079834570070,324423,263048,335733
653325079841997483,324356,263093,335591
653325079849424896,324276,263040,335600
653325079856604744,324632,263179,335682
653325079864046720,324470,263305,335809
653325079871488696,324373,263203,335671
653325079878930672,324420,263168,335776
653325079886372648,324379,263138,335836
653325079893814624,324416,263216,335746
653325079901256600,324468,263144,335776
653325079908698576,324486,263198,335799
653325079916140552,324447,263139,335765
653325079923582528,324472,263128,335755
653325079931024504,324392,263053,335634
653325079938466480,324423,263113,335485
653325079945908456,324419,263097,335529
653325079953350432,324434,263074,335693
653325079960792408,324393,263185,335666
653325079968234384,324474,263795,336248
653325079975676360,324438,263465,335915
653325079983118336,324343,263342,335747
653325079990560328,324385,262608,335824
653325079998002304,325127,263573,336434
653325080005444280,324741,263313,335962
653325080012886256,324638,263266,335879
653325080020328232,324593,263192,335904
653325080027770208,324756,263244,335897
653325080035212184,324614,263231,335739
653325080042654160,324439,263137,335647
653325080050096136,324500,263204,335780
653325080057538112,324523,263229,335740
653325080064980088,324508,263206,335791
653325080072422064,324522,263327,335854
653325080079864040,324588,263318,335835
653325080087306016,324458,263276,335809
653325080094747992,324435,263240,335878
653325080102189968,324575,263268,335860
653325080109631944,324584,263300,335930
653325080117073920,324594,263312,335973
653325080124763483,324609,263138,335965
653325080132190896,324491,263201,335931
653325080139618309,324465,263257,335827
653325080147045722,324518,263245,335850
653325080154473135,324490,263191,335832
653325080161900548,324444,263140,335728
653325080169327961,324273,262918,335633
653325080176755374,324308,262978,335611
653325080184182787,324318,262993,335477
653325080191610200,324280,262984,335541
653325080199037613,324259,263043,335514
653325080206465026,324290,262961,335523
653325080213892439,324146,262841,335543
653325080221319852,324231,262822,335412
653325080228747265,324171,262909,335299
653325080236174678,324228,262814,335363
653325080243602091,324235,262948,335420
653325080251029504,324249,262962,335443
653325080258209352,324389,262926,335694
653325080265651328,324306,262831,335423
653325080273093304,324277,262784,335453
653325080280535280,324140,262760,335425
653325080287977256,324218,263463,336023
653325080295419232,324171,263040,335677
653325080302861208,323966,262866,335406
653325080310303184,324003,262870,335342
653325080317745160,324685,263423,335958
653325080325187136,324354,263145,335506
653325080332629112,324176,262801,335319
653325080340071088,324144,262845,335149
653325080347513064,324673,262809,335064
653325080354955040,324230,262766,335132
653325080362397016,324030,262771,335177
653325080369838992,324000,262810,335166
653325080377280968,324005,262681,335193
653325080384722944,324106,262751,335316
653325080392164936,324307,262558,335283
653325080399606912,324129,262681,335226
653325080407048888,324014,262570,335182
653325080414490864,324011,262564,335214
653325080421932840,323867,262699,335205
653325080429374816,323965,262535,335162
653325080436816792,323817,262856,335114
653325080444258768,323921,262826,335025
653325080451700744,323883,262746,335052
653325080459142720,323872,262807,335050
653325080466584696,323936,262716,335201
653325080474026672,323816,262776,335132
653325080481468648,323701,262731,335039
653325080488910624,323806,262660,335062
653325080496352600,323773,262681,335167
653325080503794576,323841,262660,335118
653325080511236552,323825,262651,335054
653325080518678528,323770,262598,335031
653325080526368091,323718,262399,335132
653325080533795504,323749,262503,334996
653325080541222917,323723,262495,335045
653325080548650330,323762,262654,334915
653325080556077743,323971,262685,335067
653325080563505156,323944,262680,335068
653325080570932569,323831,262616,335115
653325080578359982,323863,262583,335122
653325080585787395,323735,262628,335028
653325080593214808,323832,262698,335104
653325080600642221,323796,262580,335178
653325080608069634,323806,263325,335643
653325080615497047,323779,263066,335271
653325080622924460,323753,262886,335132
653325080630351873,323755,262764,335023
653325080637779286,324553,263475,335723
653325080645206699,324143,263087,335410
653325080652634112,323986,262890,335272
653325080659813960,323884,262926,335207
653325080667255936,324520,262907,335152
653325080674697912,324125,262854,335042
653325080682139888,323932,262779,334944
653325080689581864,323786,262594,335052
653325080697023840,323956,262703,335120
653325080704465816,324005,262685,335134
653325080711907792,323839,262690,335020
653325080719349768,324005,262816,335139
653325080726791744,323850,262830,335044
653325080734233720,323807,262804,334983
653325080741675696,323810,262847,335099
653325080749117672,323955,262798,335133
653325080756559648,323976,262887,335292
653325080764001624,323957,262827,335325
653325080771443600,323985,262731,335166
653325080778885576,324030,262716,335215
653325080786327552,324044,262855,335307
653325080793769544,324176,262838,335599
653325080801211520,324117,262783,335403
653325080808653496,324160,262776,335356
653325080816095472,324110,262804,335307
653325080823537448,324109,262696,335383
653325080830979424,324098,262855,335342
653325080838421400,324064,262860,335344
653325080845863376,324059,262767,335336
653325080853305352,324196,262822,335414
653325080860747328,324030,262844,335310
653325080868189304,324112,262854,335353
653325080875631280,324111,262813,335366
653325080883073256,324082,262930,335475
653325080890515232,324045,262893,335473
653325080897957208,324086,262952,335573
653325080905399184,324121,262840,335510
653325080912841160,324253,262918,335463
653325080920283136,324132,262884,335507
653325080927972699,324265,263548,335822
653325080935400112,324261,263207,335701
653325080942827525,324234,263130,335613
653325080950254938,324364,263111,335602
653325080957682351,325062,263609,336378
653325080965109764,324604,263378,336094
653325080972537177,324586,263155,335862
653325080979964590,324479,263105,335817
653325080987392003,325173,263049,335879
653325080994819416,324673,263005,335880
653325081002246829,324536,263112,335909
653325081009674242,324426,263054,335810
653325081017101655,324520,263062,335833
653325081024529068,324363,263060,335747
653325081031956481,324426,262902,335797
653325081039383894,324461,263008,335606
653325081046811307,324380,262988,335623
653325081054238720,324496,263025,335742
653325081061418568,324427,263109,335492
653325081068860544,324495,263060,335602
653325081076302520,324453,263098,335842
653325081083744496,324402,263031,335811
653325081091186472,324327,263001,335683
653325081098628448,324379,262853,335630
653325081106070424,324473,262967,335706
653325081113512400,324313,263013,335645
653325081120954376,324385,262951,335647
653325081128396352,324326,262930,335692
653325081135838328,324467,262947,335691
653325081143280304,324376,262894,335646
653325081150722280,324416,262957,335608
653325081158164256,324396,262977,335700
653325081165606232,324390,262920,335685
653325081173048208,324440,262942,335714
653325081180490184,324345,262873,335690
653325081187932160,324360,262994,335758
653325081195497929,324654,262960,335544
653325081202932624,324610,263013,335602
653325081210367319,324484,262914,335803
653325081217802014,324555,263061,335843
653325081225236709,324486,263006,335906
653325081232671404,324434,262951,335888
653325081240106099,324519,262993,335825
653325081247540794,324494,263634,336097
653325081254975489,324434,263282,335972
653325081262410184,324456,263161,335885
653325081269844879,324354,262976,335940
653325081277279574,325196,263671,336502
653325081284714269,324947,263321,336298
653325081292148964,324730,263185,336135
653325081299583659,324719,263098,336111
653325081307018354,325428,263160,335957
653325081314453049,324912,263079,336030
653325081321887744,324918,263123,336121
653325081329322441,324747,262928,335999
653325081336757136,324670,263011,336003
653325081344191831,324773,263145,336075
653325081351626526,324687,263284,336059
653325081359061221,324722,263164,336156
653325081366495916,324772,263257,336223
653325081373930611,324753,263233,336167
653325081381365306,324850,263211,336193
653325081388800001,324922,263263,336229
653325081396234696,324847,263321,336356
653325081403669391,324810,263298,336228
653325081411104086,324863,263287,336292
653325081418538781,324785,263296,336193
653325081425973476,324974,263342,336387
653325081433408171,324898,263372,336280
653325081440842866,324945,263315,336346
653325081448277561,325000,263370,336341
653325081455712256,325092,263270,336388
653325081463146953,325402,263514,336320
653325081470581648,325151,263468,336284
653325081478016343,325086,263499,336337
653325081485451038,325203,263391,336528
653325081492885733,325201,263462,336638
653325081500320428,325070,263429,336510
653325081507755123,325024,263505,336548
653325081515189818,325130,263516,336514
653325081522624513,325053,263373,336473
653325081530059208,325126,263474,336623
653325081537493903,325126,263556,336645
653325081544928598,325069,263560,336723
653325081552363293,325240,263555,336703
653325081559797988,325305,263534,336671
653325081567232683,325280,264172,336771
653325081574667378,325323,263940,336771
653325081582102073,325386,263675,336790
653325081589536768,325426,263626,336834
653325081596847688,326095,264059,337351
653325081604289664,325632,263772,336988
653325081611731640,325567,263756,336997
653325081619173616,325552,263714,336936
653325081626615592,326237,263693,337134
653325081634057568,325835,263762,337014
653325081641499544,325528,263811,337021
653325081648941520,325478,263733,337049
653325081656383496,325465,263623,336991
653325081663825472,325616,263739,337005
653325081671267448,325610,263783,336971
653325081678709424,325603,263782,336976
653325081686151400,325558,263574,337253
653325081693593376,325607,263708,337195
653325081701035352,325442,263745,337159
653325081708477328,325526,263790,337141
653325081715919304,325554,263829,337131
653325081723361280,325538,263774,337162
653325081730803272,325471,263891,337126
653325081738245248,325525,263815,337219
653325081745687224,325809,263986,337400
653325081753129200,325694,263871,337228
653325081760571176,325763,263844,337276
653325081768013152,325719,263888,337322
653325081775455128,325758,263804,337370
653325081782897104,325767,263881,337399
653325081790339080,325821,263791,337370
653325081797781056,325864,263844,337308
653325081805223032,325933,263937,337418
653325081812665008,325920,263970,337510
653325081820106984,325871,263932,337387
653325081827548960,325942,264052,337499
653325081834990936,325953,264010,337246
653325081842432912,325976,264019,337485
653325081849874888,325981,263993,337490
653325081857316864,325902,264053,337581
653325081865006427,325942,263615,337587
653325081872433840,325885,263783,337630
653325081879861253,326018,263888,337683
653325081887288666,326057,264149,337603
653325081894716079,325946,264049,337527
653325081902143492,325974,263937,337531
653325081909570905,325788,263925,337360
653325081916998318,326378,264543,338013
653325081924425731,326102,264110,337687
653325081931853144,325879,263860,337457
653325081939280557,325817,263755,337407
653325081946707970,326528,263695,338130
653325081954135383,326144,263767,337696
653325081961562796,325993,263719,337555
653325081968990209,325948,263764,337313
653325081976417622,325959,263752,337321
653325081983845035,325843,263691,337347
653325081991272448,325815,263713,337466
653325081998452296,326111,263894,337541
653325082005894272,325974,263900,337390
653325082013336248,325842,263941,337350
653325082020778224,325813,263862,337350
653325082028220200,325757,263869,337435
653325082035662176,325788,263901,337304
653325082043104152,325782,263797,337328
653325082050546128,325820,263805,337363
653325082057988104,325808,263780,337346
653325082065430080,325898,263847,337318
653325082072872056,325894,263831,337468
653325082080314032,325747,263733,337467
653325082087756008,325768,263844,337494
653325082095197984,326002,263824,337437
653325082102639960,325867,263772,337399
653325082110081936,325800,263854,337397
653325082117523912,325849,263759,337415
653325082124965888,325854,263782,337374
653325082132531657,326087,263922,337376
653325082139966352,325930,263840,337364
653325082147401047,325957,263901,337364
653325082154835742,325903,263752,337458
653325082162270437,325811,263824,337361
653325082169705132,325869,263806,337357
653325082177139827,325783,263728,337411
653325082184574522,325813,263704,337327
653325082192009217,325819,263736,337520
653325082199443912,325861,263637,337329
653325082206878607,325860,263657,337260
653325082214313302,325793,263525,337310
653325082221747997,325777,263664,337362
653325082229182692,325784,263726,337306
653325082236617387,325948,264413,338009
653325082244052082,325884,264065,337499
653325082251486777,325772,263968,337370
653325082258921472,325673,263781,337350
653325082266356169,326473,263942,338060
653325082273790864,326156,263849,337703
653325082281225559,325852,263859,337450
653325082288660254,325805,263874,337388
653325082296094949,325691,263701,337405
653325082303529644,325757,263844,337454
653325082310964339,325674,263845,337450
653325082318399034,325717,263759,337287
653325082325833729,326134,263859,337401
653325082333268424,325940,263822,337242
653325082340703119,325905,263889,337297
653325082348137814,325863,263758,337332
653325082355572509,325823,263865,337320
653325082363007204,325788,263935,337333
653325082370441899,325755,263998,337320
653325082377876594,325885,263680,337419
653325082385311289,325910,263930,337396
653325082392745984,325814,263834,337214
653325082400056904,326162,263800,336987
653325082407498880,326088,263905,337130
653325082414940856,325948,263865,337337
653325082422382832,325989,264088,337368
653325082429824808,325779,264021,337404
653325082437266784,325869,263981,337242
653325082444708760,325727,264128,337321
653325082452150736,325867,263991,337394
653325082459592712,325904,263923,337413
653325082467034688,325869,263934,337412
653325082474476664,325832,263910,337456
653325082481918640,325907,263890,337538
653325082489360616,325823,263908,337285
653325082496802592,325819,263914,337177
653325082504244568,325778,263842,337213
653325082511686544,325812,263800,337289
653325082519128520,325862,263869,337386
653325082526570496,325845,263916,337334
653325082534012488,325527,263983,337636
653325082541454464,325717,263914,337387
653325082548896440,325811,263979,337424
653325082556338416,325837,264605,337995
653325082563780392,325921,264144,337753
653325082571222368,325869,264091,337551
653325082578664344,325789,264032,337449
653325082586106320,326539,264542,338127
653325082593548296,326098,264367,337737
653325082600990272,325992,264147,337464
653325082608432248,325847,263975,337483
653325082615874224,326355,263934,337462
653325082623316200,326128,263934,337549
653325082630758176,326116,263956,337493
653325082638200152,326076,263900,337540
653325082645642128,325989,264002,337533
653325082653084104,325935,264013,337408
653325082660526080,325907,264013,337481
653325082668215643,325685,263731,337220
653325082675643056,325897,263735,337464
653325082683070469,325941,263809,337412
653325082690497882,325976,263891,337325
653325082697925295,325798,263834,337285
653325082705352708,325798,264019,337357
653325082712780121,325922,263962,337468
653325082720207534,325917,263799,337516
653325082727634947,325914,263833,337439
653325082735062360,325810,263899,337335
653325082742489773,325914,263898,337364
653325082749917186,325746,263760,337246
653325082757344599,325747,263670,337388
653325082764772012,325643,263724,337149
653325082772199425,325627,263722,337209
653325082779626838,325643,263677,337045
653325082787054251,325584,263628,337054
653325082794481664,325606,263592,337026
653325082801785289,325428,263600,336889
653325082809219984,325508,263602,336885
653325082816654679,325457,263527,336948
653325082824089374,325444,263537,336934
653325082831524069,325481,263475,336819
653325082838958764,325571,263432,336858
653325082846393459,325410,263475,337008
653325082853828154,325373,263480,336918
653325082861262849,325256,263501,336789
653325082868697544,325301,263405,336709
653325082876132239,325254,264080,337416
653325082883566934,325393,263704,337078
653325082891001629,325326,263553,336893
653325082898436324,325209,263591,336719
653325082905871019,325951,264117,337407
653325082913305714,325495,263760,336916
653325082920740409,325338,263549,336756
653325082928175104,325390,263501,336606
653325082935362230,325979,263635,336837
653325082942811488,325532,263446,336561
653325082950260746,325318,263371,336706
653325082957710004,325236,263276,336681
653325082965159262,325178,263489,336551
653325082972608520,325162,263440,336529
653325082980057778,325052,263395,336493
653325082987507036,325116,263404,336503
653325082994956294,325085,263431,336572
653325083002405552,325127,263415,336587
653325083009854810,325072,263377,336425
653325083017304068,325154,263231,336540
653325083024753326,325078,263283,336600
653325083032202584,325134,263389,336588
653325083039651842,325098,263364,336485
653325083047101100,325010,263330,336516
653325083054550358,325046,263353,336558
653325083061999616,325004,263356,336561
653325083069820251,325245,263555,336261
653325083077247664,325110,263470,336214
653325083084675077,325093,263407,336329
653325083092102490,325066,263351,336320
653325083099529903,325028,263240,336301
653325083106957316,325029,263260,336340
653325083114384729,324979,263210,336474
653325083121812142,325015,263157,336415
653325083129239555,324960,263231,336363
653325083136666968,324985,263285,336371
653325083144094381,324798,263350,336271
653325083151521794,324832,263289,336328
653325083158949207,324930,263259,336169
653325083166376620,324906,263332,336225
653325083173804033,324874,263304,336140
653325083181231446,324850,263330,336220
653325083188658859,324898,263329,336261
653325083196086272,324848,263927,336188
653325083203266120,324882,263429,336518
653325083210708096,324916,263415,336431
653325083218150072,324872,263318,336292
653325083225592048,325613,263893,336946
653325083233034024,325213,263619,336564
6.53325E+17,325027,263503,336363
653325083247917976,325001,263415,336240
653325083255359952,325695,263334,336495
653325083262801928,325174,263318,336355
653325083270243904,324994,263303,336345
653325083277685880,324965,263321,336201
653325083285127856,324982,263284,336270
653325083292569832,325050,263422,336302
653325083300011808,324987,263328,336286
653325083307453784,324852,263288,336213
653325083314895760,324964,263371,336406
653325083322337736,324896,263342,336220
653325083329779712,324897,263243,336290
653325083337345481,324914,263578,336194
653325083344780176,324896,263459,336297
653325083352214871,324944,263427,336259
653325083359649566,325016,263294,336267
653325083367084261,325026,263345,336293
653325083374518956,324882,263379,336396
653325083381953651,324901,263367,336327
653325083389388346,324919,263386,336321
653325083396823041,324873,263302,336297
653325083404257736,325043,263397,336387
653325083411692431,324981,263376,336373
653325083419127126,325011,263339,336227
653325083426561821,324874,263335,336348
653325083433996516,325006,263365,336378
653325083441431211,324965,263397,336390
653325083448865906,324912,263365,336400
653325083456300601,324997,263407,336330
653325083463735296,324904,263414,336319
653325083471169993,325092,263122,336305
653325083478604688,325057,263242,336299
653325083486039383,324938,263335,336358
653325083493474078,324838,263310,336201
653325083500908773,324928,263297,336241
653325083508343468,324818,263359,336243
653325083515778163,324874,263315,336385
653325083523212858,324927,263316,336259
653325083530647553,324842,263337,336365
653325083538082248,324741,263247,336333
653325083545516943,325336,263872,336979
653325083552951638,325037,263412,336533
653325083560386333,324838,263277,336366
653325083567821028,324936,263195,336309
653325083575255723,325560,263229,336893
653325083582690418,325007,263145,336584
653325083590125113,324849,263037,336381
653325083597559808,324717,262971,336275
653325083604994505,325009,262616,336243
653325083612429200,324840,262832,336187
653325083619863895,324855,262697,336190
653325083627298590,324826,262839,336116
653325083634733285,325043,262982,335924
653325083642167980,325195,263050,335809
653325083649602675,325264,263203,335648
653325083657037370,325528,263346,335574
653325083664472065,325605,263437,335500
653325083671906760,325686,263480,335564
653325083679341455,325845,263516,335623
653325083686776150,325955,263416,336007
653325083694210845,326124,263608,336054
653325083701645540,326189,263715,335920
653325083709080235,326331,263837,335901
653325083716514930,326484,263931,335882
653325083723949625,326517,264065,335820
653325083731384320,326713,264196,335676
653325083738695240,326887,264138,335463
653325083746137216,327112,264475,334802
653325083753579192,327093,264769,333996
653325083761021168,327204,265061,333255
653325083768463144,327298,265296,332385
653325083775905120,327473,265852,331673
653325083783347096,327795,266084,331015
653325083790789072,328054,266449,330579
653325083798231048,328283,266838,330007
653325083805673024,328628,267297,329724
6.53325E+17,329021,267739,329481
653325083820556976,329514,267981,329297
653325083827998952,329997,268498,329546
653325083835440928,330421,268584,329957
653325083842882904,330773,268910,330593
653325083850324880,331108,269221,331569
653325083857766856,331468,269471,332463
653325083865208832,331950,270327,333923
653325083872650824,332330,270210,334553
653325083880092800,332673,270322,334814
653325083887534776,333032,270369,335325
653325083894976752,334059,271043,336697
653325083902418728,334007,270961,337014
653325083909860704,334155,270860,337530
653325083917302680,334412,271011,338087
653325083924744656,334624,271100,338311
653325083932186632,334907,271247,338670
653325083939628608,335125,271335,338957
653325083947070584,335625,271629,339309
653325083954512560,335898,271899,339603
653325083961954536,336205,272011,339922
653325083969396512,336495,272079,340014
653325083976838488,336808,272122,340290
653325083984280464,336921,272207,340425
653325083991722440,337209,272270,340690
653325083999164416,337544,272370,340878
653325084006853979,337435,272720,340763
653325084014281392,337953,272869,340995
653325084021708805,338057,272839,340819
653325084029136218,338332,273010,340517
653325084036563631,338574,273164,340277
653325084043991044,338969,273456,340058
653325084051418457,339390,273695,339653
653325084058845870,339700,273896,339417
653325084066273283,339985,274397,339109
653325084073700696,340487,274776,338881
653325084081128109,340746,275147,338787
653325084088555522,341154,275620,338609
653325084095982935,341712,276259,338342
653325084103410348,342049,276904,338056
653325084110837761,342449,277431,338083
653325084118265174,343060,278044,337830
653325084125692587,343634,278674,337635
6.53325E+17,344143,279160,337314
653325084140299848,344328,279819,336763
653325084147741824,344884,280437,336441
653325084155183800,345393,281186,336118
653325084162625776,345887,281821,335830
653325084170067752,346298,282397,335614
653325084177509728,346737,283016,335555
653325084184951704,347280,284144,336128
653325084192393680,347514,284366,335862
653325084199835656,347996,284595,335829
653325084207277632,348279,284830,335782
653325084214719608,349385,285826,336776
653325084222161584,349317,285673,336612
653325084229603560,349430,285680,336549
