timestamp,ch1,ch2,ch3
653324335180990921,351127,271971,320338
653324335188425616,351130,271983,320326
653324335195860311,351119,271940,320325
653324335203295006,350941,271880,320249
653324335210729701,350869,271780,320328
653324335218164396,350854,271671,320232
653324335225599091,350914,271765,320261
653324335233033786,350798,271712,320273
653324335240468481,350886,271662,320231
653324335247903176,350732,271613,320319
653324335255337871,350839,271627,320335
653324335262772566,350764,271551,320343
653324335270207261,350839,271788,320430
653324335277641956,350732,271609,320439
653324335285076651,350773,271642,320425
653324335292511346,350687,271542,320418
653324335299946041,350654,271610,320339
653324335307380736,350549,271500,320229
653324335314815433,350758,271618,320219
653324335322250128,350696,271594,320083
653324335329684823,351420,271547,320648
653324335337119518,350822,271351,320205
653324335344554213,350630,271442,319976
653324335351988908,350528,271423,319935
653324335359423603,350467,271414,319879
653324335366858298,350543,271517,319754
653324335374292993,350494,271457,319610
653324335381727688,350250,271385,319453
653324335389162383,350245,271498,319481
653324335396597078,350310,271488,319336
653324335404031773,350332,271467,319198
653324335411466468,350355,271421,319020
653324335418901163,350295,271510,318940
653324335426335858,350284,271330,318748
653324335433770553,350199,271392,318798
653324335441205248,350216,271439,318762
653324335448639945,350225,271758,318584
653324335456074640,350198,271574,318666
653324335463509335,350213,271521,318524
653324335470944030,350184,271520,318587
653324335478378725,350244,271525,318625
653324335485813420,350191,271535,318469
653324335493248115,350136,271603,318344
653324335500682810,350151,271649,318455
653324335508117505,350102,271547,318460
653324335515552200,350173,271626,318524
653324335522986895,350181,271669,318475
653324335530421590,350165,271588,318355
653324335537856285,350251,271602,318479
653324335545290980,350163,271636,318382
653324335552725675,350241,271524,318312
653324335560160370,350146,271604,318370
653324335567595065,350145,271679,318468
653324335575029760,350158,271642,318428
653324335582340680,350502,271568,318319
653324335589782656,350362,272494,318401
653324335597224632,350296,272132,318399
653324335604666608,350331,271874,318380
653324335612108584,350227,271794,318430
653324335619550560,350310,271843,318454
653324335626992536,350289,271879,318273
653324335634434512,350355,271938,318143
653324335641876488,350267,271829,318090
653324335649318464,351243,271890,318533
653324335656760440,350721,271913,318230
653324335664202416,350541,272002,318209
653324335671644392,350368,272068,318191
653324335679086368,350409,272120,318362
653324335686528344,350458,272068,318311
653324335693970320,350435,272021,318353
653324335701412296,350486,271937,318288
653324335708854272,350497,271994,318308
653324335716543835,350270,271908,318540
653324335723971248,350425,272020,318455
653324335731398661,350501,272072,318556
653324335738826074,350509,272141,318440
653324335746253487,350563,272283,318386
653324335753680900,350584,272136,318415
653324335761108313,350691,272300,318479
653324335768535726,350802,272438,318473
653324335775963139,350754,272369,318510
653324335783390552,350823,272287,318335
653324335790817965,350733,272400,318308
653324335798245378,350783,272473,318315
653324335805672791,350883,272476,318306
653324335813100204,350824,272526,318327
653324335820527617,350806,272639,318367
653324335827955030,350865,272527,318239
653324335835382443,351039,272621,318374
653324335842809856,350926,272611,318512
653324335850113481,351182,272929,318852
653324335857548176,351037,272800,318871
653324335864982871,351035,272720,318921
653324335872417566,351144,272630,319256
653324335879852261,351092,272705,319481
653324335887286956,351141,272673,319601
653324335894721651,351103,272575,319718
653324335902156346,351047,272541,319895
653324335909591041,351143,273128,319839
653324335917025736,351090,272853,319995
653324335924460431,351034,272616,320072
653324335931895126,351080,272387,319867
653324335939329821,351110,272328,319744
653324335946764516,351006,272275,319689
653324335954199211,351046,272229,319607
653324335961633906,350899,272190,319363
653324335969068601,351752,272101,319510
653324335976503296,351214,272097,319047
653324335983814216,350903,272338,318455
653324335991256192,350745,272131,318301
653324335998698168,350749,272101,318278
653324336006140144,350710,272090,317895
653324336013582120,350553,272003,317834
653324336021024096,350482,271923,317742
653324336028466072,350460,271835,317494
653324336035908048,350454,271876,317387
653324336043350024,350371,271892,317358
6.53324E+17,350289,271944,317269
653324336058233976,350370,271809,317084
653324336065675952,350294,271795,317059
653324336073117928,350366,271876,317058
653324336080559904,350269,271833,317018
653324336088001880,350358,271951,317089
653324336095443856,350340,271870,317067
653324336102885832,350254,271788,316913
653324336110327808,350255,271749,316886
653324336117893577,350313,271934,316803
653324336125328272,350340,271968,316870
653324336132762967,350338,271877,316955
653324336140197662,350322,271929,317058
653324336147632357,350252,271837,317118
653324336155067052,350196,271830,317277
653324336162501747,350277,271944,317421
653324336169936442,350299,271926,317489
653324336177371137,350353,272041,317675
653324336184805832,350385,271826,317812
653324336192240527,350366,271963,317842
653324336199675222,350354,271935,317758
653324336207109917,350403,272019,317888
653324336214544612,350294,271983,317832
653324336221979307,350254,271960,317812
653324336229414002,350361,272286,317645
653324336236848697,350453,272196,317671
653324336244283392,350369,272088,317714
653324336251718089,350557,272290,317816
653324336259152784,350396,272140,317605
653324336266587479,350432,272101,317591
653324336274022174,350403,272108,317558
653324336281456869,350494,272115,317271
653324336288891564,351390,272234,318012
653324336296326259,350879,272110,317496
653324336303760954,350705,272078,317348
653324336311195649,350579,272103,317193
653324336318630344,350527,272293,317285
653324336326065039,350399,272153,317274
653324336333499734,350397,272257,317253
653324336340934429,350385,272183,317280
653324336348369124,350490,272249,317340
653324336355803819,350460,272286,317399
653324336363238514,350590,272342,317487
653324336370673209,350603,272324,317518
653324336378107904,350681,272369,317516
653324336385542601,350601,272156,317490
653324336392977296,350724,272394,317541
653324336400411991,350706,272365,317571
653324336407846686,350740,272581,317718
653324336415281381,350685,272571,317597
653324336422716076,350699,272459,317718
653324336430150771,350770,272466,317768
653324336437585466,350805,272536,317649
653324336445020161,350731,272472,317639
653324336452454856,350772,272477,317728
653324336459889551,350704,272502,317646
653324336467324246,350806,272468,317587
653324336474758941,350816,272634,317598
653324336482193636,350864,272540,317623
653324336489628331,350815,272633,317521
653324336497063026,350812,272722,317662
653324336504497721,350942,272775,317692
653324336511932416,350912,272704,317616
653324336519243336,350890,272927,317534
653324336526685312,350908,272831,317641
653324336534127288,350996,272851,317614
653324336541569264,351020,272938,317811
653324336549011240,351114,273153,317695
653324336556453216,351141,273028,317757
653324336563895192,351220,273007,317858
653324336571337168,351055,273032,317895
653324336578779144,351138,273014,318004
653324336586221120,351204,272937,317938
653324336593663096,351168,273005,317946
653324336601105072,351207,272928,318068
653324336608547048,352158,272940,318964
653324336615989024,351471,272837,318513
6.53324E+17,351279,272792,318337
653324336630872976,351073,272764,318110
653324336638314952,350984,272696,318049
653324336645756928,350933,272527,318025
653324336653446491,351219,272697,317749
653324336660873904,350898,272575,317625
653324336668301317,350802,272416,317595
653324336675728730,350749,272376,317567
653324336683156143,350696,272430,317418
653324336690583556,350705,272362,317254
653324336698010969,350676,272343,317104
653324336705438382,350535,272188,316853
653324336712865795,350437,272211,316886
653324336720293208,350364,272150,316707
653324336727720621,350400,272224,316797
653324336735148034,350311,272089,316782
653324336742575447,350252,272090,316721
653324336750002860,350164,272013,316571
653324336757430273,350097,272003,316566
653324336764857686,350147,272031,316632
653324336772285099,350048,271896,316785
653324336779712512,350144,271926,316889
653324336786892360,350345,271712,316845
653324336794334336,350093,271735,317006
653324336801776312,349979,271825,317045
653324336809218288,349988,271873,317115
653324336816660264,349981,271850,317064
653324336824102240,349986,271845,317047
653324336831544216,349928,272014,316888
653324336838986192,349965,271934,316884
653324336846428168,349949,271847,316837
653324336853870144,349959,271905,316869
653324336861312120,349884,271859,316848
653324336868754096,349902,272122,316821
653324336876196072,349907,272045,316787
653324336883638048,349935,271976,316918
653324336891080024,349876,271905,317001
6.53324E+17,349886,271946,316974
653324336905963976,349907,271892,317147
653324336913405952,349901,271966,317163
653324336920971721,349823,271929,317154
653324336928406416,350836,272045,318037
653324336935841111,350276,272016,317593
653324336943275806,350066,271869,317436
653324336950710501,349918,271933,317453
653324336958145196,349918,271989,317442
653324336965579891,349857,271908,317254
653324336973014586,349901,272021,317331
653324336980449281,349901,271938,317284
653324336987883976,349917,271908,317241
653324336995318671,349852,271919,317168
653324337002753366,349772,271959,317298
653324337010188061,349833,271927,317370
653324337017622756,349759,271946,317383
653324337025057451,349794,271947,317400
653324337032492146,349770,271977,317377
653324337039926841,349773,271959,317476
653324337047361536,350022,272066,317524
653324337054920027,350122,272155,317133
653324337062347440,349966,272169,317269
653324337069774853,349988,272195,317351
653324337077202266,349890,272108,317045
653324337084629679,349980,272087,316939
653324337092057092,350279,272170,316914
653324337099484505,350022,272199,316791
653324337106911918,349966,272284,316854
653324337114339331,349951,272277,316803
653324337121766744,349963,272301,316642
653324337129194157,349998,272348,316598
653324337136621570,349867,272360,316585
653324337144048983,349956,272220,316607
653324337151476396,350013,272260,316667
653324337158903809,349983,272310,316785
653324337166331222,349975,272335,316929
653324337173758635,349897,272337,316776
653324337181186048,349878,272291,316935
653324337188365896,349893,272610,316920
653324337195807872,350073,272659,317181
653324337203249848,350048,272646,317290
653324337210691824,350103,272507,317257
653324337218133800,350187,272527,317587
653324337225575776,350221,272546,317520
653324337233017752,350216,272566,317621
653324337240459728,350308,272625,317707
653324337247901704,351206,272807,318246
653324337255343680,350600,272741,318025
653324337262785656,350498,272804,317837
653324337270227632,350373,272954,317900
653324337277669608,350429,272813,317732
653324337285111584,350464,272876,317817
653324337292553560,350472,272847,317787
653324337299995536,350521,272906,317857
653324337307437512,350556,273018,317929
653324337314879488,350617,273006,317842
653324337322445257,350801,272775,317647
653324337329879952,350611,272817,317840
653324337337314647,350628,272939,317795
653324337344749342,350661,272915,317758
653324337352184037,350596,272918,317712
653324337359618732,350552,272851,317709
653324337367053427,350516,272839,317683
653324337374488122,350380,272720,317559
653324337381922817,350405,272628,317343
653324337389357512,350254,272584,317386
653324337396792207,350208,272446,317398
653324337404226902,350195,272339,317265
653324337411661597,350041,272297,317146
653324337419096292,349887,272261,317158
653324337426530987,349929,272230,317024
653324337433965682,349866,272099,316984
653324337441400377,349808,272205,317118
653324337448835072,349794,272233,317051
653324337456145992,349889,272340,316858
653324337463587968,349889,272204,316998
653324337471029944,349770,272101,317019
653324337478471920,349709,272030,317024
653324337485913896,349668,272012,317119
653324337493355872,349709,272013,316930
653324337500797848,349723,271999,316870
653324337508239824,349687,272909,317017
653324337515681800,349607,272348,316950
653324337523123776,349477,272119,316877
653324337530565752,349539,272035,316684
653324337538007728,349595,272049,316743
653324337545449704,349437,272022,316762
653324337552891680,349459,272006,316754
653324337560333656,349475,271926,316623
653324337567775632,350301,271967,316632
653324337575217608,349695,271974,316516
653324337582659584,349724,272317,316729
653324337590349147,349571,272054,316526
653324337597776560,349478,272015,316570
653324337605203973,349377,271930,316675
653324337612631386,349290,271984,316704
653324337620058799,349324,271985,316684
653324337627486212,349335,272033,316611
653324337634913625,349359,272102,316807
653324337642341038,349396,272123,316836
653324337649768451,349367,272045,316811
653324337657195864,349408,272025,316842
653324337664623277,349385,272171,316785
653324337672050690,349390,272008,316630
653324337679478103,349440,272174,316837
653324337686905516,349618,272314,316869
653324337694332929,349489,272288,316885
653324337701760342,349463,272346,316945
653324337709187755,349444,272272,316870
653324337716615168,349382,272289,316876
653324337723795016,349696,272269,316978
653324337731236992,349536,272243,316889
653324337738678968,349459,272272,316754
653324337746120944,349500,272353,316857
653324337753562920,349584,272221,316852
653324337761004896,349486,272343,316766
653324337768446872,349550,272395,316877
653324337775888848,349475,272465,316985
653324337783330824,349508,272527,317097
653324337790772800,349548,272539,317040
653324337798214776,349607,272651,317057
653324337805656752,349628,272526,316790
653324337813098728,349501,272541,316921
653324337820540704,349539,272624,316966
653324337827982680,349495,273409,316820
653324337835424656,349544,273031,316979
653324337842866632,349571,272889,317094
653324337850308608,349614,272818,317123
653324337857874377,349574,272596,317194
653324337865309072,349679,272693,317072
653324337872743767,349709,272813,316985
653324337880178462,349687,272880,316922
653324337887613157,350639,272889,316896
653324337895047852,350096,272898,316887
653324337902482547,349926,272889,316911
653324337909917242,349853,272893,317040
653324337917351937,349839,272857,316838
653324337924786632,349818,272933,317053
653324337932221327,349835,273078,317091
653324337939656022,349902,273079,317104
653324337947090717,349850,273011,317111
653324337954525412,349944,273044,317024
653324337961960107,349841,273126,317237
653324337969394802,349877,273229,317217
653324337976829497,350068,273097,317174
653324337984264192,350089,273256,317275
653324337991698889,350389,273381,317396
653324337999133584,350183,273256,317435
653324338006568279,350178,273385,317392
653324338014002974,350126,273421,317322
653324338021437669,350150,273417,317258
653324338028872364,350209,273447,317185
653324338036307059,350274,273389,317284
653324338043741754,350242,273395,317348
653324338051176449,350211,273558,317436
653324338058611144,350278,273588,317391
653324338066045839,350393,273539,317507
653324338073480534,350154,273412,317414
653324338080915229,350089,273373,317394
653324338088349924,350175,273401,317464
653324338095784619,350185,273213,317284
653324338103219314,350165,273109,317168
653324338110654009,350050,273086,317149
653324338118088704,349966,273056,317169
653324338125523401,350252,273125,317074
653324338132958096,349877,272872,316998
653324338140392791,349737,272915,317045
653324338147827486,349853,273667,317096
653324338155262181,349719,273207,316885
653324338162696876,349705,272941,316939
653324338170131571,349645,272831,316890
653324338177566266,349560,272817,316804
653324338185000961,349452,272670,316763
653324338192435656,349383,272662,316803
653324338199870351,349347,272710,316809
653324338207305046,350175,272659,316682
653324338214739741,349717,272569,316660
653324338222174436,349471,272488,316741
653324338229609131,349413,272448,316653
653324338237043826,349316,272394,316563
653324338244478521,349366,272434,316555
653324338251913216,349226,272400,316597
653324338259347913,349053,272171,316723
653324338266782608,348991,272308,316589
653324338274217303,349044,272421,316529
653324338281651998,349108,272408,316378
653324338289086693,349102,272486,316387
653324338296521388,349089,272457,316383
653324338303956083,349088,272455,316340
653324338311390778,349144,272434,316310
653324338318825473,349058,272528,316467
653324338326260168,349140,272579,316609
653324338333694863,349134,272462,316511
653324338341129558,349021,272588,316466
653324338348564253,349059,272481,316473
653324338355998948,349035,272569,316515
653324338363433643,348932,272509,316460
653324338370868338,349004,272627,316487
653324338378303033,348906,272529,316361
653324338385737728,348933,272427,316453
653324338393172425,348836,272345,316500
653324338400607120,348911,272389,316477
653324338408041815,348854,272557,316196
653324338415476510,348738,272389,316139
653324338422911205,348753,272544,316215
653324338430345900,348764,272581,316246
653324338437780595,348913,272380,316382
653324338445215290,348844,272497,316242
653324338452649985,348750,272537,316377
653324338460084680,348837,272560,316295
653324338467519375,348878,273470,316236
653324338474954070,348827,272940,316200
653324338482388765,348852,272711,316196
653324338489823460,348800,272681,316169
653324338497258155,348809,272603,316208
653324338504692850,348851,272611,316343
653324338512127545,349015,272661,316384
653324338519562240,348949,272662,316326
653324338526873160,349437,272563,316645
653324338534315136,349179,272685,316578
653324338541757112,349098,272752,316391
653324338549199088,349050,272701,316381
653324338556641064,349056,272696,316433
653324338564083040,348907,272709,316448
653324338571525016,348950,272773,316367
653324338578966992,348967,272756,316397
653324338586408968,349098,272788,316409
653324338593850944,348996,272858,316376
653324338601292920,348963,272920,316420
653324338608734896,349108,272982,316519
653324338616176872,349155,272980,316450
653324338623618848,349121,273004,316605
653324338631060824,349238,273008,316579
653324338638502800,349106,273095,316555
653324338645944776,349222,273213,316582
653324338653386752,349242,273081,316655
653324338660952521,348971,273303,316300
653324338668387216,349142,273214,316458
653324338675821911,349221,273155,316414
653324338683256606,349188,273236,316530
653324338690691301,349186,273146,316435
653324338698125996,349281,273077,316407
653324338705560691,349327,273177,316524
653324338712995386,349448,273192,316592
653324338720430081,349382,273204,316603
653324338727864776,349385,273201,316635
653324338735299471,349430,273276,316519
653324338742734166,349402,273387,316632
653324338750168861,349471,273420,316544
653324338757603556,349605,273526,316736
653324338765038251,349479,273535,316616
653324338772472946,349590,273433,316626
653324338779907641,349588,273387,316671
653324338787342336,349589,274348,316808
653324338794777033,349853,273693,316527
653324338802211728,349624,273462,316667
653324338809646423,349581,273380,316756
653324338817081118,349535,273362,316703
653324338824515813,349486,273229,316652
653324338831950508,349308,273066,316605
653324338839385203,349292,273107,316523
653324338846819898,350048,272993,316665
653324338854254593,349650,273108,316361
653324338861689288,349211,272886,316419
653324338869123983,349204,272916,316290
653324338876558678,349041,272769,316272
653324338883993373,348907,272705,316270
653324338891428068,348926,272669,316079
653324338898862763,348940,272577,316024
653324338906297458,348779,272625,316128
653324338913732153,348806,272582,315974
653324338921166848,348866,272720,316148
653324338928601545,348942,272479,316021
653324338936036240,348825,272509,315986
653324338943470935,348639,272497,315980
653324338950905630,348530,272482,315905
653324338958340325,348533,272427,315843
653324338965775020,348747,272628,315932
653324338973209715,348608,272533,315889
653324338980644410,348640,272507,315845
653324338988079105,348547,272494,315780
653324338995513800,348489,272338,315739
653324339002948495,348559,272383,315640
653324339010383190,348503,272378,315651
653324339017817885,348511,272423,315669
653324339025252580,348516,272522,315686
653324339032687275,348379,272576,315715
653324339040121970,348344,272499,315632
653324339047556665,348437,272532,315567
653324339054991360,348479,272536,315637
653324339062426057,348454,272603,315975
653324339069860752,348499,272570,315895
653324339077295447,348383,272562,315742
653324339084730142,348424,272582,315728
653324339092164837,348342,272536,315589
653324339099599532,348453,272585,315643
653324339107034227,348325,273543,315671
653324339114468922,348457,273046,315680
653324339121903617,348590,272842,315654
653324339129338312,348527,272701,315547
653324339136773007,348467,272660,315611
653324339144207702,348427,272682,315570
653324339151642397,348387,272730,315670
653324339159077092,348374,272647,315496
653324339166511787,349212,272733,315574
653324339173946482,348764,272628,315602
653324339181381177,348588,272759,315682
653324339188815872,348569,272761,315675
653324339196126792,348860,272717,315766
653324339203568768,348716,272651,315821
653324339211010744,348653,272749,315778
653324339218452720,348598,272808,315724
653324339225894696,348507,272871,315670
653324339233336672,348560,272822,315673
653324339240778648,348658,272936,315752
653324339248220624,348615,272837,315615
653324339255662600,348535,272895,315624
653324339263104576,348617,272859,315605
653324339270546552,348749,272950,315724
653324339277988528,348655,272888,315792
653324339285430504,348777,273080,315787
653324339292872480,348774,273095,315802
653324339300314456,348747,273153,315822
653324339307756432,348726,273165,315881
653324339315198408,348775,273206,315786
653324339322640384,348793,273183,315702
653324339330329947,348845,272965,316036
653324339337757360,348830,273201,315987
653324339345184773,348806,273304,315937
653324339352612186,348902,273335,315953
653324339360039599,348954,273372,315976
653324339367467012,348845,273359,316084
653324339374894425,349024,273292,316037
653324339382321838,348984,273413,316048
653324339389749251,349115,273486,316083
653324339397176664,349140,273569,316188
653324339404604077,349092,273603,316130
653324339412031490,349171,273577,316154
653324339419458903,349274,273667,316136
653324339426886316,349136,274171,316282
653324339434313729,349142,273944,316192
653324339441741142,349124,273968,316230
653324339449168555,349238,273829,316089
653324339456595968,349306,273789,316144
653324339463775816,349679,273882,315902
653324339471217792,349486,273866,316165
653324339478659768,349564,273962,316302
653324339486101744,350352,273945,316943
653324339493543720,349870,273962,316677
653324339500985696,349687,273973,316556
653324339508427672,349655,274051,316489
653324339515869648,349618,274052,316487
653324339523311624,349590,273953,316358
653324339530753600,349605,273875,316323
653324339538195576,349463,273846,316309
653324339545637552,349497,273687,316245
653324339553079528,349454,273744,316259
653324339560521504,349399,273723,316208
653324339567963480,349347,273657,316134
653324339575405456,349241,273577,316083
653324339582847432,349264,273359,315958
653324339590289408,349140,273353,315993
653324339597731400,348689,273407,316055
653324339605173376,348943,273472,316038
653324339612615352,348852,273487,315874
653324339620057328,348918,273353,315935
653324339627499304,349000,273364,315822
653324339634941280,348912,273346,315653
653324339642383256,348762,273239,315617
653324339649825232,348820,273093,315576
653324339657267208,348791,273130,315603
653324339664709184,348736,273053,315500
653324339672151160,348596,273109,315524
653324339679593136,348600,273134,315396
653324339687035112,348641,273168,315520
653324339694477088,348625,273062,315458
653324339701919064,348643,273069,315344
653324339709361040,348608,273089,315385
653324339716803016,348447,273028,315395
653324339724244992,348431,273074,315381
653324339731934555,348685,273225,315446
653324339739361968,348545,273184,315303
653324339746789381,348486,273249,315210
653324339754216794,348462,273038,315310
653324339761644207,348528,273089,315230
653324339769071620,348430,273037,315210
653324339776499033,348396,273002,315271
653324339783926446,348484,273046,315471
653324339791353859,348319,273060,315364
653324339798781272,348426,273090,315409
653324339806208685,349272,273061,316316
653324339813636098,348847,273062,315794
653324339821063511,348623,273104,315592
653324339828490924,348472,273145,315510
653324339835918337,348468,273078,315468
653324339843345750,348436,273026,315472
653324339850773163,348418,273018,315413
653324339858200576,348365,272952,315366
653324339865504201,348617,272718,315286
653324339872938896,348502,272931,315253
653324339880373591,348430,273018,315294
653324339887808286,348494,273015,315291
653324339895242981,348351,273079,315323
653324339902677676,348336,273051,315335
653324339910112371,348421,273123,315319
653324339917547066,348355,273155,315217
653324339924981761,348535,273253,315503
653324339932416456,348467,273126,315512
653324339939851151,348371,273210,315493
653324339947285846,348291,273197,315499
653324339954720541,348342,273088,315408
653324339962155236,348425,273191,315495
653324339969589931,348571,273334,315516
653324339977024626,348530,273329,315487
653324339984459321,348396,273359,315496
653324339991894016,348411,273283,315622
653324339999204936,348775,273373,315562
653324340006646912,348623,273481,315588
653324340014088888,348526,273456,315543
653324340021530864,348641,273504,315553
653324340028972840,348601,273717,315536
653324340036414816,348577,273536,315488
653324340043856792,348661,273517,315528
653324340051298768,348661,273610,315602
653324340058740744,348703,273599,315591
653324340066182720,348649,273641,315525
653324340073624696,348665,273616,315476
653324340081066672,348662,273704,315581
653324340088508648,348675,273680,315657
653324340095950624,348681,273557,315633
653324340103392600,348714,273638,315629
653324340110834576,348718,273592,315699
653324340118276552,348740,273781,315792
653324340125718528,349707,273685,316587
653324340133408091,349363,273876,315809
653324340140835504,348816,273813,315717
653324340148262917,348904,273864,315695
653324340155690330,348918,273922,315783
653324340163117743,348946,273983,315884
653324340170545156,348907,273891,315858
653324340177972569,348904,273859,315704
653324340185399982,348946,273926,315890
653324340192827395,348966,274068,315909
653324340200254808,349014,274037,315986
653324340207682221,349083,274098,315952
653324340215109634,349117,274186,315974
653324340222537047,349154,274201,316059
653324340229964460,349134,274066,315992
653324340237391873,349134,274118,316074
653324340244819286,349221,274212,316147
653324340252246699,349205,274200,316079
653324340259674112,349167,274147,316097
653324340266853960,349333,274004,315821
653324340274295936,349215,274033,315951
653324340281737912,349162,273938,315798
653324340289179888,349067,273969,315700
653324340296621864,348976,273878,315790
653324340304063840,348925,273756,315713
653324340311505816,348806,273753,315619
653324340318947792,348776,273524,315543
653324340326389768,348844,273611,315521
653324340333831744,348676,273484,315504
653324340341273720,348689,273458,315414
653324340348715696,348543,273426,315393
653324340356157672,348489,273368,315278
653324340363599648,348521,273343,315189
653324340371041624,348533,273295,315175
653324340378483600,348414,273284,315165
653324340385925576,348335,273233,315116
653324340393367552,348281,273133,314995
653324340400933321,348404,273034,314719
653324340408368016,348213,273293,314794
653324340415802711,348070,273194,314881
653324340423237406,347963,273205,314838
653324340430672101,348014,273214,314953
653324340438106796,348053,273146,314865
653324340445541491,348853,273125,315701
653324340452976186,348391,273062,315196
653324340460410881,348173,273019,314824
653324340467845576,348010,272958,314796
653324340475280271,347883,272952,314712
653324340482714966,347767,272980,314758
653324340490149661,347842,273052,314754
653324340497584356,347885,272952,314769
653324340505019051,347755,273002,314690
653324340512453746,347776,272980,314695
653324340519888441,347862,273036,314780
653324340527323136,347792,272977,314778
653324340534757833,348128,273137,314941
653324340542192528,347747,273064,314816
653324340549627223,347687,273029,314837
653324340557061918,347734,272914,314833
653324340564496613,347854,273063,314958
653324340571931308,347792,273003,314868
653324340579366003,347750,273013,314816
653324340586800698,347722,273028,314837
653324340594235393,347680,273096,314790
653324340601670088,347635,273113,314810
653324340609104783,347665,273082,314702
653324340616539478,347705,273046,314811
653324340623974173,347560,272991,314795
653324340631408868,347559,273068,314827
653324340638843563,347458,272956,314917
653324340646278258,347569,272919,314793
653324340653712953,347547,273002,314789
653324340661147648,347604,273159,314727
653324340668458568,347607,273049,314782
653324340675900544,347610,273117,314874
653324340683342520,347598,273161,314920
653324340690784496,347611,273126,314900
653324340698226472,347726,273217,314867
653324340705668448,347638,273155,315071
653324340713110424,347673,273143,315016
653324340720552400,347778,273263,315100
653324340727994376,347841,273209,315010
653324340735436352,347750,273221,315098
653324340742878328,347697,273261,315204
653324340750320304,347771,273273,315094
653324340757762280,347739,273294,315187
653324340765204256,348661,273765,316060
653324340772646232,348229,273534,315640
653324340780088208,347985,273355,315407
653324340787530184,347912,273368,315327
653324340794972160,347916,273411,315277
653324340802537929,347936,273569,315594
653324340809972624,347874,273304,315516
653324340817407319,347933,273367,315454
653324340824842014,347891,273495,315520
653324340832276709,347956,273538,315410
653324340839711404,347983,273598,315462
653324340847146099,347962,273577,315428
653324340854580794,348004,273513,315448
653324340862015489,347960,273525,315468
653324340869450184,348003,273557,315533
653324340876884879,348036,273692,315543
653324340884319574,348169,273691,315741
653324340891754269,348042,273727,315761
653324340899188964,348127,273583,315699
653324340906623659,348158,273685,315796
653324340914058354,348121,273721,315809
653324340921493049,348139,273753,315729
653324340928927744,348165,273853,315799
653324340936362441,348356,273620,315695
653324340943797136,348340,273758,315829
653324340951231831,348385,273895,315887
653324340958666526,348363,273844,315786
653324340966101221,348356,273905,315917
653324340973535916,348222,273977,316039
653324340980970611,348319,274040,316093
653324340988405306,348401,273970,316078
653324340995840001,348357,273939,316069
653324341003274696,348535,274102,316089
653324341010709391,348459,274130,316200
653324341018144086,348443,274072,316229
653324341025578781,348407,274094,316199
653324341033013476,348436,274099,316183
653324341040448171,348407,273975,316230
653324341047882866,348482,273900,316215
653324341055317561,348402,273787,316080
653324341062752256,348378,273680,315944
653324341070186953,347995,273878,316012
653324341077621648,348134,273743,315864
653324341085056343,349018,274426,316530
653324341092491038,348497,273807,316149
653324341099925733,348199,273595,315811
653324341107360428,348017,273548,315730
653324341114795123,347997,273314,315628
653324341122229818,347904,273246,315613
653324341129664513,347776,273256,315624
653324341137099208,347872,273212,315547
653324341144533903,347731,273233,315634
653324341151968598,347672,273178,315588
653324341159403293,347720,273134,315415
653324341166837988,347692,273231,315499
653324341174272683,347645,273234,315426
653324341181707378,347507,273127,315342
653324341189142073,347595,273076,315353
653324341196576768,347523,273069,315346
653324341203887688,347548,273128,315728
653324341211329664,347491,273077,315464
653324341218771640,347398,272942,315333
653324341226213616,347412,273081,315345
653324341233655592,347266,272925,315267
653324341241097568,347297,273036,315300
653324341248539544,347247,273012,315204
653324341255981520,347309,273145,315209
653324341263423496,347288,273068,315214
653324341270865472,347250,273158,315297
653324341278307448,347227,273014,315240
653324341285749424,347231,273092,315247
653324341293191400,347178,273107,315178
653324341300633376,347176,273138,315229
653324341308075352,347221,273096,315175
653324341315517328,347311,273156,315343
653324341322959304,347230,273161,315357
653324341330401280,347313,273213,315394
653324341337967049,347515,273061,315550
653324341345401744,347402,273124,315492
653324341352836439,347363,273039,315419
653324341360271134,347341,273071,315371
653324341367705829,347270,273116,315265
653324341375140524,347313,273035,315346
653324341382575219,347260,273124,315390
653324341390009914,347271,273159,315230
653324341397444609,347208,273020,315214
653324341404879304,347977,274014,316205
653324341412313999,347485,273449,315687
653324341419748694,347210,273404,315479
653324341427183389,347239,273174,315431
653324341434618084,347136,273201,315498
653324341442052779,347147,273338,315506
653324341449487474,347104,273420,315439
653324341456922169,347064,273321,315420
653324341464356864,347112,273361,315482
653324341471915355,347506,273494,315379
653324341479342768,347410,273278,315485
653324341486770181,347258,273352,315504
653324341494197594,347242,273413,315602
653324341501625007,347346,273453,315585
653324341509052420,347385,273419,315618
653324341516479833,347416,273499,315600
653324341523907246,347508,273593,315695
653324341531334659,347437,273519,315732
653324341538762072,347399,273377,315629
653324341546189485,347417,273496,315670
653324341553616898,347487,273561,315750
653324341561044311,347474,273542,315693
653324341568471724,347366,273571,315669
653324341575899137,347505,273627,315599
653324341583326550,347594,273330,315593
653324341590753963,347583,273566,315538
653324341598181376,347628,273529,315561
653324341605361224,347410,273505,315668
653324341612803200,347608,273760,315671
653324341620245176,347601,273680,315605
653324341627687152,347676,273876,315696
653324341635129128,347741,273839,315716
653324341642571104,347733,273831,315679
653324341650013080,347774,273851,315702
653324341657455056,347797,273846,315779
653324341664897032,347804,273995,315769
653324341672339008,347912,274085,315773
653324341679780984,347961,273947,315696
653324341687222960,347850,273990,315751
653324341694664936,347820,274013,315833
653324341702106912,347964,274040,315747
653324341709548888,348032,274133,315817
653324341716990864,348036,274116,315827
653324341724432840,348848,274970,316589
653324341731874816,348430,274479,316199
653324341739440585,348228,274423,315744
653324341746875280,348102,274214,315793
653324341754309975,348164,274294,315853
653324341761744670,348302,274311,315904
653324341769179365,348174,274318,315816
653324341776614060,348177,274286,315913
653324341784048755,348223,274292,316015
653324341791483450,348274,274335,315967
653324341798918145,348251,274320,315841
653324341806352840,348184,274262,315871
653324341813787535,348094,274096,315824
653324341821222230,348041,274053,315779
653324341828656925,348033,273948,315537
653324341836091620,347947,273984,315511
653324341843526315,347874,274060,315590
653324341850961010,347725,273893,315408
653324341858395705,347728,273871,315282
653324341865830400,347744,273716,315265
653324341873265097,347986,273744,314920
653324341880699792,347729,273497,314946
653324341888134487,347641,273503,314962
653324341895569182,347451,273440,314900
653324341903003877,347469,273366,314821
653324341910438572,347380,273428,314801
653324341917873267,347212,273404,314810
653324341925307962,347218,273396,314794
653324341932742657,347099,273368,314660
653324341940177352,347163,273349,314527
653324341947612047,347048,273175,314472
653324341955046742,347112,273241,314380
653324341962481437,346950,273132,314285
653324341969916132,346962,273107,314322
653324341977350827,346975,273047,314124
653324341984785522,346931,273102,314186
653324341992220217,346988,273159,314142
653324341999654912,346912,273053,314123
653324342007089609,346775,272782,314048
653324342014524304,346751,272948,314069
653324342021958999,346677,273066,314111
653324342029393694,346767,273159,314141
653324342036828389,346848,273129,314094
653324342044263084,347615,274019,314917
653324342051697779,347175,273509,314470
653324342059132474,347035,273276,314214
653324342066567169,346915,273266,314152
653324342074001864,346798,273107,314015
653324342081436559,346816,273110,314039
653324342088871254,346832,273182,314115
653324342096305949,346770,273100,313939
653324342103740644,346888,273128,314052
653324342111175339,346789,273145,313938
653324342118610034,346788,273218,314062
653324342126044729,346850,273268,313990
653324342133479424,346846,273243,313947
653324342140914121,346652,273375,313946
653324342148348816,346741,273212,314001
653324342155783511,346771,273249,314001
653324342163218206,346800,273398,314120
653324342170652901,346772,273193,313927
653324342178087596,346846,273201,313822
653324342185522291,346730,273268,313888
653324342192956986,346875,273293,313800
653324342200391681,346855,273297,313956
653324342207826376,346844,273320,314011
653324342215261071,346865,273346,314027
653324342222695766,346929,273307,313963
653324342230130461,346888,273401,314014
653324342237565156,346907,273293,314015
653324342244999851,346904,273419,313955
653324342252434546,346866,273508,314066
653324342259869241,346889,273553,314049
653324342267303936,346997,273645,314031
653324342274614856,346550,273260,313923
653324342282056832,346909,273452,313989
653324342289498808,346994,273515,314018
653324342296940784,346910,273588,314120
653324342304382760,346951,273538,314033
653324342311824736,347059,273594,313957
653324342319266712,347127,273687,313957
653324342326708688,347035,273641,313970
653324342334150664,347052,273646,313938
653324342341592640,347017,273657,313930
653324342349034616,347212,273736,313957
653324342356476592,347178,273607,313882
653324342363918568,347978,274485,314779
653324342371360544,347460,274089,314357
653324342378802520,347183,273928,314205
653324342386244496,347071,273731,314128
653324342393686472,347235,273827,314077
653324342401128448,347313,273679,314056
653324342408694217,347347,273887,313854
653324342416128912,347385,273879,313979
653324342423563607,347286,273772,313927
653324342430998302,347446,274033,314116
653324342438432997,347447,274034,314205
653324342445867692,347471,274212,314224
653324342453302387,347441,274122,314092
653324342460737082,347502,274145,314292
653324342468171777,347491,274177,314292
653324342475606472,347591,274017,314368
653324342483041167,347663,274222,314394
653324342490475862,347616,274231,314453
653324342497910557,347572,274140,314335
653324342505345252,347679,274252,314397
653324342512779947,347758,274229,314436
653324342520214642,347767,274233,314527
653324342527649337,347714,274279,314471
653324342535084032,347750,274245,314398
653324342542518729,348083,274309,314746
653324342549953424,347912,274401,314586
653324342557388119,347953,274485,314605
653324342564822814,348007,274482,314531
653324342572257509,347982,274427,314520
653324342579692204,347946,274486,314590
653324342587126899,347911,274468,314627
653324342594561594,348014,274437,314696
653324342601996289,347917,274430,314692
653324342609430984,347912,274238,314582
653324342616865679,347882,274130,314351
653324342624300374,347855,274140,314397
653324342631735069,347727,274208,314381
653324342639169764,347645,274092,314336
653324342646604459,347636,274066,314092
653324342654039154,347603,273889,313989
653324342661473849,347644,273804,314014
653324342668908544,347401,273814,313933
653324342676219464,347229,273532,313700
653324342683661440,348172,274478,314607
653324342691103416,347618,274031,314058
653324342698545392,347372,273723,313843
653324342705987368,347150,273618,313694
653324342713429344,347076,273558,313736
653324342720871320,347105,273487,313695
653324342728313296,347089,273421,313579
653324342735755272,347070,273325,313391
653324342743197248,346849,273396,313417
653324342750639224,346881,273436,313419
653324342758081200,346874,273455,313515
653324342765523176,346856,273352,313426
653324342772965152,346842,273279,313544
653324342780407128,346736,273252,313411
653324342787849104,346729,273225,313333
653324342795291080,346725,273199,313226
653324342802733056,346696,273349,313407
653324342810422619,347048,273444,313325
653324342817850032,346676,273355,313251
653324342825277445,346647,273252,313114
653324342832704858,346650,273304,313203
653324342840132271,346689,273318,313180
653324342847559684,346725,273310,313041
653324342854987097,346735,273217,313188
653324342862414510,346599,273372,313189
653324342869841923,346630,273270,313241
653324342877269336,346695,273233,313192
653324342884696749,346671,273365,313217
653324342892124162,346599,273277,313207
653324342899551575,346679,273288,313271
653324342906978988,346537,273227,313256
653324342914406401,346530,273199,313122
653324342921833814,346565,273244,313004
653324342929261227,346622,273191,313023
653324342936688640,346565,273245,313067
653324342943868488,346814,273471,313281
653324342951310464,346562,273315,313212
653324342958752440,346583,273285,313162
653324342966194416,346519,273329,313146
653324342973636392,346574,273384,313151
653324342981078368,346569,273316,313149
653324342988520344,346539,273382,313064
653324342995962320,346511,273370,313174
653324343003404296,347447,274248,313933
653324343010846272,347028,273871,313547
653324343018288248,346776,273589,313312
653324343025730224,346711,273607,313318
653324343033172200,346742,273597,313222
653324343040614176,346662,273570,313118
653324343048056152,346724,273640,313315
653324343055498128,346761,273607,313327
653324343062940104,346699,273588,313269
653324343070382080,346816,273557,313310
653324343077947849,346679,273592,312954
653324343085382544,346809,273654,313229
653324343092817239,346874,273634,313284
653324343100251934,346818,273699,313158
653324343107686629,346721,273703,313275
653324343115121324,346868,273735,313387
653324343122556019,346883,273926,313517
653324343129990714,347004,273880,313425
653324343137425409,347019,273860,313441
653324343144860104,347001,273824,313408
653324343152294799,347062,273923,313541
653324343159729494,347125,273857,313427
653324343167164189,347026,274001,313491
653324343174598884,347157,273927,313395
653324343182033579,347244,274028,313450
653324343189468274,347218,274018,313574
653324343196902969,347213,274015,313462
653324343204337664,347257,274104,313525
653324343211772361,347535,273851,313726
653324343219207056,347427,274054,313515
653324343226641751,347336,274126,313588
653324343234076446,347420,274323,313646
653324343241511141,347438,274214,313572
653324343248945836,347444,274307,313411
653324343256380531,347368,274285,313421
653324343263815226,347447,274356,313578
653324343271249921,347513,274397,313567
653324343278684616,347538,274251,313722
653324343286119311,347550,274292,313855
653324343293554006,347605,274378,313889
653324343300988701,347720,274523,313919
653324343308423396,347711,274513,313850
653324343315858091,347713,274603,313918
653324343323292786,348657,275418,314670
653324343330727481,348153,275039,314238
653324343338162176,347966,274993,313967
653324343345596873,347762,274980,314038
653324343353031568,347873,274951,313981
653324343360466263,347990,274914,313997
653324343367900958,348043,274842,313997
653324343375335653,348049,274741,314041
653324343382770348,348054,274810,313971
653324343390205043,348076,274833,313894
653324343397639738,348085,274809,313917
653324343405074433,348059,274799,313962
653324343412509128,348054,274741,314026
653324343419943823,347926,274805,313851
653324343427378518,347894,274655,313879
653324343434813213,347914,274490,313753
653324343442247908,347838,274455,313878
653324343449682603,347743,274439,313718
653324343457117298,347637,274321,313650
653324343464551993,347727,274260,313666
653324343471986688,347637,274200,313660
653324343479297608,347349,274020,313199
653324343486739584,347314,274050,313226
653324343494181560,347436,273946,313286
653324343501623536,347345,274040,313298
653324343509065512,347250,273912,313280
653324343516507488,347235,273913,313276
653324343523949464,347119,273827,313286
653324343531391440,347151,273839,313214
653324343538833416,346995,273744,313243
653324343546275392,346910,273670,313086
653324343553717368,346750,273626,313034
653324343561159344,346705,273580,312999
653324343568601320,346768,273673,312869
653324343576043296,346768,273588,312898
653324343583485272,346868,273540,312875
653324343590927248,346736,273438,312800
653324343598369224,346757,273482,312807
653324343605811200,346673,273456,312858
653324343613376969,346598,273473,312492
653324343620811664,346607,273304,312460
653324343628246359,346579,273331,312587
653324343635681054,346414,273278,312604
653324343643115749,347283,274095,313519
653324343650550444,346802,273686,313088
653324343657985139,346585,273473,312705
653324343665419834,346438,273355,312766
653324343672854529,346381,273240,312756
653324343680289224,346370,273244,312633
653324343687723919,346377,273355,312660
653324343695158614,346388,273320,312630
653324343702593309,346361,273261,312653
653324343710028004,346354,273181,312666
653324343717462699,346313,273243,312659
653324343724897394,346291,273215,312557
653324343732332089,346217,273295,312606
653324343739766784,346259,273215,312469
653324343747325275,346024,273013,312842
653324343754752688,346189,273215,312733
653324343762180101,346220,273260,312679
653324343769607514,346171,273216,312580
653324343777034927,346153,273230,312390
653324343784462340,346209,273190,312404
653324343791889753,346160,273252,312539
653324343799317166,346206,273145,312518
653324343806744579,346182,273190,312463
653324343814171992,346149,273141,312520
653324343821599405,346318,273166,312606
653324343829026818,346263,273162,312467
653324343836454231,346236,273176,312475
653324343843881644,346251,273148,312491
653324343851309057,346235,273256,312567
653324343858736470,346252,273324,312573
653324343866163883,346241,273299,312628
653324343873591296,346307,273350,312613
653324343880771144,346314,273369,312860
653324343888213120,346321,273512,312792
653324343895655096,346413,273460,312743
653324343903097072,346222,273250,312641
653324343910539048,346380,273428,312704
653324343917981024,346300,273452,312734
6.53324E+17,346371,273469,312714
653324343932864976,346451,273501,312836
653324343940306952,346354,273556,312835
653324343947748928,346364,273437,312784
653324343955190904,346522,273578,312804
653324343962632880,347246,274374,313636
653324343970074856,346920,273762,313131
653324343977516832,346647,273635,312882
653324343984958808,346533,273563,312776
653324343992400784,346510,273668,312681
653324343999842760,346570,273508,312780
653324344007284736,346547,273509,312762
653324344014726728,346479,273430,312759
653324344022168704,346509,273604,312865
653324344029610680,346586,273691,312756
653324344037052656,346602,273801,312811
653324344044494632,346516,273778,312736
653324344051936608,346614,273762,312801
653324344059378584,346677,273794,312843
653324344066820560,346680,273777,312882
653324344074262536,346759,273767,312793
653324344081704512,346750,273862,313038
653324344089146488,346833,273879,313051
653324344096588464,346773,273832,312958
653324344104030440,346713,273932,313015
653324344111472416,346817,273901,312931
653324344118914392,346922,273960,313074
653324344126356368,346976,274074,313096
653324344133798344,346916,274006,313084
653324344141240320,347123,274107,313155
653324344148929883,347290,274180,313242
653324344156357296,347201,274169,313256
653324344163784709,347127,274042,313017
653324344171212122,347074,274116,313094
653324344178639535,347049,274068,313145
653324344186066948,347047,274009,313114
653324344193494361,346978,273951,312944
653324344200921774,346921,273873,312956
653324344208349187,346899,273695,312930
653324344215776600,346766,273730,312804
653324344223204013,346671,273553,312719
653324344230631426,346706,273444,312610
653324344238058839,346645,273494,312612
653324344245486252,346590,273415,312629
653324344252913665,346524,273345,312496
653324344260341078,346430,273294,312439
653324344267768491,346244,273167,312366
653324344275195904,346270,273018,312200
653324344282375752,347264,273706,312934
653324344289817728,346563,273346,312420
653324344297259704,346252,273077,312057
653324344304701680,346075,272977,311963
653324344312143656,345977,272959,311911
653324344319585632,345982,272804,311819
653324344327027608,345965,272767,311739
653324344334469584,345806,272781,311769
653324344341911560,345675,272695,311724
653324344349353536,345740,272669,311609
653324344356795512,345649,272722,311693
653324344364237488,345698,272647,311681
653324344371679464,345621,272616,311655
653324344379121440,345569,272567,311693
653324344386563416,345507,272546,311428
653324344394005392,345530,272582,311699
653324344401447368,345482,272703,311684
653324344408889344,345407,272514,311623
653324344416331336,345676,271965,311874
653324344423773312,345604,272395,311681
653324344431215288,345340,272379,311568
653324344438657264,345301,272296,311533
653324344446099240,345396,272485,311584
653324344453541216,345391,272544,311414
653324344460983192,345448,272462,311453
653324344468425168,345255,272469,311490
653324344475867144,345262,272510,311378
653324344483309120,345314,272608,311542
653324344490751096,345321,272590,311608
653324344498193072,345194,272486,311392
653324344505635048,345223,272584,311554
653324344513077024,345335,272605,311452
6.53324E+17,345331,272533,311443
653324344527960976,345221,272514,311506
653324344535402952,345220,272662,311353
653324344542844928,345276,272616,311486
653324344550534491,345416,272773,311228
653324344557961904,345366,272707,311281
653324344565389317,345363,272656,311305
653324344572816730,345248,272535,311416
653324344580244143,345103,272659,311586
653324344587671556,345158,272605,311606
653324344595098969,345132,272643,311624
653324344602526382,346148,273516,312467
653324344609953795,345627,273060,311943
653324344617381208,345518,272839,311767
653324344624808621,345400,272767,311718
653324344632236034,345409,272832,311734
653324344639663447,345389,272701,311718
653324344647090860,345420,272830,311725
653324344654518273,345390,272882,311802
653324344661945686,345388,272863,311686
653324344669373099,345374,272899,311676
653324344676800512,345406,272940,311811
653324344684104137,345618,272695,311454
653324344691538832,345604,272851,311562
653324344698973527,345566,272974,311569
653324344706408222,345517,272902,311629
653324344713842917,345553,273082,311652
653324344721277612,345597,273159,311702
653324344728712307,345554,273085,311704
653324344736147002,345576,273061,311752
653324344743581697,345627,273098,311639
653324344751016392,345631,273093,311646
653324344758451087,345697,273144,311722
653324344765885782,345739,272994,311699
653324344773320477,345713,273145,311854
653324344780755172,345802,273207,311842
653324344788189867,345801,273130,311847
653324344795624562,345783,273143,311873
653324344803059257,345823,273214,311796
653324344810493952,345832,273304,311891
653324344817804872,345742,273061,311879
653324344825246848,345927,273309,312023
653324344832688824,345953,273291,311843
653324344840130800,345933,273303,311746
653324344847572776,345937,273325,311965
653324344855014752,346037,273450,311966
653324344862456728,346050,273449,312007
653324344869898704,346061,273537,312092
653324344877340680,346172,273498,311999
653324344884782656,346132,273574,312065
653324344892224632,346268,273526,312047
653324344899666608,346185,273631,312252
653324344907108584,346307,273703,312243
653324344914550560,346315,273760,312320
653324344921992536,347159,274518,313210
653324344929434512,346646,274045,312764
653324344936876488,346477,273842,312475
653324344944318464,346368,273674,312384
653324344951884233,346546,273412,312028
653324344959318928,346451,273516,312073
653324344966753623,346266,273403,312077
653324344974188318,346262,273617,311832
653324344981623013,346144,273383,311804
653324344989057708,346058,273099,311865
653324344996492403,346078,273097,311756
653324345003927098,345952,273013,311680
653324345011361793,345720,273014,311544
653324345018796488,345735,272873,311461
653324345026231183,345697,272861,311468
653324345033665878,345556,272901,311519
653324345041100573,345539,273011,311519
653324345048535268,345512,272898,311411
653324345055969963,345324,272703,311320
653324345063404658,345345,272596,311128
653324345070839353,345350,272517,311230
653324345078274048,345222,272539,311205
653324345085708745,345365,272641,311296
653324345093143440,345238,272526,311231
653324345100578135,345192,272515,311225
653324345108012830,345167,272432,311209
653324345115447525,345140,272370,311087
653324345122882220,345134,272410,311030
653324345130316915,345110,272483,310900
653324345137751610,345004,272410,310943
653324345145186305,344929,272223,310999
6.53324E+17,344943,272250,310976
653324345160055695,344879,272354,310998
653324345167490390,344992,272310,310879
653324345174925085,344921,272362,310884
653324345182359780,344940,272223,310864
653324345189794475,344930,272283,310984
653324345197229170,344885,272168,310937
653324345204663865,344920,272205,311004
653324345212098560,344904,272305,311030
653324345219533257,345034,272287,310896
653324345226967952,344893,272267,310913
653324345234402647,344847,272370,310993
653324345241837342,345735,273113,311911
653324345249272037,345189,272695,311496
653324345256706732,345107,272425,311249
653324345264141427,344837,272388,311174
653324345271576122,344947,272318,311202
653324345279010817,344794,272278,311084
653324345286445512,344816,272285,311128
653324345293880207,344751,272175,311182
653324345301314902,344715,272250,311146
653324345308749597,344770,272220,311051
653324345316184292,344778,272278,311190
653324345323618987,344776,272353,311308
653324345331053682,344768,272403,311312
653324345338488377,344807,272280,311275
653324345345923072,344885,272259,311350
653324345353357769,344589,272585,311469
653324345360792464,344861,272597,311510
653324345368227159,344916,272536,311516
653324345375661854,344939,272396,311602
653324345383096549,344854,272526,311436
653324345390531244,344949,272467,311478
653324345397965939,344950,272511,311586
653324345405400634,344982,272545,311681
653324345412835329,344993,272502,311537
653324345420270024,345108,272516,311591
653324345427704719,345047,272585,311719
653324345435139414,345031,272575,311589
653324345442574109,345043,272631,311745
653324345450008804,345065,272614,311753
653324345457443499,345087,272607,311859
653324345464878194,345113,272667,311819
653324345472312889,345189,272650,311862
653324345479747584,345179,272762,311984
653324345487182281,345249,272655,312099
653324345494616976,345185,272681,312019
653324345502051671,345149,272801,311908
653324345509486366,345191,272740,312006
653324345516921061,345209,272792,312063
653324345524355756,345233,272826,311978
653324345531790451,345189,272835,312025
653324345539225146,345301,272889,311995
653324345546659841,345264,272914,312083
653324345554094536,345321,272835,312028
653324345561529231,346291,273786,313023
653324345568963926,345803,273342,312636
653324345576398621,345618,273222,312486
653324345583833316,345489,273068,312433
653324345591268011,345448,273039,312417
653324345598702706,345576,273074,312412
653324345606137401,345690,273102,312347
653324345613572096,345696,273214,312434
653324345620883016,345765,272897,312899
653324345628324992,345887,273205,312603
653324345635766968,345856,273151,312633
653324345643208944,345865,273304,312667
653324345650650920,345834,273363,312698
653324345658092896,346001,273389,312790
653324345665534872,346052,273412,312809
653324345672976848,346127,273505,312896
653324345680418824,346025,273634,312988
653324345687860800,346157,273519,312963
653324345695302776,346130,273644,313011
653324345702744752,346152,273601,312916
653324345710186728,346190,273662,312977
653324345717628704,346243,273583,312987
653324345725070680,346270,273503,312985
653324345732512656,346255,273458,312893
653324345739954632,346266,273450,312956
653324345747396608,346200,273426,312815
653324345754962377,346068,273041,312825
653324345762397072,346071,273171,312810
653324345769831767,346025,273166,312780
653324345777266462,345817,272985,312568
653324345784701157,345792,272830,312482
653324345792135852,345666,272833,312412
653324345799570547,345550,272817,312427
653324345807005242,345556,272700,312375
653324345814439937,345626,272714,312297
653324345821874632,345578,272638,312351
653324345829309327,345443,272566,312201
653324345836744022,345377,272581,312172
653324345844178717,345383,272644,312196
653324345851613412,345243,272500,312087
653324345859048107,345246,272574,312134
653324345866482802,345180,272462,311984
653324345873917497,345168,272474,312049
653324345881352192,346063,273145,312829
653324345888786889,345778,272925,312164
653324345896221584,345237,272547,311959
653324345903656279,345129,272437,311907
653324345911090974,345076,272407,311976
653324345918525669,345067,272380,311904
653324345925960364,345034,272444,312000
653324345933395059,345073,272356,311958
653324345940829754,345059,272430,311927
653324345948264449,345022,272355,311904
653324345955699144,345006,272327,311822
653324345963133839,344950,272402,311774
653324345970568534,344911,272480,311763
653324345978003229,344920,272412,311981
653324345985437924,344972,272417,311841
653324345992872619,345052,272436,311892
653324346000307314,344972,272566,312014
653324346007742009,344987,272517,311942
653324346015176704,345031,272553,312052
653324346022487624,344909,272451,311791
653324346029929600,344965,272530,311989
653324346037371576,344943,272542,312102
653324346044813552,344924,272515,312001
653324346052255528,344864,272566,312019
653324346059697504,344972,272540,312032
653324346067139480,345026,272605,312149
653324346074581456,344965,272590,312036
653324346082023432,345012,272558,311976
653324346089465408,345038,272579,311991
653324346096907384,345079,272593,312168
653324346104349360,344922,272559,312019
653324346111791336,344973,272529,312026
653324346119233312,345035,272673,312171
653324346126675288,345031,272667,312112
653324346134117264,345050,272729,312099
653324346141559240,345024,272641,312070
653324346149001216,345073,272643,312118
653324346156566985,345215,272467,312028
653324346164001680,345115,272599,312093
653324346171436375,345111,272903,312141
653324346178871070,345147,272803,312179
653324346186305765,345138,272940,312158
653324346193740460,345236,272952,312190
653324346201175155,346089,273804,313102
653324346208609850,345513,273348,312667
653324346216044545,345391,273312,312450
653324346223479240,345319,273238,312241
653324346230913935,345349,273103,312246
653324346238348630,345350,273032,312339
653324346245783325,345355,273130,312432
653324346253218020,345433,273180,312428
653324346260652715,345536,273177,312438
653324346268087410,345523,273165,312419
653324346275522105,345509,273163,312492
653324346282956800,345546,273260,312491
653324346290391497,345809,273320,312416
653324346297826192,345684,273423,312507
653324346305260887,345694,273398,312460
653324346312695582,345693,273406,312440
653324346320130277,345724,273567,312448
653324346327564972,345782,273513,312510
653324346334999667,345818,273416,312588
653324346342434362,345762,273554,312688
653324346349869057,345850,273558,312607
653324346357303752,345864,273551,312654
653324346364738447,345921,273514,312494
653324346372173142,346075,273542,312745
653324346379607837,346193,273635,312791
653324346387042532,346045,273632,312738
653324346394477227,346068,273758,312702
653324346401911922,346147,273867,312821
653324346409346617,346195,273687,312914
653324346416781312,346168,273760,312775
653324346424216009,345810,273879,312774
653324346431650704,346105,273769,312965
653324346439085399,346287,273959,312819
653324346446520094,346207,274117,312781
653324346453954789,346342,274123,312938
653324346461389484,346441,274122,312914
653324346468824179,346549,274165,313009
653324346476258874,346571,274104,313040
653324346483693569,346497,274187,312907
653324346491128264,346431,274149,313103
653324346498562959,346518,274062,313071
653324346505997654,346545,274155,312984
653324346513432349,346583,274201,313097
653324346520867044,347432,274998,313971
653324346528301739,346893,274411,313262
653324346535736434,346495,274114,313020
653324346543171129,346312,274029,312817
653324346550605824,346182,273967,312637
653324346557916744,346142,274002,312351
653324346565358720,346067,273770,312373
653324346572800696,346057,273678,312463
653324346580242672,346495,273752,312511
653324346587684648,346222,273594,312352
653324346595126624,346067,273446,312207
653324346602568600,345847,273352,312240
653324346610010576,345878,273373,312265
653324346617452552,345670,273317,312097
653324346624894528,345713,273260,312059
653324346632336504,345660,273258,311999
653324346639778480,345591,273339,311997
653324346647220456,345541,273269,311864
653324346654662432,345508,273063,311904
653324346662104408,345451,273163,311842
653324346669546384,345431,273150,311780
653324346676988360,345293,273090,311919
653324346684430336,345377,273213,311872
653324346691996105,345237,273177,311508
653324346699430800,345441,272986,311712
653324346706865495,345302,273023,311753
653324346714300190,345306,273111,311603
653324346721734885,345303,273219,311634
653324346729169580,345200,273073,311640
653324346736604275,345287,273127,311650
653324346744038970,345169,273102,311649
653324346751473665,345233,273094,311737
653324346758908360,345177,272976,311706
653324346766343055,345098,273038,311819
653324346773777750,345142,273133,311915
653324346781212445,345298,273082,311759
653324346788647140,345128,273042,311798
653324346796081835,345037,273149,311758
653324346803516530,345084,273129,311773
653324346810951225,345192,273077,311692
653324346818385920,345246,273090,311776
653324346825820617,344997,273059,311585
653324346833255312,345191,273073,311801
653324346840690007,345943,273922,312533
653324346848124702,345552,273397,312077
653324346855559397,345278,273119,311740
653324346862994092,345264,273130,311675
653324346870428787,345101,273210,311691
653324346877863482,345149,273185,311632
653324346885298177,345148,273195,311658
653324346892732872,345177,273253,311784
653324346900167567,345049,273136,311733
653324346907602262,345092,273140,311837
653324346915036957,345167,273245,311699
653324346922471652,345219,273191,311824
653324346929906347,345045,273326,311807
653324346937341042,345060,273332,311724
653324346944775737,345172,273337,311416
653324346952210432,345300,273332,311598
653324346959645129,344927,273335,311965
653324346967079824,345111,273303,311899
653324346974514519,345232,273328,312000
653324346981949214,345354,273309,311899
653324346989383909,345356,273429,311866
653324346996818604,345543,273440,311912
653324347004253299,345555,273436,311915
653324347011687994,345442,273450,311966
653324347019122689,345444,273530,311947
653324347026557384,345467,273496,312029
653324347033992079,345559,273520,312071
653324347041426774,345566,273517,312109
653324347048861469,345457,273576,312124
653324347056296164,345469,273529,312146
653324347063730859,345677,273640,312284
653324347071165554,345618,273524,312155
653324347078600249,345665,273566,312177
653324347086034944,345657,273617,312252
653324347093345864,345893,273703,312331
653324347100787840,345853,273709,312298
653324347108229816,345864,273753,312302
653324347115671792,345927,273790,312265
653324347123113768,345883,273847,312258
653324347130555744,345912,273878,312334
653324347137997720,345864,273840,312301
653324347145439696,345984,273930,312312
653324347152881672,345902,273998,312424
653324347160323648,346452,274874,313269
653324347167765624,346152,274253,312779
653324347175207600,346063,274182,312568
653324347182649576,346121,274117,312451
653324347190091552,346079,274119,312425
653324347197533528,346036,274100,312530
653324347204975504,345947,274121,312511
653324347212417480,346109,274174,312531
653324347219859456,346198,274199,312542
653324347227549019,346301,273957,312653
653324347234976432,346312,274146,312529
653324347242403845,346415,274310,312473
653324347249831258,346324,274287,312613
653324347257258671,346434,274341,312626
653324347264686084,346502,274394,312734
653324347272113497,346466,274498,312738
653324347279540910,346416,274447,312724
653324347286968323,346451,274527,312700
653324347294395736,346626,274567,312756
653324347301823149,346571,274495,312820
653324347309250562,346553,274523,312862
653324347316677975,346600,274406,312888
653324347324105388,346651,274349,312845
653324347331532801,346568,274313,312847
653324347338960214,346624,274123,312769
653324347346387627,346457,274103,312718
653324347353815040,346264,274055,312663
653324347361118665,346363,274309,312682
653324347368553360,346244,274113,312597
653324347375988055,346157,273926,312421
653324347383422750,345927,273740,312326
653324347390857445,345777,273679,312125
653324347398292140,345812,273603,312218
653324347405726835,345767,273456,312220
653324347413161530,345778,273549,312210
653324347420596225,345730,273456,312051
653324347428030920,345636,273399,311915
653324347435465615,345608,273417,311838
653324347442900310,345547,273409,311825
653324347450335005,345501,273310,311786
653324347457769700,345428,273097,311812
653324347465204395,345226,273052,311742
653324347472639090,345320,273200,311693
653324347480073785,345488,274046,312567
653324347487508480,345383,273509,312097
653324347494695606,345068,273119,311437
653324347502144864,345154,273079,311542
653324347509594122,345086,273061,311541
653324347517043380,345101,272997,311430
653324347524492638,344955,273107,311494
653324347531941896,345038,273017,311506
653324347539391154,344914,273048,311397
653324347546840412,344916,273006,311482
653324347554289670,344927,272980,311399
653324347561738928,344952,272975,311386
653324347569188186,344860,272965,311364
653324347576637444,344925,272969,311402
653324347584086702,344910,272990,311347
653324347591535960,345033,273028,311416
653324347598985218,344890,273023,311307
653324347606434476,344814,273015,311361
653324347613883734,344882,272918,311386
653324347621332992,344950,273079,311410
653324347629153627,344863,272773,311603
653324347636581040,344907,272874,311462
653324347644008453,344873,272984,311357
653324347651435866,344909,273042,311401
653324347658863279,344857,273063,311496
653324347666290692,344753,273012,311398
653324347673718105,344856,273090,311446
653324347681145518,344758,273098,311313
653324347688572931,344725,272975,311343
653324347696000344,344764,273018,311375
653324347703427757,344834,273099,311413
653324347710855170,344922,273197,311454
653324347718282583,344865,273143,311367
653324347725709996,344906,273177,311364
653324347733137409,344880,273129,311374
653324347740564822,344887,273093,311371
653324347747992235,344857,273193,311445
653324347755419648,344950,273132,311449
653324347762723273,345146,273239,311702
653324347770157968,345064,273264,311636
653324347777592663,345016,273201,311445
653324347785027358,345001,273318,311371
653324347792462053,345015,273207,311451
653324347799896748,345001,273955,312285
653324347807331443,344991,273653,311902
653324347814766138,345108,273465,311732
653324347822200833,345052,273433,311614
653324347829635528,345031,273324,311565
653324347837070223,345025,273365,311533
653324347844504918,345157,273379,311627
653324347851939613,345082,273416,311596
653324347859374308,345610,273299,311519
653324347866809003,345382,273333,311559
653324347874243698,345245,273422,311697
653324347881678393,345222,273464,311678
653324347889113088,345319,273529,311798
653324347896424008,345282,273450,312060
653324347903865984,345279,273517,311849
653324347911307960,345386,273547,311795
653324347918749936,345411,273549,311754
653324347926191912,345436,273844,311629
653324347933633888,345434,273750,311742
653324347941075864,345406,273770,311719
653324347948517840,345472,273836,311758
653324347955959816,345573,273815,311769
653324347963401792,345501,273625,311818
653324347970843768,345575,273724,311862
653324347978285744,345620,273726,312112
653324347985727720,345650,273793,312052
653324347993169696,345727,273892,311983
653324348000611672,345748,273914,311885
653324348008053648,345686,273896,311980
653324348015495624,345700,273947,312067
653324348022937600,345728,273840,312060
653324348030503369,345989,274054,312083
653324348037938064,346021,274020,312217
653324348045372759,346019,273997,312212
653324348052807454,346021,274051,312305
653324348060242149,346068,274066,312400
653324348067676844,345991,274048,312152
653324348075111539,346085,274118,312207
653324348082546234,346054,274234,312325
653324348089980929,346138,274327,312239
653324348097415624,346208,274348,312322
653324348104850319,346176,274327,312474
653324348112285014,346132,274269,312482
653324348119719709,346215,275233,313186
653324348127154404,346229,274694,312877
653324348134589099,346314,274567,312727
653324348142023794,346389,274457,312697
653324348149458489,346351,274453,312660
653324348156893184,346279,274380,312505
653324348164327881,346307,274377,312270
653324348171762576,346254,274167,312219
653324348179197271,346956,274080,312183
653324348186631966,346451,273969,312215
653324348194066661,346164,273910,312017
653324348201501356,346032,273855,311967
653324348208936051,345833,273665,311862
653324348216370746,345733,273605,311812
653324348223805441,345612,273550,311855
653324348231240136,345450,273532,311681
653324348238674831,345393,273436,311559
653324348246109526,345388,273470,311599
653324348253544221,345350,273226,311479
653324348260978916,345371,273190,311561
653324348268413611,345293,273240,311561
653324348275848306,345117,273194,311361
653324348283283001,345126,273199,311458
653324348290717696,345086,273187,311248
653324348298152393,345098,273322,311434
653324348305587088,345107,273122,311409
653324348313021783,344999,273010,311352
653324348320456478,344893,273044,311283
653324348327891173,344771,273044,311195
653324348335325868,344831,272993,311076
653324348342760563,344859,272917,310940
653324348350195258,344885,272915,311019
653324348357629953,344679,272889,310988
653324348365064648,344672,272855,310906
653324348372499343,344655,272868,310867
653324348379934038,344611,272979,310748
653324348387368733,344597,272867,310669
653324348394803428,344567,272878,310781
653324348402238123,344602,272918,310836
653324348409672818,344531,272779,310791
653324348417107513,344391,272873,310968
653324348424542208,344529,272728,310979
653324348431853128,344549,272597,311180
653324348439295104,344411,273531,311868
653324348446737080,344594,273233,311349
653324348454179056,344540,273008,311228
653324348461621032,344430,272917,311062
653324348469063008,344625,272710,311023
653324348476504984,344518,272715,310978
653324348483946960,344579,272705,310914
653324348491388936,344324,272776,310973
653324348498830912,345228,272780,310847
653324348506272888,344778,272759,310858
653324348513714864,344551,272752,310847
653324348521156840,344517,272826,310799
653324348528598816,344384,272817,310953
653324348536040792,344506,272839,311002
653324348543482768,344481,272815,310967
653324348550924744,344501,272869,311015
653324348558366720,344477,272875,311038
653324348565932489,344395,272979,310618
653324348573367184,344436,272766,310745
653324348580801879,344487,272803,310927
653324348588236574,344509,272853,310940
653324348595671269,344520,272821,311086
653324348603105964,344595,272880,311051
653324348610540659,344630,272916,311061
653324348617975354,344666,273018,311237
653324348625410049,344727,273015,311060
653324348632844744,344582,272972,311022
653324348640279439,344633,272970,310953
653324348647714134,344511,272936,310909
653324348655148829,344675,273038,311037
653324348662583524,344724,273072,311076
653324348670018219,344765,273107,311180
653324348677452914,344743,273119,311119
653324348684887609,344727,273105,311030
653324348692322304,344750,273066,311069
653324348699757001,345076,273329,311006
653324348707191696,344948,273321,311029
653324348714626391,344800,273158,311073
653324348722061086,344831,273278,311144
653324348729495781,344880,273190,311234
653324348736930476,344898,273284,311211
653324348744365171,344885,273207,311056
653324348751799866,344923,273249,311254
653324348759234561,345001,274153,312104
653324348766669256,345066,273723,311661
653324348774103951,345084,273453,311565
653324348781538646,345082,273496,311490
653324348788973341,345047,273538,311430
653324348796408036,345114,273550,311399
653324348803842731,345178,273464,311470
653324348811277426,345186,273473,311469
653324348818712121,345960,273535,311486
653324348826146816,345624,273551,311554
653324348833457736,345636,273879,311593
653324348840899712,345364,273760,311671
653324348848341688,345269,273575,311578
653324348855783664,345386,273649,311692
653324348863225640,345385,273622,311777
653324348870667616,345454,273724,311844
653324348878109592,345424,273640,311755
653324348885551568,345426,273734,311831
653324348892993544,345555,273717,311838
653324348900435520,345550,273814,311891
653324348907877496,345530,273782,311821
653324348915319472,345579,273842,311857
653324348922761448,345610,273901,311760
653324348930203424,345647,274004,311827
653324348937645400,345823,274094,311989
653324348945087376,345835,273945,311965
653324348952529352,345766,274013,312095
653324348959971328,345867,274050,312263
653324348967660891,346141,274434,312002
653324348975088304,346047,274111,312093
653324348982515717,346016,274160,312120
653324348989943130,345949,273984,312149
653324348997370543,345857,273918,312094
653324349004797956,345710,273810,311973
653324349012225369,345643,273810,311886
653324349019652782,345577,273643,311753
653324349027080195,345534,273522,311639
653324349034507608,345415,273450,311517
653324349041935021,345386,273423,311527
653324349049362434,345305,273365,311414
653324349056789847,345213,273288,311326
653324349064217260,345090,273210,311197
653324349071644673,345062,273184,311151
653324349079072086,344924,273949,311223
653324349086499499,344872,273505,311013
653324349093926912,344733,273181,310955
653324349101106760,344707,272823,311091
653324349108548736,344709,272882,310982
653324349115990712,344725,272847,310931
653324349123432688,344740,272768,310793
653324349130874664,344631,272813,310665
653324349138316640,345380,272690,310614
653324349145758616,344848,272805,310629
653324349153200592,344562,272740,310552
653324349160642568,344416,272647,310438
653324349168084544,344400,272642,310560
653324349175526520,344348,272585,310597
653324349182968496,344276,272537,310483
653324349190410472,344142,272381,310405
653324349197852448,344162,272415,310362
653324349205294424,344197,272501,310369
653324349212736400,344117,272436,310359
653324349220178376,343989,272467,310351
653324349227620352,344007,272507,310381
653324349235186121,344113,272229,310384
653324349242620816,344004,272267,310259
653324349250055511,343890,272246,310300
653324349257490206,344065,272391,310517
653324349264924901,344113,272345,310477
653324349272359596,343890,272318,310385
653324349279794291,343891,272331,310332
653324349287228986,343895,272405,310391
653324349294663681,343913,272451,310322
653324349302098376,343974,272327,310310
653324349309533071,343847,272423,310329
653324349316967766,343938,272326,310219
653324349324402461,343835,272339,310269
653324349331837156,343758,272347,310249
653324349339271851,343938,272275,310318
653324349346706546,343858,272163,310283
653324349354141241,343908,272264,310296
653324349361575936,343878,272395,310383
653324349369010633,343862,272524,310066
653324349376445328,343887,272402,310049
653324349383880023,343956,272467,310274
653324349391314718,343942,272287,310231
653324349398749413,343805,272898,310203
653324349406184108,343840,272595,310307
653324349413618803,343855,272408,310346
653324349421053498,343843,272327,310461
653324349428488193,343873,272348,310361
653324349435922888,343972,272376,310459
653324349443357583,343899,272417,310315
653324349450792278,343922,272432,310403
653324349458226973,344783,272537,310882
653324349465661668,344444,272455,310653
653324349473096363,344249,272473,310522
653324349480531058,344007,272473,310432
653324349487965753,343980,272576,310387
653324349495400448,344128,272499,310422
653324349502835145,344353,272388,310555
653324349510269840,344272,272509,310510
653324349517704535,344177,272492,310512
653324349525139230,344137,272586,310583
653324349532573925,344215,272560,310500
653324349540008620,344164,272525,310540
653324349547443315,344185,272600,310644
653324349554878010,344162,272607,310596
653324349562312705,344250,272634,310706
653324349569747400,344216,272647,310649
653324349577182095,344348,272859,310756
653324349584616790,344336,272870,310763
653324349592051485,344339,272915,310630
653324349599486180,344364,272668,310770
653324349606920875,344347,272788,310700
653324349614355570,344496,272793,310853
653324349621790265,344519,272945,310752
653324349629224960,344470,272883,310700
653324349636535880,344385,272959,310619
653324349643977856,344478,272922,310799
653324349651419832,344648,272952,310804
653324349658861808,344585,272899,310881
653324349666303784,344613,273014,310935
653324349673745760,344604,272995,310985
653324349681187736,344603,273045,310839
653324349688629712,344628,273008,310889
653324349696071688,344622,272902,310981
653324349703513664,344767,273153,311084
653324349710955640,344929,273247,311202
653324349718397616,344805,273226,311192
653324349725839592,344895,273285,311233
653324349733281568,344806,273358,311242
653324349740723544,344864,273355,311260
653324349748165520,345017,273384,311278
653324349755607496,345037,273409,311204
653324349763049472,345125,273450,311303
653324349770739035,345300,273384,311024
653324349778166448,346018,273409,312203
653324349785593861,345461,273387,311732
653324349793021274,345379,273508,311674
653324349800448687,345313,273484,311542
653324349807876100,345342,273471,311586
653324349815303513,345127,273287,311497
653324349822730926,344940,273298,311405
653324349830158339,345056,273329,311421
653324349837585752,345012,273218,311310
653324349845013165,345000,273163,311350
653324349852440578,344910,272996,311293
653324349859867991,344808,272844,311069
653324349867295404,344757,272775,310993
653324349874722817,344556,272716,310920
653324349882150230,344467,272705,310987
653324349889577643,344479,272597,310932
653324349897005056,344470,272530,310878
653324349904308681,344058,272373,310562
653324349911743376,344151,272336,310689
653324349919178071,344191,272288,310476
653324349926612766,344066,272276,310506
653324349934047461,343983,272246,310464
653324349941482156,343900,272213,310566
653324349948916851,343837,272055,310456
653324349956351546,343906,272125,310526
653324349963786241,343793,272125,310563
653324349971220936,343763,271955,310501
653324349978655631,343756,272039,310486
653324349986090326,343743,271942,310444
653324349993525021,343650,271973,310394
653324350000959716,343676,271896,310334
653324350008394411,343588,271845,310337
653324350015829106,343571,271786,310240
653324350023263801,343475,271789,310272
653324350030698496,343384,271771,310283
653324350037885622,343156,271964,310097
653324350045334880,343348,271866,310159
653324350052784138,343376,271798,310110
653324350060233396,343418,271817,310029
653324350067682654,343286,271755,310131
653324350075131912,343244,271692,310235
653324350082581170,343331,271841,310292
653324350090030428,343203,271818,310344
653324350097479686,344066,271859,311227
653324350104928944,343568,271682,310611
653324350112378202,343299,271677,310421
653324350119827460,343134,271676,310396
653324350127276718,343120,271615,310252
653324350134725976,343064,271619,310264
653324350142175234,343049,271671,310148
653324350149624492,343155,271669,310265
653324350157073750,343143,271631,310240
653324350164523008,343010,271658,310333
653324350172219849,343359,271778,310593
653324350179654544,343206,271728,310356
653324350187089239,343085,271605,310344
653324350194523934,343111,271662,310330
653324350201958629,343106,271597,310429
653324350209393324,343133,271600,310424
653324350216828019,343220,271666,310515
653324350224262714,343167,271671,310508
653324350231697409,343073,271724,310498
653324350239132104,343213,271756,310594
653324350246566799,343102,271706,310580
653324350254001494,343121,271704,310618
653324350261436189,343066,271655,310567
653324350268870884,343067,271676,310626
653324350276305579,343254,271849,310561
653324350283740274,343234,271801,310627
653324350291174969,343241,271803,310641
653324350298609664,343248,271932,310713
653324350306168155,343465,271589,310557
653324350313595568,343396,271826,310669
653324350321022981,343435,271962,310743
653324350328450394,343297,271999,310658
653324350335877807,343325,272051,310678
653324350343305220,343458,272061,310867
653324350350732633,343360,271965,310825
653324350358160046,343370,272035,310873
653324350365587459,343492,272058,311000
653324350373014872,343439,271991,311018
653324350380442285,343485,271898,311009
653324350387869698,343557,272039,310985
653324350395297111,343506,272037,311071
653324350402724524,343524,272064,311168
653324350410151937,343581,272191,311079
653324350417579350,344499,272408,311984
653324350425006763,344051,272377,311561
653324350432434176,343658,272393,311425
653324350439614024,343387,272166,311420
6.53324E+17,343646,272264,311216
653324350454497976,343735,272411,311316
653324350461939952,343798,272436,311241
653324350469381928,343771,272421,311252
653324350476823904,343834,272478,311188
653324350484265880,343951,272516,311164
653324350491707856,343993,272469,311203
653324350499149832,344025,272519,311323
653324350506591808,344072,272593,311401
653324350514033784,344143,272503,311383
653324350521475760,344140,272633,311431
653324350528917736,344114,272700,311539
653324350536359712,344231,272767,311703
653324350543801688,344315,272833,311704
653324350551243664,344347,272728,311792
653324350558685640,344349,272793,311638
653324350566127616,344470,272883,311681
653324350573569608,344716,273035,311840
653324350581011584,344629,272990,312062
653324350588453560,344592,273082,311978
653324350595895536,344603,273048,311973
653324350603337512,344562,273120,311931
653324350610779488,344709,273078,311962
653324350618221464,344685,273071,312017
653324350625663440,344700,273039,312083
653324350633105416,344679,273086,312108
653324350640547392,344673,273002,312070
653324350647989368,344515,272907,311845
653324350655431344,344561,272770,311769
653324350662873320,344397,272752,311754
653324350670315296,344364,272682,311621
653324350677757272,344304,272673,311654
653324350685199248,344262,272558,311506
653324350692641224,344139,272503,311443
653324350700083200,344005,272442,311410
653324350707772763,344170,272469,311518
653324350715200176,344085,272371,311359
653324350722627589,343747,272249,311173
653324350730055002,343605,272163,311235
653324350737482415,344447,272884,311994
653324350744909828,343963,272502,311454
653324350752337241,343837,272286,311286
653324350759764654,343692,272137,311164
653324350767192067,343556,272051,311098
653324350774619480,343413,272029,311052
653324350782046893,343429,271879,310794
653324350789474306,343410,271902,310871
653324350796901719,343426,271831,310806
653324350804329132,343290,271934,310802
653324350811756545,343246,271915,310732
653324350819183958,343283,271819,310635
653324350826611371,343276,271785,310637
653324350834038784,343153,271735,310596
653324350841218632,343351,271725,310240
653324350848660608,343148,271692,310444
653324350856102584,343066,271766,310554
653324350863544560,343042,271748,310625
653324350870986536,343121,271756,310608
653324350878428512,343046,271825,310613
653324350885870488,343128,271801,310549
653324350893312464,343012,271693,310499
653324350900754440,343152,271810,310674
653324350908196416,343172,271901,310714
653324350915638392,343174,271945,310709
653324350923080368,343051,271933,310745
653324350930522344,343053,271902,310538
653324350937964320,343112,271929,310749
653324350945406296,343109,271885,310582
653324350952848272,343084,271908,310626
653324350960290248,343155,271839,310696
653324350967732224,343264,271884,310771
653324350975297993,343427,271832,310708
653324350982732688,343294,271816,310593
653324350990167383,343149,271888,310699
653324350997602078,343104,271920,310742
653324351005036773,343119,271826,310643
653324351012471468,343149,271904,310675
653324351019906163,343075,271844,310590
653324351027340858,343117,272018,310630
653324351034775553,343152,271970,310647
653324351042210248,343175,271985,310666
653324351049644943,343178,272017,310701
653324351057079638,344048,272843,311541
653324351064514333,343588,272445,311076
653324351071949028,343378,272206,310878
653324351079383723,343249,272155,310798
653324351086818418,343342,272062,310755
653324351094253113,343382,272074,310733
653324351101687808,343340,272120,310761
653324351109122505,343623,272457,310602
653324351116557200,343436,272362,310751
653324351123991895,343376,272292,310794
653324351131426590,343394,272279,310842
653324351138861285,343391,272307,310804
653324351146295980,343394,272210,310836
653324351153730675,343349,272334,310861
653324351161165370,343477,272351,310944
653324351168600065,343483,272343,310970
653324351176034760,343521,272532,310926
653324351183469455,343530,272591,310943
653324351190904150,343582,272354,310908
653324351198338845,343602,272426,310871
653324351205773540,343539,272457,310876
653324351213208235,343547,272543,310861
653324351220642930,343528,272382,310810
653324351228077625,343558,272436,310779
653324351235512320,343589,272518,310873
653324351242947017,343841,272457,310658
653324351250381712,343702,272627,310752
653324351257816407,343830,272710,310713
653324351265251102,343780,272646,310821
653324351272685797,343739,272646,310756
653324351280120492,343754,272631,310840
653324351287555187,343803,272702,310969
653324351294989882,343754,272710,310984
653324351302424577,343889,272806,310913
653324351309859272,343905,272734,311018
653324351317293967,343972,272872,311102
653324351324728662,343914,272799,311096
653324351332163357,344104,272864,311104
653324351339598052,344077,272973,311024
653324351347032747,344077,272994,311156
653324351354467442,343982,273035,311153
653324351361902137,344032,273000,311220
653324351369336832,344088,273024,311272
653324351376771529,344828,273901,312099
653324351384206224,344462,273403,311681
653324351391640919,344233,273121,311464
653324351399075614,344131,273047,311346
653324351406510309,344253,273028,311325
653324351413945004,344139,272960,311327
653324351421379699,344248,272973,311163
653324351428814394,344052,272906,311149
653324351436249089,343954,272797,311097
653324351443683784,343864,272677,310979
653324351451118479,343835,272577,310937
653324351458553174,343720,272514,310773
653324351465987869,343644,272327,310625
653324351473422564,343638,272200,310666
653324351480857259,343389,272186,310495
653324351488291954,343346,272001,310282
653324351495726649,343289,272076,310420
653324351503161344,343237,272018,310338
653324351510596041,343396,272064,310138
653324351518030736,343178,271936,310068
653324351525465431,342965,271944,310115
653324351532900126,342950,271796,309982
653324351540334821,342907,271800,309851
653324351547769516,342809,271652,309870
653324351555204211,342813,271696,309846
653324351562638906,342723,271577,309974
653324351570073601,342629,271640,309917
653324351577508296,342723,271578,309817
653324351584942991,342497,271524,309781
653324351592377686,342478,271437,309667
653324351599812381,342433,271353,309685
653324351607247076,342465,271416,309618
653324351614681771,342385,271401,309612
653324351622116466,342401,271223,309671
653324351629551161,342303,271311,309503
653324351636985856,342290,271301,309585
653324351644296776,342256,271408,309558
653324351651738752,342298,271422,309639
653324351659180728,342325,271372,309550
653324351666622704,342179,271330,309551
653324351674064680,342208,271373,309587
653324351681506656,342209,271421,309555
653324351688948632,342199,271308,309539
653324351696390608,343085,272153,310413
653324351703832584,342568,271698,310018
653324351711274560,342301,271502,309667
653324351718716536,342227,271368,309651
653324351726158512,342094,271339,309507
653324351733600488,342138,271385,309591
653324351741042464,342125,271250,309491
653324351748484440,342081,271323,309540
653324351755926416,342025,271335,309505
653324351763368392,342059,271178,309522
653324351770810368,342034,271259,309548
653324351778376137,341850,271359,309480
653324351785810832,341851,271297,309491
653324351793245527,341870,271238,309405
653324351800680222,341990,271235,309320
653324351808114917,341968,271262,309412
653324351815549612,341903,271356,309518
653324351822984307,341943,271327,309468
653324351830419002,341826,271255,309424
653324351837853697,341944,271368,309486
653324351845288392,341983,271344,309528
653324351852723087,342047,271418,309599
653324351860157782,342054,271427,309507
653324351867592477,342086,271413,309646
653324351875027172,342133,271415,309640
653324351882461867,342143,271436,309568
653324351889896562,342107,271503,309533
653324351897331257,342112,271493,309561
653324351904765952,342106,271496,309565
653324351912076872,341938,271202,309696
653324351919518848,342092,271415,309709
653324351926960824,342083,271483,309746
653324351934402800,342027,271476,309614
653324351941844776,342200,271470,309773
653324351949286752,342205,271489,309803
653324351956728728,342214,271577,309948
653324351964170704,342241,271592,310082
653324351971612680,342267,271698,310009
653324351979054656,342273,271711,310046
653324351986496632,342298,271622,309955
653324351993938608,342246,271691,310079
653324352001380584,342258,271789,310136
653324352008822560,342288,271725,310158
653324352016264536,343180,272724,310989
653324352023706512,342785,272230,310632
653324352031148488,342533,271915,310464
653324352038590464,342386,271873,310245
653324352046156233,342701,271611,310305
653324352053590928,342525,271823,310310
653324352061025623,342575,271822,310320
653324352068460318,342539,272006,310355
653324352075895013,342546,272041,310320
653324352083329708,342540,271990,310436
653324352090764403,342600,272025,310629
653324352098199098,342606,272006,310681
653324352105633793,342632,272133,310825
653324352113068488,342815,272052,311087
653324352120503183,342712,272124,310964
653324352127937878,342787,272199,310949
653324352135372573,342795,272317,311037
653324352142807268,342788,272301,310995
653324352150241963,342805,272296,311117
653324352157676658,342747,272326,311026
653324352165111353,342779,272371,311104
653324352172546048,342778,272228,311083
653324352179980745,342769,272480,311122
653324352187415440,342697,272256,310953
653324352194850135,342865,272144,311174
653324352202284830,342710,271997,311181
653324352209719525,342629,271962,311059
653324352217154220,342568,271841,310846
653324352224588915,342398,271785,310776
653324352232023610,342268,271695,310733
653324352239458305,342151,271462,310641
6.53324E+17,341979,271482,310454
653324352254327695,341898,271256,310306
653324352261762390,341779,271259,310210
653324352269197085,341581,271115,310023
653324352276631780,341636,270986,309876
653324352284066475,341496,270957,309753
653324352291501170,341389,270801,309547
653324352298935865,341291,270680,309464
653324352306370560,341176,270686,309462
653324352313805257,340876,270863,309318
653324352321239952,340799,270705,309225
653324352328674647,340893,270654,309243
653324352336109342,341126,271440,310159
653324352343544037,340901,270933,309543
653324352350978732,340655,270585,309269
653324352358413427,340493,270387,309070
653324352365848122,340436,270267,308910
653324352373282817,340362,270302,309001
653324352380717512,340345,270243,308961
653324352388152207,340290,270107,308883
653324352395586902,340095,270062,308833
653324352403021597,339987,270087,308826
653324352410456292,340095,270060,308892
653324352417890987,339977,270018,308700
653324352425325682,339875,270026,308757
653324352432760377,339904,269959,308731
653324352440195072,339944,269934,308631
653324352447629769,339721,269717,308664
653324352455064464,339780,269928,308618
653324352462499159,339657,269884,308588
653324352469933854,339670,269861,308657
653324352477368549,339687,269732,308688
653324352484803244,339558,269795,308653
653324352492237939,339517,269784,308667
653324352499672634,339568,269754,308559
653324352507107329,339626,269854,308671
653324352514542024,339620,269780,308711
653324352521976719,339390,269768,308677
653324352529411414,339381,269875,308580
653324352536846109,339298,269845,308649
653324352544280804,339248,269863,308670
653324352551715499,339367,269880,308719
653324352559150194,339304,269739,308683
653324352566584889,339192,269743,308783
653324352574019584,339384,269804,308771
653324352581330504,339188,269502,308928
653324352588772480,339346,269683,308973
653324352596214456,339332,269696,309013
653324352603656432,339362,269721,308934
653324352611098408,339326,269789,308980
653324352618540384,339299,269841,309149
653324352625982360,339272,269759,309267
653324352633424336,339293,269855,309417
653324352640866312,339380,269914,309374
653324352648308288,339325,269854,309480
653324352655750264,339364,270702,310333
653324352663192240,339449,270196,309766
653324352670634216,339369,270103,309561
653324352678076192,339464,270011,309596
653324352685518168,339575,270017,309761
653324352692960144,339634,270116,309806
653324352700402120,339680,270120,309823
653324352707844096,339754,270100,309732
653324352715409865,340824,270131,309837
653324352722844560,340332,270184,309800
653324352730279255,340057,270177,309923
653324352737713950,339892,270102,309919
653324352745148645,339910,270226,309934
653324352752583340,339872,270248,309996
653324352760018035,339946,270216,310038
653324352767452730,339947,270228,310088
653324352774887425,340024,270300,310151
653324352782322120,340099,270230,310278
653324352789756815,339997,270277,310202
653324352797191510,340086,270199,310187
653324352804626205,340024,270363,310323
653324352812060900,340108,270432,310324
653324352819495595,340117,270563,310449
653324352826930290,340169,270500,310460
653324352834364985,340363,270596,310679
653324352841799680,340331,270652,310631
653324352849358171,340444,270572,310899
653324352856785584,340483,270584,310693
653324352864212997,340540,270561,310815
653324352871640410,340536,270612,310939
653324352879067823,340503,270613,310964
653324352886495236,340598,270646,310989
653324352893922649,340618,270686,310900
653324352901350062,340725,270723,311066
653324352908777475,340707,270760,311216
653324352916204888,340690,270912,311251
653324352923632301,340801,270941,311277
653324352931059714,340863,271011,311385
653324352938487127,341032,270902,311413
653324352945914540,340999,270932,311478
653324352953341953,340915,270993,311480
653324352960769366,340967,270987,311598
653324352968196779,340937,271055,311785
653324352975624192,341041,271937,312009
653324352982680246,340853,271403,311707
653324352990129504,340863,271050,311709
653324352997578762,340849,270949,311772
653324353005028020,340869,270851,311703
653324353012477278,340794,270675,311565
653324353019926536,340838,270635,311517
653324353027375794,340698,270569,311401
653324353034825052,341529,270369,311383
653324353042274310,340945,270250,311235
653324353049723568,340642,270289,311159
653324353057172826,340442,270247,311144
653324353064622084,340357,270148,311147
653324353072071342,340268,270002,311101
653324353079520600,340138,269918,310982
653324353086969858,340061,269781,310883
653324353094419116,340061,269748,310833
653324353101868374,339909,269743,310601
653324353109317632,339818,269684,310664
653324353117014473,339914,269556,310507
653324353124449168,339900,269574,310576
653324353131883863,339689,269408,310572
653324353139318558,339656,269452,310503
653324353146753253,339654,269397,310544
653324353154187948,339609,269424,310469
653324353161622643,339522,269326,310428
653324353169057338,339485,269251,310368
653324353176492033,339439,269158,310234
653324353183926728,339340,269155,310254
653324353191361423,339292,269214,310208
653324353198796118,339262,269118,310237
653324353206230813,339220,269136,310251
653324353213665508,339174,269178,310268
653324353221100203,339169,269092,310353
653324353228534898,339153,269128,310257
653324353235969593,339176,269167,310203
653324353243404288,339267,269076,310193
653324353250962779,339592,269464,310220
653324353258390192,339370,269386,310343
653324353265817605,339241,269213,310381
653324353273245018,339245,269199,310488
653324353280672431,339181,269249,310531
653324353288099844,339378,269323,310450
653324353295527257,339352,270112,310491
653324353302954670,339353,269663,310549
653324353310382083,339304,269509,310509
653324353317809496,339357,269356,310567
653324353325236909,339344,269302,310546
653324353332664322,339367,269324,310598
653324353340091735,339395,269264,310559
653324353347519148,339358,269354,310572
653324353354946561,340186,269272,311119
653324353362373974,339759,269365,310846
653324353369801387,339528,269307,310782
653324353377228800,339335,269400,310586
653324353384408648,339434,269105,310903
653324353391850624,339486,269321,310734
653324353399292600,339490,269370,310817
653324353406734576,339470,269465,310913
653324353414176552,339535,269427,310888
653324353421618528,339404,269438,310779
653324353429060504,339579,269420,310829
653324353436502480,339627,269491,310828
653324353443944456,339588,269626,310880
653324353451386432,339702,269633,311008
653324353458828408,339790,269675,310975
653324353466270384,339806,269749,311084
653324353473712360,339927,269887,311117
653324353481154336,339887,269854,311146
653324353488596312,339967,269850,311100
653324353496038288,339939,269901,311154
653324353503480264,339894,269933,311115
653324353510922240,340061,269887,311146
653324353518364232,340397,270028,310950
653324353525806208,340286,269960,311019
653324353533248184,340098,269929,311092
653324353540690160,340094,269981,311180
653324353548132136,340215,270020,311254
653324353555574112,340247,270151,311220
653324353563016088,340108,270157,311226
653324353570458064,340205,270198,311361
653324353577900040,340350,270187,311345
653324353585342016,340490,270253,311443
653324353592783992,340437,270328,311331
653324353600225968,340405,270350,311337
653324353607667944,340535,270336,311482
653324353615109920,340543,270336,311448
653324353622551896,340587,270420,311461
653324353629993872,340674,270443,311434
653324353637435848,340781,270530,311521
653324353644877824,340683,270492,311603
653324353652443593,340641,270419,311383
653324353659878288,340746,270516,311510
653324353667312983,340966,270581,311589
653324353674747678,341691,270619,312485
653324353682182373,341400,270727,312030
653324353689617068,341161,270717,311668
653324353697051763,341126,270842,311774
653324353704486458,341233,270894,311800
653324353711921153,341242,270887,311796
653324353719355848,341273,270916,311857
653324353726790543,341186,271020,311872
653324353734225238,341411,270974,311959
653324353741659933,341427,270978,311973
653324353749094628,341392,270950,311985
653324353756529323,341548,271009,312010
653324353763964018,341524,270911,312019
653324353771398713,341451,270916,311860
653324353778833408,341388,270963,311751
653324353786268105,341230,271038,311340
653324353793702800,341224,270904,311522
653324353801137495,341219,270698,311421
653324353808572190,341147,270590,311300
653324353816006885,341060,270436,311057
653324353823441580,340854,270363,310875
653324353830876275,340942,270329,310814
653324353838310970,340768,270151,310644
653324353845745665,340650,270022,310470
653324353853180360,340592,269965,310373
653324353860615055,340639,270041,310279
653324353868049750,340587,270031,310244
653324353875484445,340557,269987,310009
653324353882919140,340450,269947,310011
653324353890353835,340372,269818,310021
653324353897788530,340478,269789,309968
653324353905223225,340324,269758,309796
653324353912657920,340322,269686,309748
653324353920092617,340073,269458,309767
653324353927527312,340113,269524,309749
653324353934962007,340120,269574,309638
653324353942396702,340045,269554,309553
653324353949831397,340009,269591,309460
653324353957266092,340023,269556,309332
653324353964700787,340089,269409,309315
653324353972135482,339911,269435,309298
653324353979570177,339833,269383,309245
653324353987004872,339827,269326,309134
653324353994439567,340642,269915,310010
653324354001874262,340140,269638,309486
653324354009308957,339985,269492,309275
653324354016743652,339998,269509,309209
653324354024178347,339925,269495,309236
653324354031613042,339902,269565,309210
653324354039047737,339913,269590,309207
653324354046482432,339949,269424,309167
653324354053793352,339995,269651,309143
653324354061235328,339965,269580,308940
653324354068677304,339899,269513,309009
653324354076119280,339957,269379,309018
653324354083561256,339973,269438,308988
653324354091003232,339983,269397,308965
653324354098445208,339975,269522,308958
653324354105887184,339857,269328,308793
653324354113329160,339917,269505,308829
653324354120771136,339828,269503,308924
653324354128213112,339848,269345,308884
653324354135655088,339779,269462,309022
653324354143097064,339877,269524,308851
653324354150539040,339838,269485,308921
653324354157981016,339902,269443,309027
653324354165422992,339958,269496,309021
653324354172864968,339997,269469,309001
653324354180306944,340043,269521,309133
653324354187996507,339937,269871,308805
653324354195423920,340130,269747,308908
653324354202851333,340210,269738,309028
653324354210278746,340155,269823,309037
653324354217706159,340153,269739,309066
653324354225133572,340193,269716,309139
653324354232560985,340126,269736,309060
653324354239988398,340233,269712,309087
653324354247415811,340299,269634,309185
653324354254843224,340176,269622,309315
653324354262270637,340368,269782,309268
653324354269698050,340418,269797,309309
653324354277125463,340292,269873,309375
653324354284552876,340457,269904,309299
653324354291980289,340553,269851,309386
653324354299407702,340513,269864,309408
653324354306835115,340632,269943,309399
653324354314262528,341488,270796,310366
653324354321566153,340792,270396,309658
653324354329000848,340655,270307,309462
653324354336435543,340646,270155,309516
653324354343870238,340597,270170,309500
653324354351304933,340789,270353,309394
653324354358739628,340758,270227,309423
653324354366174323,340789,270213,309403
653324354373609018,340735,270259,309441
653324354381043713,340823,270244,309435
653324354388478408,340879,270258,309508
653324354395913103,340957,270322,309361
653324354403347798,341043,270300,309369
653324354410782493,341039,270311,309501
653324354418217188,341069,270244,309573
653324354425651883,341273,270391,309671
653324354433086578,341315,270460,309706
653324354440521273,341338,270406,309681
653324354447955968,341312,270546,309745
653324354455143094,341086,270562,309832
653324354462592352,341305,270605,309801
653324354470041610,341418,270584,309928
653324354477490868,341392,270595,309761
653324354484940126,341478,270654,309858
653324354492389384,341428,270675,309891
653324354499838642,341511,270619,309791
653324354507287900,341630,270747,309761
653324354514737158,341697,270791,309831
653324354522186416,341775,270837,309903
653324354529635674,341723,270851,310052
653324354537084932,341756,270759,309921
653324354544534190,341770,270732,310002
653324354551983448,341748,270690,309955
653324354559432706,341689,270665,310059
653324354566881964,341815,270664,310135
653324354574331222,341610,270590,310014
653324354581780480,341741,270482,309808
653324354589601115,341656,270186,309652
653324354597028528,341415,270152,309715
653324354604455941,341144,270006,309413
653324354611883354,340985,269731,309469
653324354619310767,340942,269755,309456
653324354626738180,340909,269639,309353
653324354634165593,341555,270389,310107
653324354641593006,341046,269841,309535
653324354649020419,340748,269615,309343
653324354656447832,340609,269334,309023
653324354663875245,340456,269297,308942
653324354671302658,340432,269148,308804
653324354678730071,340373,269070,308850
653324354686157484,340205,269102,308752
653324354693584897,340116,269049,308695
653324354701012310,339977,268935,308692
653324354708439723,339998,268830,308573
653324354715867136,339790,268738,308598
653324354723170761,339727,268933,308482
653324354730605456,339743,268808,308336
653324354738040151,339758,268712,308220
653324354745474846,339697,268696,308279
653324354752909541,339602,268771,308281
653324354760344236,339502,268618,308276
653324354767778931,339500,268531,308274
653324354775213626,339517,268482,308269
653324354782648321,339384,268342,308171
653324354790083016,339413,268319,308077
653324354797517711,339404,268307,308166
653324354804952406,339379,268416,308293
653324354812387101,339374,268470,308213
653324354819821796,339308,268366,308228
653324354827256491,339407,268291,308260
653324354834691186,339288,268346,308325
653324354842125881,339243,268376,308348
653324354849560576,339198,268235,308322
653324354856871496,339042,268112,308325
653324354864313472,339154,268261,308371
653324354871755448,339237,268201,308298
653324354879197424,339144,268168,308374
653324354886639400,339200,268294,308261
653324354894081376,339200,268295,308149
653324354901523352,339186,268260,308264
653324354908965328,339118,268236,308260
653324354916407304,339253,268101,308225
653324354923849280,339231,268122,308337
653324354931291256,339038,268216,308380
653324354938733232,338995,268230,308341
653324354946175208,339072,268094,308322
653324354953617184,340041,269062,309278
653324354961059160,339539,268591,308824
653324354968501136,339369,268384,308606
653324354975943112,339277,268315,308499
653324354983385088,339245,268336,308435
653324354990950857,339210,268531,308438
653324354998385552,339254,268408,308528
653324355005820247,339305,268351,308588
653324355013254942,339239,268316,308564
653324355020689637,339213,268351,308439
653324355028124332,339311,268373,308487
653324355035559027,339341,268412,308588
653324355042993722,339387,268421,308585
653324355050428417,339392,268436,308589
653324355057863112,339496,268470,308658
653324355065297807,339462,268496,308569
653324355072732502,339548,268590,308835
653324355080167197,339569,268555,308777
653324355087601892,339498,268583,308687
653324355095036587,339484,268622,308668
653324355102471282,339567,268609,308653
653324355109905977,339566,268656,308781
653324355117340672,339560,268645,308891
653324355124775369,339478,268893,308841
653324355132210064,339637,268805,308868
653324355139644759,339739,268715,308790
653324355147079454,339729,268751,308883
653324355154514149,339743,268840,308883
653324355161948844,339790,268829,308908
653324355169383539,339766,268752,308844
653324355176818234,339787,268832,308953
653324355184252929,339906,268951,308905
653324355191687624,339919,268933,308960
653324355199122319,339972,268997,308941
653324355206557014,340067,268925,309025
653324355213991709,340107,269056,309064
653324355221426404,340077,269132,309140
653324355228861099,340101,269097,309148
653324355236295794,340145,269088,309110
653324355243730489,340269,269086,309237
653324355251165184,340297,269280,309365
653324355258599881,340309,269345,309408
653324355266034576,340318,269275,309451
653324355273469271,341258,270161,310253
653324355280903966,340761,269695,309921
653324355288338661,340476,269588,309808
653324355295773356,340536,269436,309654
653324355303208051,340491,269497,309731
653324355310642746,340630,269433,309610
653324355318077441,340655,269400,309622
653324355325512136,340570,269547,309709
653324355332946831,340676,269519,309837
653324355340381526,340765,269624,309771
653324355347816221,340900,269665,309826
653324355355250916,340888,269806,309841
653324355362685611,340900,269758,309909
653324355370120306,340929,269806,309925
653324355377555001,341006,269863,310042
653324355384989696,341013,269912,310080
653324355392300616,341273,269652,310396
653324355399742592,341213,269727,310233
653324355407184568,341100,269713,310124
653324355414626544,340992,269667,310036
653324355422068520,341003,269584,310030
653324355429510496,340845,269538,309879
653324355436952472,340796,269400,309790
653324355444394448,340749,269254,309698
653324355451836424,340802,269092,309506
653324355459278400,340592,269041,309346
653324355466720376,340504,269024,309321
653324355474162352,340459,268932,309226
653324355481604328,340351,268799,309170
653324355489046304,340193,268782,309047
653324355496488280,340290,268732,309029
653324355503930256,340059,268690,308960
653324355511372232,340043,268537,308913
653324355518814208,339981,268462,308885
653324355526379977,340202,268382,308465
653324355533814672,340043,268366,308415
653324355541249367,339786,268267,308555
653324355548684062,339803,268267,308715
653324355556118757,339741,268223,308567
653324355563553452,339695,268175,308542
653324355570988147,339615,268154,308476
653324355578422842,339509,268120,308295
653324355585857537,339466,268212,308347
653324355593292232,340215,268944,309226
653324355600726927,339760,268454,308679
653324355608161622,339528,268192,308461
653324355615596317,339410,267902,308322
653324355623031012,339361,267875,308324
653324355630465707,339266,267952,308260
653324355637900402,339199,267916,308252
653324355645335097,339125,267898,308151
653324355652769792,339203,267904,308122
653324355660204489,339589,267980,308247
653324355667639184,339341,267900,308211
653324355675073879,339245,267899,308269
653324355682508574,339242,267910,308179
653324355689943269,339227,267993,308279
653324355697377964,339260,267865,308298
653324355704812659,339127,267904,308293
653324355712247354,339141,267968,308371
653324355719682049,339176,267930,308345
653324355727116744,339194,267834,308387
653324355734551439,339146,267842,308342
653324355741986134,339121,267864,308340
653324355749420829,339253,267951,308358
653324355756855524,339204,267939,308423
653324355764290219,339185,267899,308334
653324355771724914,339222,267967,308449
653324355779159609,339266,268020,308392
653324355786594304,339293,267971,308395
653324355794029001,339288,267918,308486
653324355801463696,339276,267994,308461
653324355808898391,339270,267862,308434
653324355816333086,339264,267949,308383
653324355823767781,339257,267967,308422
653324355831202476,339190,267987,308502
653324355838637171,339264,268008,308632
653324355846071866,339277,268155,308722
653324355853506561,339392,268093,308706
653324355860941256,339434,268108,308696
653324355868375951,339330,268078,308674
653324355875810646,339402,268120,308715
653324355883245341,339477,268198,308845
653324355890680036,339571,268298,308821
653324355898114731,339624,268198,308680
653324355905549426,339639,268192,308807
653324355912984121,340178,269155,309662
653324355920418816,339972,268649,309218
653324355927729736,339745,268709,309064
653324355935171712,339778,268639,308955
653324355942613688,339914,268585,308984
653324355950055664,339722,268527,309078
653324355957497640,339852,268632,309217
653324355964939616,339870,268565,309267
653324355972381592,339978,268612,309336
653324355979823568,340087,268567,309349
653324355987265544,340120,268658,309486
653324355994707520,340119,268611,309366
653324356002149496,340304,268626,309436
653324356009591472,340317,268720,309509
653324356017033448,340287,268734,309479
653324356024475424,340317,268741,309560
653324356031917400,340352,268815,309537
653324356039359376,340394,268830,309641
653324356046801352,340376,268841,309665
653324356054243328,340588,268958,309774
653324356061809097,340571,268778,309668
653324356069243792,340577,268876,309713
653324356076678487,340574,268958,309798
653324356084113182,340661,269090,309998
653324356091547877,340825,269113,310004
653324356098982572,340742,269099,310029
653324356106417267,340626,269169,310147
653324356113851962,340729,269234,310151
653324356121286657,340862,269335,310273
653324356128721352,340843,269345,310294
653324356136156047,340953,269345,310265
653324356143590742,341118,269447,310289
653324356151025437,341069,269464,310419
653324356158460132,341167,269506,310428
653324356165894827,341273,269455,310610
653324356173329522,341314,269639,310618
653324356180764217,341330,269716,310706
653324356188198912,341373,269681,310650
653324356195633609,341382,269580,310676
653324356203068304,341483,269697,310827
653324356210502999,341591,269851,311001
653324356217937694,341649,269861,311051
653324356225372389,341750,269979,310956
653324356232807084,341814,270854,311929
653324356240241779,341798,270335,311448
653324356247676474,341798,270219,311152
653324356255111169,341892,270167,311151
653324356262545864,341886,270101,311125
653324356269980559,342121,270164,311359
653324356277415254,342092,270275,311420
653324356284849949,342134,270154,311428
653324356292284644,342062,270272,311489
653324356299719339,342195,270201,311493
653324356307154034,342073,270114,311481
653324356314588729,342030,270080,311485
653324356322023424,342009,270061,311397
653324356329458121,342052,269741,311404
653324356336892816,341958,269772,311231
653324356344327511,341798,269690,311028
653324356351762206,341660,269662,311039
653324356359196901,341689,269583,310874
653324356366631596,341722,269512,310884
653324356374066291,341625,269513,310885
653324356381500986,341410,269403,310767
653324356388935681,341457,269295,310732
653324356396370376,341325,269256,310560
653324356403805071,341309,269146,310643
653324356411239766,341319,269136,310668
653324356418674461,341134,269094,310523
653324356426109156,341096,269113,310389
653324356433543851,341090,268992,310360
653324356440978546,341024,269036,310278
653324356448413241,341066,269046,310267
653324356455847936,340989,268964,310215
653324356463158856,341199,269139,310185
653324356470600832,341022,269096,310214
653324356478042808,340992,268944,310294
653324356485484784,340889,268949,310151
653324356492926760,340854,268931,310249
653324356500368736,340683,268871,310079
653324356507810712,340719,268901,309933
653324356515252688,340678,268883,309996
653324356522694664,340637,268802,310067
653324356530136640,340624,268832,310079
653324356537578616,340679,268749,310003
653324356545020592,340605,268661,310028
653324356552462568,340575,269626,310837
653324356559904544,340579,269163,310508
653324356567346520,340699,269056,310289
653324356574788496,340579,268993,310155
653324356582230472,340545,268662,310532
653324356589672448,340741,268914,310255
653324356597238217,341084,268985,310555
653324356604672912,340994,269071,310360
653324356612107607,341459,269069,310351
653324356619542302,341238,269062,310354
653324356626976997,341090,269047,310388
653324356634411692,341048,269021,310254
653324356641846387,340928,269022,310343
653324356649281082,340820,269071,310327
653324356656715777,340911,269072,310259
653324356664150472,340963,269197,310339
653324356671585167,341079,269099,310283
653324356679019862,340957,269117,310292
653324356686454557,341079,269199,310321
653324356693889252,341144,269164,310362
653324356701323947,341091,269242,310370
653324356708758642,341107,269379,310222
653324356716193337,341145,269321,310458
653324356723628032,341123,269333,310499
653324356731186523,341284,269672,310260
653324356738613936,341236,269454,310377
653324356746041349,341295,269514,310350
653324356753468762,341339,269443,310539
653324356760896175,341288,269514,310609
653324356768323588,341259,269499,310677
653324356775751001,341339,269525,310773
653324356783178414,341392,269451,310648
653324356790605827,341352,269601,310625
653324356798033240,341481,269617,310736
653324356805460653,341531,269638,310572
653324356812888066,341617,269558,310613
653324356820315479,341689,269727,310838
653324356827742892,341698,269795,310879
653324356835170305,341737,269732,310876
653324356842597718,341814,269846,310879
653324356850025131,341792,269969,310828
653324356857452544,341782,270010,310934
653324356864632392,341771,269939,311101
653324356872074368,341765,270830,311802
653324356879516344,341818,270284,311280
653324356886958320,342006,270159,311261
653324356894400296,342082,270181,311147
653324356901842272,342108,270065,311081
653324356909284248,342089,270144,311085
653324356916726224,342236,270242,311171
653324356924168200,342316,270368,311040
653324356931610176,343144,270334,311122
653324356939052152,342759,270342,311121
653324356946494128,342424,270380,311200
653324356953936104,342486,270499,311232
653324356961378080,342571,270512,311316
653324356968820056,342580,270606,311257
653324356976262032,342529,270621,311168
653324356983704008,342600,270650,311257
653324356991145984,342656,270700,311360
653324356998587976,342691,270851,311512
653324357006029952,342822,270847,311422
653324357013471928,342787,270792,311499
653324357020913904,342827,270834,311522
653324357028355880,343000,270860,311550
653324357035797856,343024,270973,311652
653324357043239832,343119,270965,311641
653324357050681808,343180,271096,311641
653324357058123784,343140,271086,311593
653324357065565760,343154,271041,311776
653324357073007736,343264,271180,311859
653324357080449712,343427,271289,311892
653324357087891688,343457,271263,311869
653324357095333664,343457,271425,311853
653324357102775640,343507,271475,311832
653324357110217616,343581,271472,311835
653324357117659592,343642,271517,311947
653324357125101568,343691,271683,312013
653324357132667337,343626,271644,311995
653324357140102032,343752,271645,312062
653324357147536727,343932,271775,312066
653324357154971422,343952,271829,312148
653324357162406117,343997,271739,312239
653324357169840812,343936,271798,312197
653324357177275507,344003,271667,312206
653324357184710202,344063,271735,312297
653324357192144897,343887,272541,312417
653324357199579592,343878,272001,312160
653324357207014287,343884,271650,312155
653324357214448982,343811,271478,312071
653324357221883677,343803,271320,311907
653324357229318372,343612,271244,311735
653324357236753067,343606,271133,311562
653324357244187762,343541,271026,311468
653324357251622457,344300,270972,311317
653324357259057152,343788,270864,311239
653324357266615643,343685,270581,311331
653324357274043056,343315,270635,311196
653324357281470469,343205,270592,311043
653324357288897882,343113,270525,310851
653324357296325295,342944,270546,310875
653324357303752708,342879,270487,310807
653324357311180121,342868,270418,310721
653324357318607534,342928,270394,310754
653324357326034947,342832,270411,310784
653324357333462360,342797,270361,310742
653324357340889773,342666,270292,310731
653324357348317186,342623,270292,310560
653324357355744599,342602,270188,310501
653324357363172012,342619,270095,310532
653324357370599425,342694,270169,310474
653324357378026838,342708,270138,310494
653324357385454251,342473,270043,310432
653324357392881664,342389,270168,310326
653324357400061512,342627,269937,310317
653324357407503488,342406,269873,310213
653324357414945464,342402,269947,310349
653324357422387440,342395,270008,310330
653324357429829416,342363,269957,310164
653324357437271392,342265,270003,310173
653324357444713368,342258,269950,310149
653324357452155344,342333,270016,310317
653324357459597320,342305,270025,310301
653324357467039296,342276,270006,310081
653324357474481272,342241,270028,310296
653324357481923248,342267,269865,310209
