timestamp,ch1,ch2,ch3
653222828435319643,273661,272883,357887
653222828442759344,273659,272766,357839
653222828450199045,273604,272741,357640
653222828457638746,273536,272711,357408
653222828465078447,273525,272684,357406
653222828472518148,273485,272647,357297
653222828479957849,273485,272659,357429
653222828487397550,273415,272556,357091
653222828494837251,273319,272528,357137
653222828502276952,273231,272407,357102
653222828509716653,273337,272411,357068
653222828517156354,273248,272373,357027
653222828524596055,273161,272421,356874
653222828532035756,273068,272388,356764
653222828539475457,273128,272227,356733
653222828546915158,273216,272323,356743
653222828554354859,273023,272253,356580
653222828561794560,273124,272146,356594
653222828569327104,272975,272074,356535
653222828576761344,273000,272156,356666
653222828584195584,273030,272116,356539
653222828591629824,273076,272241,356725
653222828599064064,273156,272191,356773
653222828606498304,273109,272198,356738
653222828613932544,273175,272289,356816
653222828621366784,273246,272226,356829
653222828628801024,273217,272243,356667
653222828636235264,273222,272216,356836
653222828643669504,273164,272211,356736
653222828651103744,273116,272223,356777
653222828658537984,273150,272273,356793
653222828665972224,273257,272261,356823
653222828673406464,273117,272381,356874
653222828680840704,273215,272389,356796
653222828688274944,273164,272292,356795
653222828695709184,273182,272267,356744
653222828703081544,273360,272140,356457
653222828710519424,273155,272254,356721
653222828717957304,273178,272186,356772
653222828725395184,273219,272216,356920
653222828732833064,273229,272288,356954
653222828740270944,273253,272389,356983
653222828747708824,273239,272336,357066
653222828755146704,273285,272338,357037
653222828762584584,273211,272337,357026
653222828770022464,273318,272280,356967
653222828777460344,273414,272351,357091
653222828784898224,273358,272475,357152
653222828792336104,273348,272427,357217
653222828799773984,273320,272510,357163
653222828807211864,273247,272399,357251
653222828814649744,273269,272477,357283
653222828822087624,273434,272449,357344
653222828829525504,273482,272493,357372
653222828836994340,273680,272329,357756
653222828844430400,273597,272403,357497
653222828851866460,273649,272482,357489
653222828859302520,273742,272388,357676
653222828866738580,273760,272507,357769
653222828874174640,273742,272610,357801
653222828881610700,273744,272720,357934
653222828889046760,273730,272765,357914
653222828896482820,273831,272711,357909
653222828903918880,273888,272835,358176
653222828911354940,273855,272848,358225
6.53223E+17,273803,272781,358161
653222828926227060,273768,272865,358240
653222828933663120,273940,272867,358302
653222828941099180,273875,272774,358317
653222828948535240,273892,272818,358418
653222828955971300,273919,272940,358510
653222828963407360,274051,272877,358615
653222828970843428,273847,272783,358642
653222828978279488,273932,272859,358619
653222828985715548,274081,272967,358616
653222828993151608,274098,273090,358615
653222829000587668,274218,273175,358658
653222829008023728,274222,273125,358758
653222829015459788,274308,273015,358847
653222829022895848,274358,273039,359013
653222829030331908,274408,273226,358950
653222829037767968,274403,273136,359114
653222829045204028,274328,273168,359012
653222829052640088,274388,273102,358916
653222829060076148,274370,273069,358978
653222829067512208,274416,273011,358841
653222829074948268,274577,273037,358784
653222829082384328,274344,273004,358660
653222829089820388,274071,272918,358524
653222829097256448,274063,272926,358314
653222829104630619,273877,272955,358268
653222829112070320,273898,272699,358092
653222829119510021,273885,272685,357971
653222829126949722,273863,272731,357861
653222829134389423,273709,272542,357619
653222829141829124,273615,272581,357561
653222829149268825,273570,272465,357443
653222829156708526,273520,272353,357379
653222829164148227,273430,272349,357204
653222829171587928,273383,272348,357198
653222829179027629,273209,272309,357023
653222829186467330,273198,272298,356976
653222829193907031,273226,272223,356956
653222829201346732,273182,272281,356933
653222829208786433,273291,272102,356919
653222829216226134,273175,272027,356849
653222829223665835,273218,272138,356819
653222829231105536,273189,272005,356748
653222829238576200,272873,271897,356438
653222829246014080,272907,271970,356501
653222829253451960,272969,272030,356539
653222829260889840,273011,272221,356549
653222829268327720,273051,272122,356580
653222829275765600,272957,272053,356478
653222829283203480,273066,272195,356368
653222829290641360,273042,271998,356396
653222829298079240,273023,271868,356388
653222829305517120,273069,271857,356487
6.53223E+17,273036,271893,356578
653222829320392880,273011,271960,356513
653222829327830760,273026,271914,356525
653222829335268640,273098,271842,356654
653222829342706520,273065,271863,356627
653222829350144400,273072,271935,356617
653222829357582280,273085,271925,356619
653222829365020160,273018,271981,356592
653222829372488996,272968,271734,356750
653222829379925056,273071,271929,356687
653222829387361116,273093,271959,356719
653222829394797176,273143,271950,356686
653222829402233236,273129,271996,356685
653222829409669296,273082,271939,356614
653222829417105356,273131,271949,356526
653222829424541416,273160,271961,356717
653222829431977476,273059,271959,356722
653222829439413536,273114,272004,356676
653222829446849596,273173,271940,356846
653222829454285656,273214,271998,356858
653222829461721716,273207,271961,356851
653222829469157776,273174,272085,356979
653222829476593836,273196,272029,357116
653222829484029896,273231,272017,357063
653222829491465956,273223,272055,356989
653222829498902016,273369,272054,357119
653222829506307144,273593,272220,356954
653222829513745024,273518,272160,357066
653222829521182904,273315,272063,357175
653222829528620784,273326,272057,357316
653222829536058664,273406,272095,357372
653222829543496544,273365,272072,357427
653222829550934424,273381,272078,357411
653222829558372304,273483,272155,357461
653222829565810184,273427,272142,357536
653222829573248064,273517,272177,357602
653222829580685944,273592,272284,357692
653222829588123824,273607,272153,357792
653222829595561704,273568,272247,357853
653222829602999584,273684,272261,357900
653222829610437464,273723,272411,357854
653222829617875344,273757,272474,358020
653222829625313224,273786,272527,358152
653222829632751104,273849,272632,358225
653222829640219940,273676,272334,358291
6.53223E+17,273765,272451,358156
653222829655092060,273756,272494,358221
653222829662528120,273915,272484,358382
653222829669964180,273837,272501,358483
653222829677400240,273926,272566,358536
653222829684836300,273986,272597,358575
653222829692272360,274121,272626,358690
653222829699708420,274174,272669,358735
653222829707144480,274292,272805,358793
653222829714580540,274322,272837,358784
653222829722016600,274426,272807,358841
653222829729452660,274399,272802,358921
653222829736888720,274357,272785,358858
653222829744324780,274265,272792,358943
653222829751760840,274174,272700,358852
653222829759196900,274214,272722,358863
653222829766632960,274157,272742,358777
653222829774038088,274197,272736,358436
653222829781475968,274051,272615,358304
653222829788913848,273910,272568,358325
653222829796351728,273947,272423,358154
653222829803789608,273946,272525,358104
653222829811227488,273833,272391,358008
653222829818665368,273687,272391,357836
653222829826103248,273677,272323,357668
653222829833541128,273593,272204,357545
653222829840979008,273517,272152,357387
653222829848416888,273496,272107,357354
653222829855854768,273347,272095,357141
653222829863292648,273250,271923,356981
653222829870730528,273157,271859,356746
653222829878168408,273114,271870,356710
653222829885606288,273188,271716,356630
653222829893044168,273111,271739,356472
653222829900482048,272941,271691,356376
653222829907950884,273176,271667,356479
653222829915386944,272959,271661,356242
653222829922823004,272939,271568,356186
653222829930259064,272853,271551,356244
653222829937695124,272792,271447,356065
653222829945131184,272759,271522,356070
653222829952567244,272720,271406,355998
653222829960003304,272648,271389,356036
653222829967439364,272701,271455,355932
653222829974875424,272680,271352,355961
653222829982311484,272618,271267,355868
653222829989747544,272615,271216,355925
653222829997183604,272588,271276,355891
653222830004619664,272519,271225,355864
653222830012055724,272476,271201,355787
653222830019491784,272467,271185,355747
653222830026927844,272440,271182,355715
653222830034363904,272548,271175,355783
653222830041830912,272616,271231,355959
653222830049265152,272634,271206,355992
653222830056699392,272636,271163,356050
653222830064133632,272574,271154,355999
653222830071567872,272564,271215,355930
653222830079002112,272627,271229,355952
653222830086436352,272616,271274,355929
653222830093870592,272582,271226,355995
653222830101304832,272517,271149,355958
653222830108739072,272569,271098,355784
653222830116173312,272577,270981,355858
653222830123607552,272537,271037,355897
653222830131041792,272561,271050,355895
653222830138476032,272569,271108,355982
653222830145910272,272567,271154,355923
653222830153344512,272616,271123,355967
653222830160778752,272654,271143,355917
653222830168212992,272608,271171,356050
653222830175554395,272778,271146,356180
653222830182994096,272786,271072,356310
653222830190433797,272671,271100,356323
653222830197873498,272716,271160,356279
653222830205313199,272695,271299,356333
653222830212752900,272681,271269,356190
653222830220192601,272737,271302,356351
653222830227632302,272820,271384,356515
653222830235072003,272869,271415,356515
653222830242511704,272874,271434,356526
653222830249951405,272788,271401,356614
653222830257391106,272865,271465,356659
653222830264830807,272912,271457,356780
653222830272270508,272948,271419,356762
653222830279710209,273008,271516,356828
653222830287149910,272909,271431,356695
653222830294589611,272980,271290,356874
653222830302029312,273086,271382,356890
653222830309561856,273305,271168,357144
653222830316996096,273258,271426,357197
653222830324430336,273218,271489,357187
653222830331864576,273235,271598,357269
653222830339298816,273239,271605,357443
653222830346733056,273296,271735,357410
653222830354167296,273279,271743,357527
653222830361601536,273328,271630,357571
653222830369035776,273451,271743,357436
653222830376470016,273421,271822,357617
653222830383904256,273468,271704,357649
653222830391338496,273523,271866,357780
653222830398772736,273457,271809,357851
653222830406206976,273546,271809,357883
653222830413641216,273554,271888,357946
653222830421075456,273590,271903,358039
653222830428509696,273752,271905,358142
653222830435943936,273741,271974,358217
653222830443316296,273801,272314,358395
653222830450754176,273891,272225,358363
653222830458192056,273821,272164,358344
653222830465629936,273778,272058,358386
653222830473067816,273928,272047,358353
653222830480505696,273769,271971,358239
653222830487943576,273821,272056,358112
653222830495381456,273792,272024,358042
653222830502819336,273617,271890,357837
653222830510257216,273598,271893,357719
653222830517695096,273474,271744,357451
653222830525132976,273484,271629,357406
653222830532570856,273428,271688,357258
653222830540008736,273335,271600,357163
653222830547446616,273198,271525,357040
653222830554884496,273076,271434,356902
653222830562322376,272969,271454,356697
653222830569760256,272841,271382,356575
653222830577198152,272882,271039,356376
653222830584636032,272703,271018,356267
653222830592073912,272731,270974,356128
653222830599511792,272652,270961,356194
653222830606949672,272545,270956,356038
653222830614387552,272491,270978,355931
653222830621825432,272493,270813,355877
653222830629263312,272429,270738,355764
653222830636701192,272500,270757,355537
653222830644139072,272352,270592,355489
653222830651576952,272297,270613,355374
653222830659014832,272267,270683,355216
653222830666452712,272101,270631,355392
653222830673890592,272152,270568,355363
653222830681328472,272127,270469,355228
653222830688766352,272092,270550,355148
653222830696204232,272229,270483,355215
653222830703642112,272072,270410,355253
653222830711141888,271950,270481,355106
653222830718576128,272045,270412,355255
653222830726010368,272134,270231,355225
653222830733444608,272116,270220,355193
653222830740878848,272025,270355,355191
653222830748313088,271963,270267,355187
653222830755747328,271898,270270,355026
653222830763181568,271957,270285,355067
653222830770615808,272053,270343,355146
653222830778050048,272015,270258,355204
653222830785484288,271943,270264,355222
653222830792918528,271930,270156,355255
653222830800352768,272004,270298,355162
653222830807787008,272032,270163,355136
653222830815221248,271983,270218,355226
653222830822655488,271936,270170,355058
653222830830089728,271842,270212,355051
653222830837523968,271900,270168,355159
653222830844865371,271903,269979,355447
653222830852305072,271931,270079,355151
653222830859744773,271913,270117,355194
653222830867184474,271973,270073,355280
653222830874624175,271925,270125,355224
653222830882063876,271993,270192,355400
653222830889503577,271931,270239,355271
653222830896943278,272048,270240,355363
653222830904382979,271998,270321,355425
653222830911822680,271966,270229,355438
653222830919262381,272050,270331,355690
653222830926702082,272142,270373,355597
653222830934141783,272141,270377,355587
653222830941581484,272193,270449,355646
653222830949021185,272237,270499,355642
653222830956460886,272280,270428,355674
653222830963900587,272235,270483,355738
653222830971340288,272245,270478,355789
653222830978872832,272445,270293,356156
653222830986307072,272440,270419,356125
653222830993741312,272496,270500,356121
653222831001175552,272482,270558,356077
653222831008609792,272541,270543,356111
653222831016044032,272551,270556,356220
653222831023478272,272599,270616,356235
653222831030912512,272548,270629,356359
653222831038346752,272527,270720,356288
653222831045780992,272616,270808,356449
653222831053215232,272595,270703,356465
653222831060649472,272654,270760,356614
653222831068083712,272672,270846,356575
653222831075517952,272784,270835,356612
653222831082952192,272750,270886,356763
653222831090386432,272720,270960,356684
653222831097820672,272837,270898,356847
653222831105254912,272973,270942,356837
653222831112596315,272871,271004,357209
653222831120036016,273004,270999,357147
653222831127475717,272996,271022,357200
653222831134915418,273103,271141,357153
653222831142355119,273081,271116,357254
653222831149794820,273113,271135,357400
653222831157234521,273190,271168,357339
653222831164674222,273310,271239,357341
653222831172113923,273246,271110,357498
653222831179553624,273344,271352,357529
653222831186993325,273392,271315,357649
653222831194433026,273399,271332,357621
653222831201872727,273407,271276,357770
653222831209312428,273398,271367,357788
653222831216752129,273358,271426,357842
653222831224191830,273569,271386,357829
653222831231631531,273480,271363,357786
653222831239071232,273432,271310,357623
653222831246603776,273221,271515,357459
653222831254038016,273199,271325,357400
653222831261472256,273217,271244,357222
653222831268906496,273196,271169,357257
653222831276340736,273092,271147,356950
653222831283774976,272996,271005,356856
653222831291209216,272982,270977,356594
653222831298643456,272827,270897,356566
653222831306077696,272781,270693,356483
653222831313511936,272736,270774,356224
653222831320946176,272567,270631,356199
653222831328380416,272465,270585,356095
653222831335814656,272449,270509,356097
653222831343248896,272371,270539,355935
653222831350683136,272306,270448,355828
653222831358117376,272241,270432,355749
653222831365551616,272112,270151,355639
653222831372985856,272126,270153,355523
653222831380327259,272037,270296,355642
653222831387766960,272089,270219,355456
653222831395206661,272061,270095,355301
653222831402646362,271974,270076,355241
653222831410086063,271973,270111,355155
653222831417525764,272051,270065,355138
653222831424965465,271858,270078,355180
653222831432405166,271884,270093,354939
653222831439844867,271853,269977,354968
653222831447284568,271881,270008,355039
653222831454724269,271930,269915,354991
653222831462163970,271867,269977,354986
653222831469603671,271880,270063,354944
653222831477043372,271801,269890,354940
653222831484483073,271793,269915,354939
653222831491922774,271854,269946,354834
653222831499362475,271812,269985,354987
653222831506802176,271839,269863,354969
653222831514272840,271623,270110,354845
653222831521710720,271624,269926,354809
653222831529148600,271683,269991,354931
653222831536586480,271717,269945,354955
653222831544024360,271776,269916,354960
653222831551462240,271709,269913,354951
653222831558900120,271817,269945,355045
6.53223E+17,271854,269905,355056
653222831573775880,271792,269834,354998
653222831581213760,271778,269857,354999
653222831588651640,271764,269933,355016
653222831596089520,271825,269863,354953
653222831603527400,271957,270005,355107
653222831610965280,271892,269956,355147
653222831618403160,271916,269991,355182
653222831625841040,271917,270034,355278
653222831633278920,271960,270018,355287
653222831640716800,271960,270003,355283
653222831648154696,271895,270232,355211
653222831655592576,271866,270045,355132
653222831663030456,271952,270000,355266
653222831670468336,271996,270027,355366
653222831677906216,272029,270006,355443
653222831685344096,272018,270032,355567
653222831692781976,272016,270125,355537
653222831700219856,272116,270184,355570
653222831707657736,272095,270230,355489
653222831715095616,272031,270344,355662
653222831722533496,272154,270178,355671
653222831729971376,272194,270223,355844
653222831737409256,272288,270242,355874
653222831744847136,272365,270232,355907
653222831752285016,272378,270362,355929
653222831759722896,272422,270297,355970
653222831767160776,272291,270362,356039
653222831774598656,272445,270386,356061
653222831782098432,272822,270744,356021
653222831789532672,272629,270592,356224
653222831796966912,272570,270535,356375
653222831804401152,272613,270466,356431
653222831811835392,272665,270534,356350
653222831819269632,272713,270679,356560
653222831826703872,272748,270639,356687
653222831834138112,272764,270626,356740
653222831841572352,272770,270692,356835
653222831849006592,272856,270718,356846
653222831856440832,272899,270638,356838
653222831863875072,272878,270604,356843
653222831871309312,272963,270663,357026
653222831878743552,272988,270853,357070
653222831886177792,273078,270937,357063
653222831893612032,273112,271062,357188
653222831901046272,273166,270963,357283
653222831908480512,273181,271071,357376
653222831915821915,273475,271201,357167
653222831923261616,273359,271186,357269
653222831930701317,273349,271186,357516
653222831938141018,273321,271171,357604
653222831945580719,273255,271045,357595
653222831953020420,273313,271094,357698
653222831960460121,273221,271127,357686
653222831967899822,273266,271187,357631
653222831975339523,273150,271216,357535
653222831982779224,273172,271153,357300
653222831990218925,273196,271068,357157
653222831997658626,273062,271007,357196
653222832005098327,273065,270904,357170
653222832012538028,272988,270884,356918
653222832019977729,272893,270731,356854
653222832027417430,272839,270684,356782
653222832034857131,272716,270752,356568
653222832042296832,272741,270553,356516
653222832049829376,272372,270588,356047
653222832057263616,272389,270471,356124
653222832064697856,272374,270333,355993
653222832072132096,272308,270300,355867
653222832079566336,272272,270229,355728
653222832087000576,272294,270309,355722
653222832094434816,272182,270257,355592
653222832101869056,272186,270172,355605
653222832109303296,272173,270024,355566
653222832116737536,272102,270050,355543
653222832124171776,272063,270004,355391
653222832131606016,272004,270016,355429
653222832139040256,272036,269986,355397
653222832146474496,272057,269924,355275
653222832153908736,271873,269915,355160
653222832161342976,271867,269897,355142
653222832168777216,271806,269982,355194
653222832176211456,271874,269861,355235
653222832183560594,272088,269884,355357
653222832190999840,271985,269892,355315
653222832198439086,271938,269877,355235
653222832205878332,271931,269915,355111
653222832213317578,271784,269903,355076
653222832220756824,271785,269860,355201
653222832228196070,271831,269822,355194
653222832235635316,271885,269807,355116
653222832243074562,271899,269710,355141
653222832250513808,271908,269793,355111
653222832257953054,271728,269834,355168
653222832265392300,271877,269900,355333
653222832272831546,271888,269880,355276
653222832280270792,271854,269896,355311
653222832287710038,271881,269912,355243
653222832295149284,271881,269916,355256
653222832302588530,271805,269874,355165
653222832310027776,271881,269950,355193
653222832317482496,271929,269562,355613
653222832324920832,271911,269756,355456
653222832332359168,271994,269889,355417
653222832339797504,271986,269827,355429
653222832347235840,271951,269908,355532
653222832354674176,271997,270051,355571
653222832362112512,271996,270017,355560
653222832369550848,271983,269954,355631
653222832376989184,271970,269963,355578
653222832384427520,271920,270058,355665
653222832391865856,272000,270089,355713
653222832399304192,272061,270005,355623
653222832406742528,272083,270044,355713
653222832414180864,272188,270009,355831
653222832421619200,272142,270031,355859
653222832429057536,272221,270162,355812
653222832436495872,272230,270151,355873
653222832443934208,272268,270097,355984
653222832451418971,272482,269902,356053
653222832458854576,272436,270084,356203
653222832466290181,272380,270210,356333
653222832473725786,272407,270262,356392
653222832481161391,272455,270272,356432
653222832488596996,272517,270193,356508
653222832496032601,272530,270310,356469
653222832503468206,272530,270424,356592
653222832510903811,272578,270366,356606
653222832518339416,272601,270401,356613
653222832525775021,272612,270415,356671
653222832533210626,272679,270492,356761
653222832540646231,272746,270581,356898
653222832548081836,272697,270680,356859
653222832555517441,272786,270668,356972
653222832562953046,272834,270592,357008
653222832570388651,272861,270651,357094
653222832577824256,272890,270684,357121
653222832585213440,273236,270686,356957
653222832592651776,273073,270652,357140
653222832600090112,273041,270646,357241
653222832607528448,273003,270853,357426
653222832614966784,273028,270845,357501
653222832622405120,273074,270963,357657
653222832629843456,273158,270997,357644
653222832637281792,273248,271006,357666
653222832644720128,273225,271072,357815
653222832652158464,273277,271020,357791
653222832659596800,273293,271030,357900
653222832667035136,273265,271092,357991
653222832674473472,273301,270946,358048
653222832681911808,273363,271128,358027
653222832689350144,273309,270990,357964
653222832696788480,273389,271060,357899
653222832704226816,273257,271033,357772
653222832711665152,273173,271007,357547
653222832719180872,273213,270978,357288
653222832726614656,272995,270916,357459
653222832734048440,272865,270855,357183
653222832741482224,272738,270811,357142
653222832748916008,272748,270745,357109
653222832756349792,272778,270761,356888
653222832763783576,272697,270443,356725
653222832771217360,272621,270424,356750
653222832778651144,272469,270382,356472
653222832786084928,272527,270431,356309
653222832793518712,272413,270383,356213
653222832800952496,272269,270311,356232
653222832808386280,272226,270192,356031
653222832815820064,272098,270203,356011
653222832823253848,272069,270043,356024
653222832830687632,271968,270073,355768
653222832838121416,272015,269918,355788
653222832845555200,272068,269975,355734
653222832852911616,272329,270232,355384
653222832860349952,272101,270009,355498
653222832867788288,272118,269911,355549
653222832875226624,271910,269942,355535
653222832882664960,271933,269882,355582
653222832890103296,271818,269786,355478
653222832897541632,271850,269778,355383
653222832904979968,271816,269803,355476
653222832912418304,271737,269786,355259
653222832919856640,271746,269649,355299
653222832927294976,271800,269797,355328
653222832934733312,271810,269845,355292
653222832942171648,271809,269870,355449
653222832949609984,271763,269773,355477
653222832957048320,271763,269777,355423
653222832964486656,271767,269848,355529
653222832971924992,271744,269770,355473
653222832979363328,271886,269795,355320
653222832986817151,271903,269596,355622
653222832994254576,271842,269608,355533
653222833001692001,271839,269854,355548
653222833009129426,271812,269765,355446
653222833016566851,271769,269763,355181
653222833024004276,271728,269772,355221
653222833031441701,271837,269773,355323
653222833038879126,271802,269865,355484
653222833046316551,271869,269855,355531
653222833053753976,271902,269788,355442
653222833061191401,271940,269877,355503
653222833068628826,271895,269880,355635
653222833076066251,271854,269955,355622
653222833083503676,271923,269892,355622
653222833090941101,271981,269928,355696
653222833098378526,271978,269976,355554
653222833105815951,272018,270032,355773
653222833113253376,271954,269906,355708
653222833120644388,272123,270159,355586
653222833128084544,271971,270017,355638
653222833135524700,272052,269920,355799
653222833142964856,272130,270029,355864
653222833150405012,272144,269918,355757
653222833157845168,272131,269986,355880
653222833165285324,272100,270006,356007
653222833172725480,272118,270131,356162
653222833180165636,272220,270122,356214
653222833187605792,272122,270191,356236
653222833195045948,272242,270211,356270
653222833202486104,272258,270249,356288
653222833209926260,272371,270207,356232
653222833217366416,272408,270241,356405
653222833224806572,272423,270287,356338
653222833232246728,272324,270316,356420
653222833239686884,272373,270348,356611
653222833247127040,272396,270421,356757
653222833254675528,272235,270379,356574
653222833262109312,272445,270433,356761
653222833269543096,272544,270469,356931
653222833276976880,272576,270453,356990
653222833284410664,272571,270526,357019
653222833291844448,272608,270525,357019
653222833299278232,272866,270584,357275
653222833306712016,272765,270553,357190
653222833314145800,272822,270585,357291
653222833321579584,272858,270686,357477
653222833329013368,272950,270714,357433
653222833336447152,272984,270852,357467
653222833343880936,272983,270850,357621
653222833351314720,273058,270897,357700
653222833358748504,273123,270879,357685
653222833366182288,273108,270992,357794
653222833373616072,273026,270993,357912
653222833381049856,273211,271090,357986
653222833388375332,273574,270925,357746
653222833395815488,273449,270998,357971
653222833403255644,273460,271111,358026
653222833410695800,273368,271083,358108
653222833418135956,273312,271255,358135
653222833425576112,273448,271119,358120
653222833433016268,273242,271155,358100
653222833440456424,273263,271056,357866
653222833447896580,273214,271161,357777
653222833455336736,273201,271017,357637
653222833462776892,273060,271004,357592
653222833470217048,273011,270863,357410
653222833477657204,273007,270876,357153
653222833485097360,272937,270864,357070
653222833492537516,272822,270652,356981
653222833499977672,272699,270615,356848
653222833507417828,272649,270587,356806
653222833514857984,272590,270514,356615
653222833522406472,272506,270509,356148
653222833529840256,272417,270420,356207
653222833537274040,272423,270329,356211
653222833544707824,272254,270209,356068
653222833552141608,272240,270203,355933
653222833559575392,272110,270207,355745
653222833567009176,272048,270142,355621
653222833574442960,272083,270059,355605
653222833581876744,271966,270049,355617
653222833589310528,271946,270002,355587
653222833596744312,271856,269968,355472
653222833604178096,271826,269870,355415
653222833611611880,271861,269888,355399
653222833619045664,271696,270009,355298
653222833626479448,271758,269889,355276
653222833633913232,271726,269818,355175
653222833641347016,271682,269839,355200
653222833648780800,271700,269798,355165
653222833656106276,271837,269646,355311
653222833663546432,271760,269675,355247
653222833670986588,271706,269776,355242
653222833678426744,271727,269738,355188
653222833685866900,271712,269767,355058
653222833693307056,271664,269698,355097
653222833700747212,271645,269745,354937
653222833708187368,271648,269685,355177
653222833715627524,271699,269666,355136
653222833723067680,271660,269817,355148
653222833730507836,271689,269679,355150
653222833737947992,271678,269758,355026
653222833745388148,271718,269849,355113
653222833752828304,271737,269840,355121
653222833760268460,271712,269801,355204
653222833767708616,271621,269710,355164
653222833775148772,271696,269703,355228
653222833782588928,271669,269644,355161
653222833790075519,271910,269680,355166
653222833797512944,271822,269613,355122
653222833804950369,271779,269756,355252
653222833812387794,271801,269767,355267
653222833819825219,271759,269751,355264
653222833827262644,271816,269795,355298
653222833834700069,271703,269787,355383
653222833842137494,271818,269872,355388
653222833849574919,271815,269871,355374
653222833857012344,271765,269878,355435
653222833864449769,271830,269875,355459
653222833871887194,271790,269861,355390
653222833879324619,271820,269993,355593
653222833886762044,271938,270004,355640
653222833894199469,271908,269977,355655
653222833901636894,272086,270004,355690
653222833909074319,272011,270057,355634
653222833916511744,271998,270053,355647
653222833923964653,272310,269930,355469
653222833931401168,272233,269989,355851
653222833938837683,272182,270129,355928
653222833946274198,272206,270152,355925
653222833953710713,272188,270171,356128
653222833961147228,272410,270095,356184
653222833968583743,272352,270252,356242
653222833976020258,272321,270173,356272
653222833983456773,272369,270142,356318
653222833990893288,272449,270323,356378
653222833998329803,272445,270342,356477
653222834005766318,272524,270323,356543
653222834013202833,272541,270355,356641
653222834020639348,272568,270506,356667
653222834028075863,272639,270577,356875
653222834035512378,272511,270512,356808
653222834042948893,272571,270637,357041
653222834050385408,272781,270548,357074
653222834057837403,272898,270914,357183
653222834065273008,272788,270854,357106
653222834072708613,272769,270857,357133
653222834080144218,272720,270878,357238
653222834087579823,272742,270882,357230
653222834095015428,272833,270903,357286
653222834102451033,272939,270893,357444
653222834109886638,273010,270857,357479
653222834117322243,273005,270991,357655
653222834124757848,273151,271018,357745
653222834132193453,273200,271059,357688
653222834139629058,273149,271061,357865
653222834147064663,273301,271107,357943
653222834154500268,273347,271110,357926
653222834161935873,273296,271185,357980
653222834169371478,273303,271104,357889
653222834176807083,273269,271215,357814
653222834184242688,273193,271143,357735
653222834191647359,273149,270909,357634
653222834199084784,273059,270944,357550
653222834206522209,272868,270970,357358
653222834213959634,272888,270983,357178
653222834221397059,272767,270919,357109
653222834228834484,272785,270864,356965
653222834236271909,272749,270781,356787
653222834243709334,272666,270702,356514
653222834251146759,272642,270575,356529
653222834258584184,272422,270514,356387
653222834266021609,272448,270457,356245
653222834273459034,272322,270400,356117
653222834280896459,272227,270393,355955
653222834288333884,272260,270376,355988
653222834295771309,272229,270377,355746
653222834303208734,272199,270232,355788
653222834310646159,272125,270211,355600
653222834318083584,271988,270031,355502
653222834325536493,272260,270170,355482
653222834332973008,272182,270156,355390
653222834340409523,272047,270048,355404
653222834347846038,271952,270101,355284
653222834355282553,271893,269931,355261
653222834362719068,271734,270037,355193
653222834370155583,271803,269970,355061
653222834377592098,271761,269967,355152
653222834385028613,271805,270058,355045
653222834392465128,271746,270092,354985
653222834399901643,271776,269917,355022
653222834407338158,271762,269945,355080
653222834414774673,271768,269947,354962
653222834422211188,271777,269981,355089
653222834429647703,271764,270044,355014
653222834437084218,271744,269775,355000
653222834444520733,271768,269905,354985
653222834451957248,271772,270009,354992
653222834459393773,272001,270093,355296
653222834466830288,271869,270109,355275
653222834474266803,271810,270093,355229
653222834481703318,271858,269918,355084
653222834489139833,271888,269940,355107
653222834496576348,271851,269963,355080
653222834504012863,271798,270078,355129
653222834511449378,271803,269993,355192
653222834518885893,271802,269973,355188
653222834526322408,271801,269890,355122
653222834533758923,271797,270001,355199
653222834541195438,271823,270049,355264
653222834548631953,271826,270053,355318
653222834556068468,271796,270000,355398
653222834563504983,271808,269958,355315
653222834570941498,271933,270082,355231
653222834578378013,271902,270140,355289
653222834585814528,271881,270154,355353
653222834593235583,271854,270283,355407
653222834600673008,271985,270188,355476
653222834608110433,272081,270155,355414
653222834615547858,272176,270225,355601
653222834622985283,272106,270177,355583
653222834630422708,272163,270227,355703
653222834637860133,272117,270222,355699
653222834645297558,272110,270358,355813
653222834652734983,272155,270272,355782
653222834660172408,272309,270400,355841
653222834667609833,272266,270440,356018
653222834675047258,272262,270423,356027
653222834682484683,272306,270482,355979
653222834689922108,272358,270465,356114
653222834697359533,272410,270528,356157
653222834704796958,272434,270648,356160
653222834712234383,272411,270515,356169
653222834719671808,272507,270605,356283
653222834727155657,272642,270292,356259
653222834734590352,272602,270452,356391
653222834742025047,272617,270595,356449
653222834749459742,272730,270619,356569
653222834756894437,272803,270834,356680
653222834764329132,272772,270952,356731
653222834771763827,272687,270857,356646
653222834779198522,272801,270846,356824
653222834786633217,272762,271033,356908
653222834794067912,272819,271062,356952
653222834801502607,272887,271027,356991
653222834808937302,272894,270962,357159
653222834816371997,273017,271187,357254
653222834823806692,273032,271150,357330
653222834831241387,273070,271254,357481
653222834838676082,273140,271235,357537
653222834846110777,273214,271308,357650
653222834853545472,273211,271348,357638
653222834860964699,273130,271539,357372
653222834868400304,273301,271496,357619
653222834875835909,273353,271519,357718
653222834883271514,273448,271576,357937
653222834890707119,273440,271575,357993
653222834898142724,273536,271635,358115
653222834905578329,273508,271522,358127
653222834913013934,273494,271561,358045
653222834920449539,273533,271615,358064
653222834927885144,273509,271690,358073
653222834935320749,273461,271580,357956
653222834942756354,273401,271546,357791
653222834950191959,273305,271456,357745
653222834957627564,273386,271384,357657
653222834965063169,273395,271355,357555
653222834972498774,273295,271238,357485
653222834979934379,273124,271312,357332
653222834987369984,273012,271312,357137
653222834994790125,273370,271420,356729
653222835002226640,273057,271192,356800
653222835009663155,272895,271109,356735
653222835017099670,272829,271115,356751
653222835024536185,272758,271031,356694
653222835031972700,272804,271098,356648
653222835039409215,272605,270971,356362
653222835046845730,272635,270889,356335
653222835054282245,272616,270888,356230
653222835061718760,272562,270805,356185
653222835069155275,272421,270773,356087
653222835076591790,272447,270811,356048
653222835084028305,272291,270827,355949
653222835091464820,272375,270732,355961
653222835098901335,272301,270743,355827
653222835106337850,272326,270579,355859
653222835113774365,272328,270687,355894
653222835121210880,272223,270706,355836
653222835128600978,272312,270474,355566
653222835136040224,272356,270597,355573
653222835143479470,272251,270586,355734
653222835150918716,272170,270569,355763
653222835158357962,272371,270643,355861
653222835165797208,272349,270640,355764
653222835173236454,272229,270654,355679
653222835180675700,272300,270689,355751
653222835188114946,272345,270683,355663
653222835195554192,272419,270680,355793
653222835202993438,272358,270739,355875
653222835210432684,272373,270798,355969
653222835217871930,272398,270725,355944
653222835225311176,272260,270667,355844
653222835232750422,272304,270634,355869
653222835240189668,272411,270688,355911
653222835247628914,272326,270808,356016
653222835255068160,272448,270692,356028
653222835262553837,272637,270766,355644
653222835269990352,272541,270575,356000
653222835277426867,272467,270664,356065
653222835284863382,272436,270696,356085
653222835292299897,272429,270701,356140
653222835299736412,272455,270722,356075
653222835307172927,272417,270732,356130
653222835314609442,272491,270785,356138
653222835322045957,272462,270680,356132
653222835329482472,272477,270717,356250
653222835336918987,272566,270800,356252
653222835344355502,272444,270773,356270
653222835351792017,272632,270834,356309
653222835359228532,272583,270995,356251
653222835366665047,272636,270930,356408
653222835374101562,272668,270919,356462
653222835381538077,272714,271011,356595
653222835388974592,272764,271007,356516
653222835396395647,272941,271209,356692
653222835403833072,272915,271119,356735
653222835411270497,272944,271084,356743
653222835418707922,272923,271148,356832
653222835426145347,272894,271189,356838
653222835433582772,272731,271175,356782
653222835441020197,272717,271236,356988
653222835448457622,272874,271196,357035
653222835455895047,272954,271251,357157
653222835463332472,272944,271337,357081
653222835470769897,272963,271234,357184
653222835478207322,273170,271249,357195
653222835485644747,273174,271336,357325
653222835493082172,273142,271274,357410
653222835500519597,273105,271403,357551
653222835507957022,273209,271402,357635
653222835515394447,273264,271583,357740
653222835522831872,273366,271517,357784
653222835530284781,273104,271439,358036
653222835537721296,273174,271503,357934
653222835545157811,273393,271551,357992
653222835552594326,273445,271656,358049
653222835560030841,273449,271650,358136
653222835567467356,273563,271738,358155
653222835574903871,273484,271912,358265
653222835582340386,273634,271890,358309
653222835589776901,273695,271859,358303
653222835597213416,273759,271883,358343
653222835604649931,273813,272013,358408
653222835612086446,273801,272020,358504
653222835619522961,273958,272106,358546
653222835626959476,273839,272079,358688
653222835634395991,273909,272053,358610
653222835641832506,273785,272049,358660
653222835649269021,273867,271974,358592
653222835656705536,273806,272030,358523
653222835664157531,273785,271678,358502
653222835671593136,273752,271796,358408
653222835679028741,273670,271792,358211
653222835686464346,273572,271745,358016
653222835693899951,273567,271712,357959
653222835701335556,273595,271827,357986
653222835708771161,273465,271785,357892
653222835716206766,273318,271695,357742
653222835723642371,273277,271591,357587
653222835731077976,273279,271468,357462
653222835738513581,273166,271414,357313
653222835745949186,273083,271311,357237
653222835753384791,272986,271277,357071
653222835760820396,272926,271204,356893
653222835768256001,272996,271237,356884
653222835775691606,272887,271108,356812
653222835783127211,272887,271137,356824
653222835790562816,272988,271232,356754
6.53223E+17,272803,271423,356391
653222835805390336,272863,271112,356513
653222835812828672,272851,271081,356529
653222835820267008,272782,270975,356556
653222835827705344,272789,271055,356516
653222835835143680,272770,271116,356408
653222835842582016,272717,271117,356518
653222835850020352,272562,271001,356336
653222835857458688,272634,271091,356465
653222835864897024,272530,271055,356359
653222835872335360,272656,270937,356365
653222835879773696,272627,270957,356390
653222835887212032,272502,270963,356360
653222835894650368,272564,270907,356418
653222835902088704,272601,270965,356420
653222835909527040,272586,270938,356402
653222835916965376,272656,270938,356443
653222835924403712,272633,270947,356372
653222835931888475,272821,271095,356227
653222835939324080,272742,271004,356410
653222835946759685,272628,270998,356500
653222835954195290,272707,271057,356596
653222835961630895,272694,271001,356660
653222835969066500,272757,271124,356684
653222835976502105,272749,271013,356672
653222835983937710,272622,270992,356631
653222835991373315,272667,271003,356525
653222835998808920,272625,271007,356609
653222836006244525,272698,270914,356581
653222836013680130,272901,270953,356548
653222836021115735,272800,270920,356736
653222836028551340,272778,271042,356725
653222836035986945,272776,270971,356829
653222836043422550,272686,271001,356750
653222836050858155,272758,271027,356904
653222836058293760,272683,271083,356806
653222836065682944,272873,271048,356553
653222836073121280,272867,271161,356776
653222836080559616,272982,271225,356908
653222836087997952,273060,271290,356984
653222836095436288,272989,271181,357120
653222836102874624,272970,271272,357156
653222836110312960,273040,271280,357171
653222836117751296,273018,271213,357237
653222836125189632,273017,271280,357291
653222836132627968,272990,271422,357266
653222836140066304,273065,271388,357394
653222836147504640,273100,271464,357501
653222836154942976,273184,271487,357408
653222836162381312,273225,271422,357572
653222836169819648,273255,271510,357619
653222836177257984,273210,271431,357736
653222836184696320,273313,271457,357832
653222836192134656,273415,271597,357905
653222836199650376,273593,271666,358090
653222836207084160,273564,271676,358048
653222836214517944,273505,271741,358093
653222836221951728,273509,271823,358091
653222836229385512,273577,271755,358213
653222836236819296,273472,271792,358113
653222836244253080,273570,271845,358181
653222836251686864,273568,271706,358139
653222836259120648,273603,271775,358319
653222836266554432,273588,271779,358383
653222836273988216,273680,271923,358511
6.53223E+17,273705,271830,358662
653222836288855784,273808,271944,358751
653222836296289568,273952,272034,358856
653222836303723352,273928,272039,358846
653222836311157136,273983,272196,359008
653222836318590920,274040,272251,359022
653222836326024704,274143,272330,359211
653222836333381120,274322,272515,359005
653222836340819456,274192,272363,359186
653222836348257792,274134,272331,359238
653222836355696128,274181,272306,359297
653222836363134464,274211,272252,359387
653222836370572800,274243,272277,359385
653222836378011136,274195,272287,359306
653222836385449472,274256,272335,359290
653222836392887808,274211,272199,359239
653222836400326144,274120,272226,358968
653222836407764480,274029,272219,358881
653222836415202816,274012,272032,358848
653222836422641152,273930,272136,358632
653222836430079488,273764,271929,358518
653222836437517824,273728,271887,358302
653222836444956160,273755,271923,358071
653222836452394496,273649,271826,358037
653222836459832832,273569,271778,358051
653222836467348552,273684,271557,358163
653222836474782336,273522,271656,357924
653222836482216120,273431,271593,357703
653222836489649904,273336,271609,357501
653222836497083688,273228,271478,357430
653222836504517472,273167,271421,357325
653222836511951256,273114,271327,357310
653222836519385040,273022,271364,357146
653222836526818824,272882,271267,357122
653222836534252608,273012,271153,357055
653222836541686392,272963,271150,356918
653222836549120176,272900,271104,356863
653222836556553960,272912,271254,356748
653222836563987744,272815,271082,356539
653222836571421528,272783,271121,356552
653222836578855312,272812,271117,356616
653222836586289096,272758,271150,356638
653222836593722880,272722,270992,356506
653222836601048356,272960,271236,356306
653222836608488512,272802,271000,356458
653222836615928668,272749,270870,356561
653222836623368824,272745,270916,356625
653222836630808980,272644,270878,356543
653222836638249136,272646,270986,356582
653222836645689292,272670,270929,356566
653222836653129448,272667,270842,356471
653222836660569604,272697,270952,356488
653222836668009760,272727,270962,356391
653222836675449916,272697,270913,356472
653222836682890072,272692,270921,356525
653222836690330228,272636,270970,356608
653222836697770384,272512,270995,356576
653222836705210540,272610,270913,356612
653222836712650696,272637,270944,356547
653222836720090852,272763,270844,356541
653222836727531008,272677,270919,356687
653222836735079496,272714,270578,356611
653222836742513280,272680,270808,356550
653222836749947064,272696,270825,356552
653222836757380848,272660,270850,356700
653222836764814632,272642,270881,356679
653222836772248416,272733,270898,356778
653222836779682200,272770,270865,356828
653222836787115984,272701,270925,356778
653222836794549768,272722,271020,356846
653222836801983552,272753,270963,356742
653222836809417336,272724,271147,356906
653222836816851120,272652,271009,356839
653222836824284904,272789,271092,356886
653222836831718688,272935,271112,356998
653222836839152472,272854,270972,357059
653222836846586256,272860,270998,357005
653222836854020040,272892,271126,357079
653222836861453824,272897,271179,357085
653222836868841197,273048,271276,357324
653222836876277712,273046,271220,357294
653222836883714227,273060,271213,357313
653222836891150742,273064,271128,357435
653222836898587257,273106,271182,357456
653222836906023772,273195,271182,357417
653222836913460287,273174,271253,357557
653222836920896802,273182,271144,357608
653222836928333317,273156,271217,357659
653222836935769832,273214,271416,357706
653222836943206347,273123,271419,357653
653222836950642862,273226,271263,357717
653222836958079377,273788,271485,357876
653222836965515892,273561,271400,357940
653222836972952407,273588,271428,358007
653222836980388922,273503,271533,358090
653222836987825437,273546,271631,358281
653222836995261952,273523,271583,358208
653222837002683007,273524,271629,358221
653222837010120432,273565,271684,358305
653222837017557857,273600,271786,358386
653222837024995282,273660,271830,358434
653222837032432707,273689,271806,358560
653222837039870132,273777,271771,358569
653222837047307557,273816,271767,358664
653222837054744982,273776,271861,358673
653222837062182407,273854,271853,358711
653222837069619832,273802,271825,358787
653222837077057257,273910,271943,358818
653222837084494682,273939,271948,358904
653222837091932107,274027,271967,359067
653222837099369532,274052,271982,359170
653222837106806957,273981,272065,358977
653222837114244382,273918,272036,358999
653222837121681807,273910,272138,358971
653222837129119232,273975,271970,358815
653222837136510244,273923,271695,358493
653222837143950400,273795,271834,358573
653222837151390556,273780,271780,358542
653222837158830712,273716,271836,358406
653222837166270868,273672,271646,358316
653222837173711024,273536,271521,358181
653222837181151180,273526,271512,357965
653222837188591336,273387,271554,357880
653222837196031492,273275,271403,357717
653222837203471648,273201,271408,357630
653222837210911804,272951,271267,357334
653222837218351960,272955,271249,357199
653222837225792116,272991,271298,357135
653222837233232272,272893,271151,356994
653222837240672428,272817,271136,356816
653222837248112584,272765,271102,356846
653222837255552740,272905,271077,356710
653222837262992896,272772,270983,356576
653222837270510427,272946,271222,356467
653222837277946032,272972,271084,356514
653222837285381637,272703,270851,356486
653222837292817242,272619,270813,356428
653222837300252847,272551,270725,356375
653222837307688452,272377,270628,356300
653222837315124057,272392,270632,356204
653222837322559662,272409,270619,356138
653222837329995267,272331,270607,356099
653222837337430872,272383,270691,356200
653222837344866477,272378,270603,356186
653222837352302082,272329,270555,356084
653222837359737687,272293,270514,356058
653222837367173292,272287,270457,356096
653222837374608897,272284,270500,356065
653222837382044502,272294,270512,355968
653222837389480107,272200,270478,356037
653222837396915712,272202,270372,356029
653222837404304896,272187,270229,356267
653222837411743232,272139,270261,356096
653222837419181568,272142,270361,356140
653222837426619904,272239,270442,356124
653222837434058240,272217,270464,356122
653222837441496576,272318,270401,356106
653222837448934912,272246,270402,356100
653222837456373248,272288,270361,356089
653222837463811584,272344,270474,356156
653222837471249920,272290,270406,356104
653222837478688256,272219,270444,356072
653222837486126592,272240,270526,356121
653222837493564928,272280,270472,356092
653222837501003264,272260,270411,356118
653222837508441600,272183,270567,356159
653222837515879936,272075,270459,356133
653222837523318272,272190,270445,356166
653222837530756608,272175,270432,356112
653222837538241371,272464,270499,356310
653222837545676976,272391,270516,356317
653222837553112581,272345,270570,356402
653222837560548186,272446,270613,356338
653222837567983791,272483,270540,356441
653222837575419396,272466,270561,356543
653222837582855001,272433,270549,356552
653222837590290606,272355,270605,356556
653222837597726211,272436,270551,356478
653222837605161816,272551,270710,356710
653222837612597421,272514,270646,356747
653222837620033026,272472,270653,356562
653222837627468631,272586,270741,356713
653222837634904236,272586,270791,356797
653222837642339841,272619,270820,356761
653222837649775446,272533,270771,356835
653222837657211051,272645,270825,356903
653222837664646656,272793,270833,356847
653222837672066797,273083,270719,356814
653222837679503312,272826,270842,356914
653222837686939827,272851,270955,357015
653222837694376342,272752,270893,357144
653222837701812857,272888,270894,357257
653222837709249372,272928,270875,357299
653222837716685887,272951,270902,357369
653222837724122402,272997,270992,357440
653222837731558917,273107,271076,357431
653222837738995432,273018,271076,357511
653222837746431947,273074,271191,357618
653222837753868462,273204,270996,357751
653222837761304977,273191,271185,357806
653222837768741492,273208,271239,357890
653222837776178007,273356,271221,357971
653222837783614522,273311,271286,357988
653222837791051037,273452,271384,358126
653222837798487552,273395,271413,358185
653222837805908607,273279,271636,358274
653222837813346032,273439,271484,358408
653222837820783457,273453,271576,358426
653222837828220882,273584,271603,358562
653222837835658307,273691,271671,358561
653222837843095732,273687,271666,358689
653222837850533157,273584,271563,358552
653222837857970582,273676,271562,358531
653222837865408007,273771,271641,358623
653222837872845432,273799,271563,358714
653222837880282857,273829,271630,358679
653222837887720282,273712,271595,358525
653222837895157707,273678,271786,358549
653222837902595132,273676,271537,358422
653222837910032557,273577,271512,358187
653222837917469982,273482,271337,358137
653222837924907407,273469,271321,357993
653222837932344832,273295,271376,357868
653222837939828681,272940,271405,357652
653222837947263376,273089,271357,357605
653222837954698071,272996,271180,357422
653222837962132766,272984,271064,357296
653222837969567461,272978,271020,357198
653222837977002156,272902,271008,357147
653222837984436851,272807,270929,357000
653222837991871546,272672,270794,356808
653222837999306241,272614,270769,356709
653222838006740936,272634,270734,356491
653222838014175631,272560,270696,356533
653222838021610326,272562,270632,356567
653222838029045021,272519,270529,356409
653222838036479716,272450,270579,356262
653222838043914411,272440,270460,356289
653222838051349106,272354,270448,355989
653222838058783801,272187,270360,355981
653222838066218496,272166,270373,355969
653222838073575826,272183,270402,355976
653222838081015072,272074,270296,355802
653222838088454318,272065,270242,355856
653222838095893564,272141,270232,355891
653222838103332810,272150,270138,355805
653222838110772056,272141,270080,355791
653222838118211302,272167,270165,355650
653222838125650548,272106,270020,355746
653222838133089794,272075,270179,355825
653222838140529040,272144,270168,355795
653222838147968286,272136,270129,355706
653222838155407532,272059,270220,355635
653222838162846778,272096,270054,355737
653222838170286024,272041,270106,355699
653222838177725270,272097,270040,355732
653222838185164516,272002,270082,355679
653222838192603762,271997,270092,355670
653222838200043008,272019,270075,355714
653222838207559625,272199,269871,355925
653222838214994320,272059,270005,355856
653222838222429015,272070,270056,355809
653222838229863710,272021,270057,355727
653222838237298405,272014,270127,355777
653222838244733100,272051,270042,355845
653222838252167795,272068,270054,355784
653222838259602490,272161,270002,355724
653222838267037185,271995,270066,355764
653222838274471880,272056,270082,355777
653222838281906575,272117,270108,355714
653222838289341270,272017,270131,355829
653222838296775965,272140,270015,355957
653222838304210660,272227,270060,355855
653222838311645355,272281,270071,355878
653222838319080050,272235,270133,356079
653222838326514745,272245,270146,356069
653222838333949440,272288,270228,356153
653222838341306770,272565,270375,355917
653222838348746016,272415,270398,356118
653222838356185262,272385,270311,356145
653222838363624508,272398,270231,356276
653222838371063754,272376,270228,356353
6.53223E+17,272457,270215,356374
653222838385942246,272412,270385,356413
653222838393381492,272461,270426,356508
653222838400820738,272580,270442,356435
653222838408259984,272536,270386,356523
653222838415699230,272654,270418,356576
653222838423138476,272608,270415,356613
653222838430577722,272533,270504,356710
653222838438016968,272617,270512,356738
653222838445456214,272675,270442,356771
653222838452895460,272744,270484,356952
653222838460334706,272661,270606,356909
653222838467773952,272792,270718,357003
653222838475259629,272910,270491,357347
653222838482696144,272872,270546,357158
653222838490132659,272873,270597,357161
653222838497569174,272893,270689,357268
653222838505005689,273021,270762,357316
653222838512442204,273040,270820,357298
653222838519878719,272966,270810,357410
653222838527315234,273041,270889,357421
653222838534751749,273024,270952,357603
653222838542188264,273141,270861,357690
653222838549624779,273216,270924,357724
653222838557061294,273373,271050,357690
653222838564497809,273342,270939,357814
653222838571934324,273276,270991,357956
653222838579370839,273351,270875,357956
653222838586807354,273365,271063,357973
653222838594243869,273432,271141,357949
653222838601680384,273390,271255,358128
653222838609101439,273643,271117,358446
653222838616538864,273712,271250,358439
653222838623976289,273609,271176,358427
653222838631413714,273539,271281,358336
653222838638851139,273580,271186,358340
653222838646288564,273550,271334,358299
653222838653725989,273371,271162,358171
653222838661163414,273417,271140,358035
653222838668600839,273416,271075,357866
653222838676038264,273294,270918,357698
653222838683475689,273251,270924,357529
653222838690913114,273188,270960,357465
653222838698350539,273121,270872,357379
653222838705787964,272976,270726,357262
653222838713225389,272903,270694,357009
653222838720662814,272870,270670,357032
653222838728100239,272745,270594,356942
653222838735537664,272778,270535,356697
653222838742990573,272616,270640,356815
653222838750427088,272520,270506,356643
653222838757863603,272570,270442,356533
653222838765300118,272515,270229,356396
653222838772736633,272507,270214,356365
653222838780173148,272493,270105,356248
653222838787609663,272439,270057,356245
653222838795046178,272276,270079,356226
653222838802482693,272228,270022,356070
653222838809919208,272244,270100,356187
653222838817355723,272174,270016,355994
653222838824792238,272242,270039,355883
653222838832228753,272146,270058,355880
653222838839665268,272136,270057,355818
653222838847101783,272174,269998,355621
653222838854538298,272200,269976,355732
653222838861974813,272120,269746,355727
653222838869411328,272098,269826,355806
653222838876878793,272347,269901,356123
653222838884313488,272224,269908,355918
653222838891748183,272068,269924,355915
653222838899182878,272112,269892,355969
653222838906617573,272069,269901,355902
653222838914052268,272159,269871,355748
653222838921486963,272185,269793,355790
653222838928921658,272088,269872,355779
653222838936356353,272107,269789,355872
653222838943791048,272163,269863,355916
653222838951225743,272228,269818,355794
653222838958660438,272243,269920,355889
653222838966095133,272202,269845,355933
653222838973529828,272115,269903,355887
653222838980964523,272049,269920,355882
653222838988399218,271986,269821,355809
653222838995833913,271929,269875,355861
653222839003268608,272063,269895,355774
653222839010687835,271748,270136,355695
653222839018123440,271960,269985,355906
653222839025559045,272055,269966,356019
653222839032994650,272116,269862,356022
653222839040430255,272208,269891,356102
653222839047865860,272173,270012,356154
653222839055301465,272132,269916,356064
653222839062737070,272217,269790,356143
653222839070172675,272161,269885,356227
653222839077608280,272369,270000,356276
653222839085043885,272195,270045,356358
653222839092479490,272332,269977,356330
653222839099915095,272349,269994,356352
653222839107350700,272399,269906,356431
653222839114786305,272301,269908,356396
653222839122221910,272347,270037,356517
653222839129657515,272341,270039,356448
653222839137093120,272460,270143,356572
653222839144466834,272160,270010,356395
653222839151906080,272406,270106,356727
653222839159345326,272493,270206,356823
653222839166784572,272535,270134,356813
653222839174223818,272712,270264,356797
653222839181663064,272719,270313,356865
653222839189102310,272720,270344,356982
653222839196541556,272717,270383,356944
653222839203980802,272749,270355,356928
653222839211420048,272739,270382,357164
653222839218859294,272686,270455,357164
653222839226298540,272796,270387,357179
653222839233737786,272757,270404,357298
653222839241177032,272826,270452,357402
653222839248616278,272903,270382,357529
653222839256055524,273035,270468,357597
653222839263494770,273014,270497,357607
653222839270934016,273008,270309,357872
653222839278388736,272857,270246,358024
653222839285827072,272984,270419,358016
653222839293265408,272980,270602,358124
653222839300703744,273038,270655,358127
653222839308142080,273146,270800,358182
653222839315580416,273275,270761,358210
653222839323018752,273412,270800,358292
653222839330457088,273426,270886,358341
653222839337895424,273336,270978,358227
653222839345333760,273448,270991,358434
653222839352772096,273614,271062,358392
653222839360210432,273500,271109,358532
653222839367648768,273663,271154,358617
653222839375087104,273532,271148,358615
653222839382525440,273655,270988,358634
653222839389963776,273628,271032,358589
653222839397402112,273608,271074,358471
653222839404840448,273525,271017,358344
653222839412371638,273679,271029,358135
653222839419804512,273432,270843,358104
653222839427237386,273351,270762,358060
653222839434670260,273162,270639,357861
653222839442103134,273019,270663,357729
653222839449536008,273064,270636,357698
653222839456968882,273093,270589,357467
653222839464401756,273056,270558,357381
653222839471834630,272790,270486,357227
653222839479267504,272776,270340,357005
653222839486700378,272715,270299,356971
653222839494133252,272612,270262,356875
653222839501566126,272461,270069,356702
6.53223E+17,272423,270060,356649
653222839516431874,272389,269990,356469
653222839523864748,272430,270014,356472
653222839531297622,272263,270059,356379
653222839538730496,272272,269918,356350
653222839546055058,272124,270078,356068
653222839553494304,272133,269832,356090
653222839560933550,272072,269826,356018
653222839568372796,272022,269663,355968
653222839575812042,272027,269741,355992
653222839583251288,272036,269788,355961
653222839590690534,271914,269711,355800
653222839598129780,271971,269618,355827
653222839605569026,271917,269477,355732
653222839613008272,271974,269557,355817
653222839620447518,271894,269536,355768
653222839627886764,271799,269541,355791
653222839635326010,271781,269433,355827
653222839642765256,271747,269479,355725
653222839650204502,271801,269498,355611
653222839657643748,271853,269438,355736
653222839665082994,271868,269477,355668
653222839672522240,271885,269564,355767
653222839680038857,271891,269365,355981
653222839687473552,271764,269436,355677
653222839694908247,271837,269480,355526
653222839702342942,271867,269441,355739
653222839709777637,271803,269512,355715
653222839717212332,271823,269531,355795
653222839724647027,271830,269506,355742
653222839732081722,271733,269490,355560
653222839739516417,271850,269413,355662
653222839746951112,271871,269457,355664
653222839754385807,271952,269521,355855
653222839761820502,271908,269610,355869
653222839769255197,271929,269482,355682
653222839776689892,271950,269406,355726
653222839784124587,271938,269505,355839
653222839791559282,271860,269508,355873
653222839798993977,271967,269436,355783
653222839806428672,271921,269514,355951
653222839813786002,271899,269298,356186
653222839821225248,271923,269380,356165
653222839828664494,271939,269461,356097
653222839836103740,271967,269492,356082
653222839843542986,272048,269539,356166
653222839850982232,272007,269568,356238
653222839858421478,272099,269641,356304
653222839865860724,272035,269578,356118
653222839873299970,271970,269493,356205
653222839880739216,272031,269511,356293
653222839888178462,272066,269690,356283
653222839895617708,272029,269685,356318
653222839903056954,272105,269694,356454
653222839910496200,272186,269749,356521
653222839917935446,272335,269778,356542
653222839925374692,272328,269786,356691
653222839932813938,272398,269867,356762
653222839940253184,272309,269998,356852
653222839947754331,272088,270003,356959
653222839955189936,272271,269968,356937
653222839962625541,272426,270031,357001
653222839970061146,272455,270041,357113
653222839977496751,272412,269918,357003
653222839984932356,272579,270055,357124
653222839992367961,272550,270108,357243
653222839999803566,272600,270154,357296
653222840007239171,272650,270112,357372
653222840014674776,272645,270296,357445
653222840022110381,272636,270385,357573
653222840029545986,272729,270287,357510
653222840036981591,272757,270425,357556
653222840044417196,272812,270381,357598
653222840051852801,272924,270462,357544
653222840059288406,272873,270475,357757
653222840066724011,272826,270408,357768
653222840074159616,272933,270421,357951
653222840081579757,273240,270484,357812
653222840089016272,273180,270489,357969
653222840096452787,273129,270568,358080
653222840103889302,273113,270552,358128
653222840111325817,273246,270597,358282
653222840118762332,273215,270670,358342
653222840126198847,273322,270766,358478
653222840133635362,273268,270794,358461
653222840141071877,273367,270788,358513
653222840148508392,273352,270809,358530
653222840155944907,273432,271046,358577
653222840163381422,273354,270887,358416
653222840170817937,273296,270826,358381
653222840178254452,273320,270821,358310
653222840185690967,273320,270731,358219
653222840193127482,273225,270741,358130
653222840200563997,273119,270623,357940
653222840208000512,272983,270596,357759
653222840215421567,272853,270521,357716
653222840222858992,272819,270429,357568
653222840230296417,272790,270445,357391
653222840237733842,272636,270284,357301
653222840245171267,272619,270056,356896
653222840252608692,272520,270068,356877
653222840260046117,272552,270090,356735
653222840267483542,272370,269872,356595
653222840274920967,272387,269890,356469
653222840282358392,272194,269816,356340
653222840289795817,272084,269773,356317
653222840297233242,272195,269687,356198
653222840304670667,272122,269593,356169
653222840312108092,271970,269576,355944
653222840319545517,271819,269610,355844
653222840326982942,271850,269478,355809
653222840334420367,271867,269446,355779
653222840341857792,271844,269519,355822
653222840349279744,271700,269575,355606
653222840356718080,271567,269434,355500
653222840364156416,271570,269386,355340
653222840371594752,271646,269345,355373
653222840379033088,271583,269268,355327
653222840386471424,271655,269163,355409
653222840393909760,271571,269150,355415
653222840401348096,271679,269047,355399
653222840408786432,271552,269158,355348
653222840416224768,271505,269214,355463
653222840423663104,271526,269243,355261
653222840431101440,271443,269166,355426
653222840438539776,271493,269172,355407
653222840445978112,271506,269093,355360
653222840453416448,271528,269256,355292
653222840460854784,271440,269113,355280
653222840468293120,271464,269139,355187
653222840475731456,271387,269066,355316
653222840483216219,271052,268862,355315
653222840490651824,271263,269027,355203
653222840498087429,271381,269099,355181
653222840505523034,271401,269084,355138
653222840512958639,271349,269083,355148
653222840520394244,271454,269197,355141
653222840527829849,271475,269137,355180
653222840535265454,271393,269161,355218
653222840542701059,271402,269130,355227
653222840550136664,271440,269155,355140
653222840557572269,271411,269144,355252
653222840565007874,271466,269178,355309
653222840572443479,271527,269206,355361
653222840579879084,271513,269275,355508
653222840587314689,271571,269201,355536
653222840594750294,271551,269264,355608
653222840602185899,271624,269226,355566
653222840609621504,271667,269369,355567
653222840617010688,271826,269574,355404
653222840624449024,271798,269353,355566
653222840631887360,271698,269345,355692
653222840639325696,271676,269338,355668
653222840646764032,271691,269314,355736
653222840654202368,271767,269397,355899
653222840661640704,271831,269319,355909
653222840669079040,271800,269351,356040
653222840676517376,271836,269289,356035
653222840683955712,271819,269362,356052
653222840691394048,271866,269324,356066
653222840698832384,272055,269480,356100
653222840706270720,272064,269669,356155
653222840713709056,272008,269590,356310
653222840721147392,272064,269669,356445
653222840728585728,272063,269610,356540
653222840736024064,272088,269665,356435
653222840743462400,272122,269761,356467
653222840750947163,272415,270007,356610
653222840758382768,272305,269843,356698
653222840765818373,272318,269905,356866
653222840773253978,272274,269855,356744
653222840780689583,272266,269879,356807
653222840788125188,272375,269985,356889
653222840795560793,272369,269971,357034
653222840802996398,272390,269914,357076
653222840810432003,272449,269980,357051
653222840817867608,272484,270043,357026
653222840825303213,272621,269877,357206
653222840832738818,272611,270028,357279
653222840840174423,272692,270140,357350
653222840847610028,272643,270158,357371
653222840855045633,272676,270182,357448
653222840862481238,272787,270215,357471
653222840869916843,272721,270352,357447
653222840877352448,272715,270330,357670
653222840884803529,273070,270161,358027
653222840892238224,272965,270207,357979
653222840899672919,272997,270342,358033
653222840907107614,273077,270449,357998
653222840914542309,272958,270522,358076
653222840921977004,272870,270590,358113
653222840929411699,272982,270628,358014
653222840936846394,273047,270625,357927
653222840944281089,273105,270499,358019
653222840951715784,273042,270463,358051
653222840959150479,273039,270509,357972
653222840966585174,273057,270550,357787
653222840974019869,272889,270554,357717
653222840981454564,272846,270480,357759
653222840988889259,272736,270326,357504
653222840996323954,272543,270245,357279
653222841003758649,272508,270143,357033
653222841011193344,272540,270173,356883
653222841018597101,272639,270120,356877
653222841026033616,272479,270094,356692
653222841033470131,272335,269998,356501
653222841040906646,272207,269975,356435
653222841048343161,272080,269930,356240
653222841055779676,272119,269850,356293
653222841063216191,272152,269735,356172
653222841070652706,272028,269622,356017
653222841078089221,271977,269640,356028
653222841085525736,271931,269646,355895
653222841092962251,271943,269574,355767
653222841100398766,271864,269505,355792
653222841107835281,271768,269499,355749
653222841115271796,271758,269433,355709
653222841122708311,271766,269453,355568
653222841130144826,271605,269414,355467
653222841137581341,271700,269355,355485
653222841145017856,271649,269356,355455
653222841152438911,271358,269221,355514
653222841159876336,271402,269235,355395
653222841167313761,271467,269212,355349
653222841174751186,271486,269265,355202
653222841182188611,271539,269244,355394
653222841189626036,271448,269277,355395
653222841197063461,271436,269393,355148
653222841204500886,271592,269323,355242
653222841211938311,271425,269208,355233
653222841219375736,271435,269253,355269
653222841226813161,271390,269255,355365
653222841234250586,271504,269163,355314
653222841241688011,271552,269282,355254
653222841249125436,271555,269227,355296
653222841256562861,271386,269273,355178
653222841264000286,271494,269170,355192
653222841271437711,271440,269282,355377
653222841278875136,271366,269277,355323
653222841286281618,271519,269168,355184
653222841293720864,271432,269216,355306
653222841301160110,271438,269213,355312
653222841308599356,271368,269232,355345
653222841316038602,271552,269329,355408
653222841323477848,271567,269238,355375
653222841330917094,271546,269219,355237
653222841338356340,271538,269260,355280
653222841345795586,271562,269284,355271
653222841353234832,271567,269389,355420
653222841360674078,271555,269372,355327
653222841368113324,271621,269333,355524
653222841375552570,271602,269399,355561
653222841382991816,271586,269424,355582
653222841390431062,271676,269487,355541
653222841397870308,271712,269477,355536
653222841405309554,271750,269486,355762
653222841412748800,271597,269420,355658
653222841420234477,271792,269198,356023
653222841427670992,271744,269326,355870
653222841435107507,271835,269457,355889
653222841442544022,271848,269528,355915
653222841449980537,271898,269646,356030
653222841457417052,271918,269749,356121
653222841464853567,272022,269739,356018
653222841472290082,272034,269765,356167
653222841479726597,272021,269798,356202
653222841487163112,271969,269764,356304
653222841494599627,272059,269713,356339
653222841502036142,272138,269760,356308
653222841509472657,272293,269899,356382
653222841516909172,272204,269970,356389
653222841524345687,272251,269900,356511
653222841531782202,272310,269957,356668
653222841539218717,272370,269875,356634
653222841546655232,272391,270059,356763
653222841554076287,272659,270349,356876
653222841561513712,272593,270037,356835
653222841568951137,272512,270176,356945
653222841576388562,272586,270085,357067
653222841583825987,272651,270279,357221
653222841591263412,272612,270280,357268
653222841598700837,272650,270155,357239
653222841606138262,272672,270256,357245
653222841613575687,272773,270381,357383
653222841621013112,272699,270392,357414
653222841628450537,272738,270338,357496
653222841635887962,272889,270419,357565
653222841643325387,272870,270407,357661
653222841650762812,273040,270454,357768
653222841658200237,272979,270502,357620
653222841665637662,273122,270572,357857
653222841673075087,272960,270655,357886
653222841680512512,273025,270639,357940
653222841687965421,273378,270837,358170
653222841695401936,273266,270767,358103
653222841702838451,273120,270766,358100
653222841710274966,273194,270869,358070
653222841717711481,273168,270824,358193
653222841725147996,273127,270683,358026
653222841732584511,273102,270755,358036
653222841740021026,273171,270582,357995
653222841747457541,273045,270623,357716
653222841754894056,273047,270532,357667
653222841762330571,272915,270530,357681
653222841769767086,272819,270520,357471
653222841777203601,272774,270477,357364
653222841784640116,272601,270298,357204
653222841792076631,272639,270304,357090
653222841799513146,272515,270299,356840
653222841806949661,272547,270163,356838
653222841814386176,272431,270091,356736
653222841821807231,272595,270195,356657
653222841829244656,272462,270129,356476
653222841836682081,272307,270082,356498
653222841844119506,272085,269905,356300
653222841851556931,272076,269967,356233
653222841858994356,272082,269949,356202
653222841866431781,272140,269955,356132
653222841873869206,272106,269759,356186
653222841881306631,271901,269694,356027
653222841888744056,271934,269727,356035
653222841896181481,271948,269704,355942
653222841903618906,271712,269717,355983
653222841911056331,271849,269700,355865
653222841918493756,271939,269737,355935
653222841925931181,271884,269720,355954
653222841933368606,271854,269690,355807
653222841940806031,271827,269687,355796
653222841948243456,271881,269784,355861
653222841955696365,271660,269685,355849
653222841963132880,271851,269733,355872
653222841970569395,271842,269663,355861
653222841978005910,271854,269582,355889
653222841985442425,271783,269442,355861
653222841992878940,271806,269599,355912
653222842000315455,271857,269541,355986
653222842007751970,271898,269607,355951
653222842015188485,271881,269659,355850
6.53223E+17,271909,269697,355963
653222842030061515,271812,269682,355889
653222842037498030,271862,269694,356004
653222842044934545,272014,269756,356058
653222842052371060,271987,269567,356015
653222842059807575,272007,269689,356095
653222842067244090,271959,269703,356015
653222842074680605,271947,269643,356072
653222842082117120,272027,269714,356206
653222842089569115,271784,269831,355884
653222842097004720,271809,269817,355928
653222842104440325,271915,269826,356120
653222842111875930,271930,269755,356174
653222842119311535,271955,269863,356173
653222842126747140,272040,269788,356275
653222842134182745,272084,269838,356340
653222842141618350,272038,269873,356267
653222842149053955,272126,269743,356363
653222842156489560,272074,269769,356354
653222842163925165,272088,269854,356450
653222842171360770,272021,269954,356394
653222842178796375,272041,269849,356489
653222842186231980,272159,269896,356538
653222842193667585,272246,269916,356528
653222842201103190,272213,269941,356604
653222842208538795,272269,270018,356665
653222842215974400,272318,270068,356799
653222842223363584,272436,270216,356761
653222842230801920,272424,270096,356848
653222842238240256,272415,270173,356875
653222842245678592,272351,270027,356904
653222842253116928,272288,270143,356824
653222842260555264,272336,270155,356947
653222842267993600,272506,270224,357120
653222842275431936,272528,270261,357226
653222842282870272,272501,270336,357357
653222842290308608,272550,270256,357386
653222842297746944,272717,270346,357409
653222842305185280,272747,270449,357484
653222842312623616,272797,270480,357677
653222842320061952,272756,270526,357625
653222842327500288,272699,270402,357723
653222842334938624,272839,270485,357753
653222842342376960,272952,270447,357865
653222842349815296,273000,270470,357925
653222842357315529,273280,270707,357716
653222842364750224,273110,270586,357973
653222842372184919,273098,270635,357941
653222842379619614,273129,270556,358098
653222842387054309,273151,270823,358180
653222842394489004,273141,270700,358291
653222842401923699,273174,270796,358287
653222842409358394,273311,270836,358514
653222842416793089,273278,270930,358507
653222842424227784,273349,270967,358492
653222842431662479,273412,270954,358661
653222842439097174,273436,271037,358657
653222842446531869,273424,271080,358777
653222842453966564,273407,271137,358926
653222842461401259,273434,271107,358938
653222842468835954,273589,271129,358972
653222842476270649,273593,271191,359025
653222842483705344,273603,271120,359078
653222842491062674,273454,271115,358487
653222842498501920,273520,271181,358752
653222842505941166,273574,271055,358684
653222842513380412,273523,271154,358688
653222842520819658,273415,271039,358688
653222842528258904,273329,270956,358564
653222842535698150,273242,270864,358497
653222842543137396,273197,270846,358136
653222842550576642,273182,270870,358117
653222842558015888,273026,270739,357879
653222842565455134,272944,270689,357791
653222842572894380,272852,270700,357729
653222842580333626,272939,270581,357708
653222842587772872,272823,270436,357473
653222842595212118,272663,270565,357346
653222842602651364,272618,270401,357230
653222842610090610,272626,270363,357186
653222842617529856,272472,270379,357138
653222842625046473,272778,270079,356736
653222842632481168,272520,270039,356849
653222842639915863,272449,270066,356836
653222842647350558,272388,270113,356862
653222842654785253,272357,270141,356819
653222842662219948,272352,270067,356789
653222842669654643,272334,270069,356643
653222842677089338,272310,270052,356694
653222842684524033,272124,270003,356569
653222842691958728,272103,269933,356563
653222842699393423,272131,269950,356517
653222842706828118,271996,270044,356575
653222842714262813,272121,270002,356527
653222842721697508,271951,269998,356510
653222842729132203,271996,269869,356494
653222842736566898,272007,269935,356415
653222842744001593,271983,269823,356326
653222842751436288,272058,269885,356402
653222842758793618,272202,270108,356320
653222842766232864,272073,269994,356249
653222842773672110,272059,270006,356307
653222842781111356,271930,269967,356248
653222842788550602,271982,269937,356381
653222842795989848,271934,269915,356299
653222842803429094,272064,269958,356408
653222842810868340,272106,269948,356467
653222842818307586,272037,269932,356523
653222842825746832,272024,269904,356565
653222842833186078,272157,269940,356442
653222842840625324,271995,269899,356494
653222842848064570,272046,269813,356416
653222842855503816,272166,269896,356466
653222842862943062,272139,269920,356483
653222842870382308,272104,269933,356478
653222842877821554,272104,269868,356594
653222842885260800,272129,269840,356568
653222842892777417,272244,269522,356842
653222842900212112,272261,269832,356701
653222842907646807,272221,270022,356763
653222842915081502,272239,269982,356806
653222842922516197,272184,270008,356778
653222842929950892,272267,270039,356879
653222842937385587,272287,269999,356804
653222842944820282,272325,270116,356777
653222842952254977,272320,270068,356873
653222842959689672,272383,270102,356974
653222842967124367,272372,270205,357095
653222842974559062,272400,270306,357125
653222842981993757,272387,270211,357115
653222842989428452,272424,270186,357094
653222842996863147,272342,270297,357131
653222843004297842,272471,270221,357225
653222843011732537,272479,270207,357284
653222843019167232,272630,270231,357357
653222843026586459,272831,270437,357434
653222843034022064,272759,270450,357535
653222843041457669,272785,270466,357613
653222843048893274,272781,270438,357616
653222843056328879,272731,270381,357689
653222843063764484,272779,270386,357742
653222843071200089,272825,270504,357771
653222843078635694,272846,270488,357832
653222843086071299,272839,270601,357895
653222843093506904,272936,270716,357991
653222843100942509,272915,270756,357907
653222843108378114,272963,270743,358006
653222843115813719,272968,270802,358172
653222843123249324,273005,270767,358270
653222843130684929,273013,270723,358372
653222843138120534,272989,270912,358409
653222843145556139,273142,270950,358399
653222843152991744,273206,270943,358449
653222843160365458,273334,270766,358250
653222843167804704,273398,270897,358478
653222843175243950,273302,270993,358628
653222843182683196,273372,270970,358732
653222843190122442,273337,271039,358886
653222843197561688,273338,271081,358936
653222843205000934,273461,271121,358933
653222843212440180,273546,271267,359051
653222843219879426,273559,271191,359106
653222843227318672,273675,271193,359030
653222843234757918,273608,271316,359128
653222843242197164,273726,271387,359438
653222843249636410,273731,271363,359404
653222843257075656,273733,271353,359504
653222843264514902,273827,271468,359581
653222843271954148,273856,271352,359799
653222843279393394,273887,271422,359753
653222843286832640,273849,271474,359590
653222843294318317,274035,271317,359432
653222843301754832,273947,271468,359424
653222843309191347,273809,271457,359229
653222843316627862,273808,271351,359224
653222843324064377,273678,271352,359151
653222843331500892,273540,271367,359066
653222843338937407,273472,271294,358771
653222843346373922,273503,271322,358777
653222843353810437,273433,271198,358603
653222843361246952,273309,271074,358344
653222843368683467,273287,270989,358283
653222843376119982,273196,270953,358121
653222843383556497,273042,270880,357969
653222843390993012,273001,270754,358110
653222843398429527,272918,270698,357845
653222843405866042,272864,270716,357805
653222843413302557,272860,270747,357671
653222843420739072,272809,270653,357618
653222843428160127,272633,270823,357766
653222843435597552,272590,270659,357366
653222843443034977,272564,270600,357296
653222843450472402,272539,270497,357125
653222843457909827,272528,270548,357158
653222843465347252,272442,270433,357107
653222843472784677,272376,270383,356934
653222843480222102,272348,270362,356823
653222843487659527,272258,270243,356874
653222843495096952,272289,270260,356916
653222843502534377,272322,270218,356786
653222843509971802,272239,270225,356836
653222843517409227,272301,270104,356788
653222843524846652,272172,270192,356770
653222843532284077,272196,270112,356629
653222843539721502,272243,270153,356693
653222843547158927,272127,270182,356553
653222843554596352,272242,270045,356755
653222843562049261,272259,269839,356990
653222843569485776,272223,269967,356797
653222843576922291,272189,270082,356851
653222843584358806,272206,270197,356752
653222843591795321,272301,270102,356731
653222843599231836,272288,270225,356916
653222843606668351,272235,270162,356819
653222843614104866,272079,269999,356715
653222843621541381,272213,270144,356716
653222843628977896,272172,270069,356706
653222843636414411,272141,270089,356625
653222843643850926,272155,270096,356610
653222843651287441,272218,270160,356677
653222843658723956,272289,270162,356782
653222843666160471,272216,269992,356664
653222843673596986,272291,270116,356617
653222843681033501,272064,270112,356642
653222843688470016,272107,270049,356766
653222843695937481,271973,269956,356546
653222843703372176,272089,270034,356814
653222843710806871,272121,270089,356807
653222843718241566,272130,270060,356799
653222843725676261,272264,270146,356887
653222843733110956,272242,270247,356964
653222843740545651,272290,270160,357026
653222843747980346,272334,270197,356962
653222843755415041,272215,270063,356995
653222843762849736,272301,270243,357034
653222843770284431,272348,270244,357110
653222843777719126,272371,270242,357147
653222843785153821,272399,270314,357107
653222843792588516,272439,270324,357266
653222843800023211,272467,270409,357176
653222843807457906,272445,270488,357366
653222843814892601,272604,270476,357365
653222843822327296,272643,270599,357486
653222843829684626,272697,270444,357755
653222843837123872,272682,270425,357666
653222843844563118,272687,270381,357635
653222843852002364,272484,270431,357662
653222843859441610,272624,270529,357766
653222843866880856,272699,270638,357727
653222843874320102,272779,270732,357756
653222843881759348,272815,270653,357813
653222843889198594,272792,270699,357940
653222843896637840,272894,270635,357956
653222843904077086,272960,270671,357998
653222843911516332,272983,270719,358119
653222843918955578,272922,270737,358183
653222843926394824,273005,270848,358171
653222843933834070,273082,270807,358431
653222843941273316,273195,270940,358353
653222843948712562,273124,270885,358375
653222843956151808,273141,270854,358495
653222843963637485,273531,271082,358357
6.53223E+17,273400,271034,358556
653222843978510515,273371,271135,358715
653222843985947030,273328,271168,358790
653222843993383545,273446,271210,358962
653222844000820060,273552,271252,359005
653222844008256575,273549,271254,358945
653222844015693090,273417,271289,359109
653222844023129605,273540,271212,359119
653222844030566120,273577,271346,359157
653222844038002635,273533,271281,359291
653222844045439150,273623,271467,359219
653222844052875665,273677,271383,359322
653222844060312180,273736,271528,359436
653222844067748695,273815,271539,359498
653222844075185210,273917,271522,359601
653222844082621725,273915,271585,359565
653222844090058240,273893,271611,359684
653222844097541192,273626,271677,359514
653222844104974976,273904,271670,359729
653222844112408760,274025,271646,359768
653222844119842544,274003,271594,359792
653222844127276328,273990,271671,359855
653222844134710112,273889,271607,359680
653222844142143896,273890,271648,359600
653222844149577680,273772,271687,359482
653222844157011464,273714,271636,359285
653222844164445248,273658,271584,359123
653222844171879032,273546,271506,359070
653222844179312816,273499,271413,358971
653222844186746600,273449,271260,358760
653222844194180384,273378,271259,358638
653222844201614168,273265,271221,358442
653222844209047952,273188,271017,358355
653222844216481736,273125,271020,358014
653222844223915520,273026,270940,357994
653222844231271936,272957,271423,357910
653222844238710272,273011,271011,357875
653222844246148608,272990,270897,357869
653222844253586944,272874,270779,357794
653222844261025280,272858,270719,357687
653222844268463616,272782,270703,357627
653222844275901952,272669,270713,357561
653222844283340288,272646,270660,357449
653222844290778624,272558,270659,357389
653222844298216960,272494,270566,357144
653222844305655296,272559,270564,357262
653222844313093632,272543,270471,357203
653222844320531968,272508,270454,357099
653222844327970304,272456,270427,356950
653222844335408640,272458,270299,356958
653222844342846976,272362,270367,356922
653222844350285312,272165,270387,356851
653222844357723648,272221,270403,356752
653222844365239368,272216,270107,356800
653222844372673152,272246,270188,356887
653222844380106936,272288,270374,356903
653222844387540720,272336,270338,356834
653222844394974504,272300,270259,356824
653222844402408288,272273,270263,356905
653222844409842072,272374,270242,356910
653222844417275856,272200,270215,356869
653222844424709640,272293,270224,356798
653222844432143424,272209,270365,356850
653222844439577208,272192,270179,356848
653222844447010992,272185,270329,356841
653222844454444776,272194,270375,356801
653222844461878560,272198,270284,356833
653222844469312344,272217,270302,356882
653222844476746128,272277,270395,356966
653222844484179912,272313,270255,356890
653222844491613696,272209,270260,356824
653222844498939172,272527,270563,356503
653222844506379328,272374,270445,356675
653222844513819484,272436,270409,356816
653222844521259640,272387,270442,356891
653222844528699796,272281,270352,356944
653222844536139952,272344,270411,356994
653222844543580108,272283,270441,356999
653222844551020264,272380,270449,357118
653222844558460420,272297,270413,356973
653222844565900576,272413,270457,357162
653222844573340732,272396,270429,357124
653222844580780888,272444,270469,357254
653222844588221044,272759,270362,357213
653222844595661200,272633,270358,357331
653222844603101356,272584,270499,357340
653222844610541512,272462,270497,357272
653222844617981668,272510,270459,357471
653222844625421824,272636,270448,357490
653222844632939355,272668,270245,357634
653222844640374960,272655,270380,357690
653222844647810565,272619,270497,357615
653222844655246170,272715,270506,357658
653222844662681775,272756,270608,357688
653222844670117380,272814,270680,357848
653222844677552985,272829,270694,357899
653222844684988590,272830,270633,357940
653222844692424195,272926,270716,357940
653222844699859800,272813,270890,358081
653222844707295405,272895,270980,358144
653222844714731010,272920,270958,358146
653222844722166615,273035,270932,358120
653222844729602220,273054,271065,358327
653222844737037825,273029,270953,358283
653222844744473430,273098,271051,358361
653222844751909035,273153,271052,358470
653222844759344640,273222,271111,358511
653222844766733824,273258,271228,358610
653222844774172160,273383,271223,358649
653222844781610496,273339,271245,358666
653222844789048832,273384,271172,358696
653222844796487168,273379,271245,358899
653222844803925504,273304,271354,359001
653222844811363840,273401,271296,359026
653222844818802176,273427,271355,359114
653222844826240512,273502,271382,359080
653222844833678848,273618,271394,359221
653222844841117184,273653,271515,359285
653222844848555520,273612,271391,359250
653222844855993856,273689,271515,359344
653222844863432192,273684,271545,359376
653222844870870528,273831,271693,359535
653222844878308864,273769,271689,359439
653222844885747200,273875,271748,359487
653222844893185536,273916,271824,359651
653222844900670299,274089,271933,359441
653222844908105904,274037,271826,359655
653222844915541509,273962,271781,359841
653222844922977114,273943,271845,359950
653222844930412719,274006,271850,359879
653222844937848324,274006,271856,359829
653222844945283929,274174,271898,359821
653222844952719534,274228,271823,360024
653222844960155139,274380,271826,359905
653222844967590744,274132,271943,359897
653222844975026349,274054,271926,359863
653222844982461954,274032,271747,359712
653222844989897559,274017,271645,359494
653222844997333164,273990,271744,359544
653222845004768769,273866,271710,359416
653222845012204374,273772,271632,359236
653222845019639979,273751,271579,359174
653222845027075584,273542,271549,358935
653222845034526665,273345,271201,358836
653222845041961360,273281,271256,358752
653222845049396055,273451,271351,358521
653222845056830750,273384,271228,358475
653222845064265445,273235,271203,358245
653222845071700140,273212,271195,358251
653222845079134835,273136,271155,358221
653222845086569530,273149,271072,358201
653222845094004225,272956,271082,358125
653222845101438920,272937,271055,357853
653222845108873615,272960,270939,357899
653222845116308310,272958,270958,357753
653222845123743005,272853,270946,357743
653222845131177700,272709,270891,357664
653222845138612395,272650,270952,357704
653222845146047090,272810,270794,357599
653222845153481785,272740,270800,357519
653222845160916480,272749,270801,357477
653222845168273810,272703,270553,357576
653222845175713056,272723,270670,357400
653222845183152302,272701,270742,357360
653222845190591548,272683,270611,357282
653222845198030794,272656,270625,357299
653222845205470040,272596,270595,357319
653222845212909286,272666,270633,357351
653222845220348532,272616,270646,357266
653222845227787778,272719,270697,357282
653222845235227024,272675,270565,357333
653222845242666270,272690,270586,357497
653222845250105516,272638,270689,357332
653222845257544762,272587,270752,357318
653222845264984008,272568,270548,357468
653222845272423254,272511,270749,357387
653222845279862500,272563,270790,357286
653222845287301746,272650,270664,357350
653222845294740992,272733,270664,357400
653222845302226669,272199,270836,357532
653222845309663184,272554,270819,357444
653222845317099699,272510,270621,357429
653222845324536214,272637,270655,357366
653222845331972729,272652,270631,357322
653222845339409244,272714,270613,357350
653222845346845759,272659,270681,357404
653222845354282274,272610,270657,357364
653222845361718789,272660,270623,357487
653222845369155304,272717,270608,357485
653222845376591819,272763,270654,357522
653222845384028334,272729,270755,357578
653222845391464849,272646,270688,357418
653222845398901364,272588,270647,357562
653222845406337879,272734,270711,357537
653222845413774394,272663,270803,357722
653222845421210909,272770,270914,357713
653222845428647424,272799,270840,357698
653222845436099419,272659,271125,357788
653222845443535024,272715,271051,357910
653222845450970629,272721,271078,357763
653222845458406234,272911,270960,357839
653222845465841839,272920,270926,357913
653222845473277444,272895,270946,358034
653222845480713049,272956,271055,358054
653222845488148654,273046,271062,358083
653222845495584259,273142,271094,358096
653222845503019864,273112,271054,358228
653222845510455469,273039,271078,358297
653222845517891074,273114,270993,358327
653222845525326679,273159,271092,358353
653222845532762284,273180,271188,358501
653222845540197889,273182,271230,358492
653222845547633494,273253,271187,358544
653222845555069099,273192,271195,358527
653222845562504704,273317,271284,358612
653222845569955785,273586,271022,358748
653222845577390480,273505,271223,358817
653222845584825175,273541,271281,358807
653222845592259870,273497,271439,358937
653222845599694565,273517,271381,358979
653222845607129260,273491,271321,358995
653222845614563955,273589,271356,359167
653222845621998650,273611,271312,359165
653222845629433345,273651,271450,359189
653222845636868040,273666,271493,359202
653222845644302735,273724,271532,359256
653222845651737430,273802,271621,359400
653222845659172125,273840,271741,359415
653222845666606820,273950,271793,359418
653222845674041515,273822,271737,359499
653222845681476210,273901,271863,359639
653222845688910905,273949,271693,359664
653222845696345600,274038,271782,359681
653222845703733887,273841,271815,359936
653222845711171312,274097,271882,360028
653222845718608737,274018,271951,359873
653222845726046162,274145,271945,360065
653222845733483587,274102,271927,360053
653222845740921012,274076,271964,360057
653222845748358437,274047,271976,360041
653222845755795862,274007,271938,359942
653222845763233287,274004,271952,359868
653222845770670712,273876,271848,359840
653222845778108137,273837,271830,359711
653222845785545562,273904,271814,359653
653222845792982987,273806,271741,359590
653222845800420412,273798,271647,359296
653222845807857837,273642,271441,359143
653222845815295262,273595,271393,359005
653222845822732687,273819,271676,359060
653222845830170112,273629,271560,358938
653222845837561124,273720,271069,358657
653222845845001280,273553,271255,358571
653222845852441436,273421,271177,358425
653222845859881592,273270,271128,358387
653222845867321748,273190,271023,358293
653222845874761904,273138,271098,358210
653222845882202060,273094,270990,358028
653222845889642216,273041,270920,357975
653222845897082372,272918,270931,357925
653222845904522528,272905,270843,357878
653222845911962684,272935,271024,357891
653222845919402840,272818,270874,357923
653222845926842996,272840,270816,357857
653222845934283152,272863,270880,357851
653222845941723308,272738,270777,357660
653222845949163464,272757,270656,357635
653222845956603620,272769,270756,357579
653222845964043776,272733,270623,357581
653222845971561307,272974,270506,357607
653222845978996912,272945,270633,357691
653222845986432517,272762,270760,357647
653222845993868122,272716,270731,357666
653222846001303727,272819,270874,357583
653222846008739332,272819,270707,357623
653222846016174937,272703,270659,357585
653222846023610542,272649,270674,357654
653222846031046147,272842,270707,357615
653222846038481752,272702,270720,357613
653222846045917357,272718,270779,357650
653222846053352962,272730,270833,357749
653222846060788567,272795,270771,357762
653222846068224172,272771,270788,357776
653222846075659777,272678,270619,357662
653222846083095382,272682,270693,357661
653222846090530987,272711,270706,357699
653222846097966592,272709,270642,357690
653222846105386733,272713,270665,357527
653222846112823248,272719,270664,357651
653222846120259763,272840,270703,357820
653222846127696278,272735,270675,357772
653222846135132793,272814,270810,357864
653222846142569308,272817,270733,357872
653222846150005823,272818,270770,357866
653222846157442338,272872,270731,357760
653222846164878853,272839,270682,357798
653222846172315368,272846,270748,357947
653222846179751883,272749,270698,357941
653222846187188398,272769,270760,357988
653222846194624913,272817,270734,358008
653222846202061428,272901,270776,358003
653222846209497943,272979,270820,358075
653222846216934458,272915,270798,358117
653222846224370973,272928,270843,358023
653222846231807488,272939,270837,358225
653222846239274953,273182,270777,358041
653222846246709648,273065,270784,358230
653222846254144343,272962,270938,358288
653222846261579038,273096,270963,358354
653222846269013733,273036,270972,358423
653222846276448428,273104,270927,358564
653222846283883123,273227,271035,358577
653222846291317818,273191,270997,358684
653222846298752513,273172,271056,358662
653222846306187208,273290,270941,358760
653222846313621903,273334,271060,358864
653222846321056598,273379,271095,358941
653222846328491293,273369,271248,359057
653222846335925988,273367,271266,359040
653222846343360683,273412,271304,359139
653222846350795378,273489,271359,359126
653222846358230073,273505,271257,359089
653222846365664768,273619,271293,359216
653222846373022098,273480,271062,358944
653222846380461344,273554,271236,359244
653222846387900590,273463,271399,359389
653222846395339836,273693,271515,359451
653222846402779082,273723,271493,359457
653222846410218328,273739,271454,359565
653222846417657574,273790,271445,359682
653222846425096820,273803,271597,359854
653222846432536066,273770,271452,359839
653222846439975312,273947,271655,359910
653222846447414558,274032,271680,360005
653222846454853804,273928,271601,360022
653222846462293050,273994,271688,359976
653222846469732296,273959,271747,360047
653222846477171542,274054,271765,360125
653222846484610788,274103,271836,360148
653222846492050034,274093,271790,360142
653222846499489280,274101,271772,360043
653222846506990427,274275,271759,359772
653222846514426032,274115,271811,359926
653222846521861637,274048,271741,359973
653222846529297242,273932,271670,359876
653222846536732847,273933,271632,359689
653222846544168452,273812,271677,359601
653222846551604057,273608,271469,359609
653222846559039662,273696,271374,359286
653222846566475267,273683,271398,359190
653222846573910872,273615,271272,359063
653222846581346477,273462,271267,358931
653222846588782082,273390,271169,358826
653222846596217687,273259,271141,358764
653222846603653292,273264,271022,358621
653222846611088897,273155,270840,358560
653222846618524502,273072,270848,358400
653222846625960107,272902,270846,358191
653222846633395712,272886,270800,358191
653222846640784896,273161,270928,358012
653222846648223232,272916,270793,357962
653222846655661568,272858,270770,357933
653222846663099904,272686,270567,357835
653222846670538240,272596,270591,357545
653222846677976576,272631,270522,357511
653222846685414912,272501,270484,357588
653222846692853248,272584,270436,357450
653222846700291584,272449,270348,357433
653222846707729920,272477,270309,357341
653222846715168256,272326,270324,357333
653222846722606592,272365,270336,357345
653222846730044928,272293,270258,357189
653222846737483264,272326,270226,357245
653222846744921600,272330,270244,357167
653222846752359936,272280,270201,357032
653222846759798272,272105,270241,357137
653222846767236608,272151,270091,357189
653222846774721371,272483,270343,357154
653222846782156976,272315,270211,357154
653222846789592581,272283,270207,357059
653222846797028186,272383,270171,357088
653222846804463791,272356,270096,357104
653222846811899396,272307,270079,357099
653222846819335001,272277,270066,357157
653222846826770606,272199,269940,357215
653222846834206211,272178,270052,357201
653222846841641816,272200,270066,357179
653222846849077421,272167,269874,357131
653222846856513026,272157,270039,357127
653222846863948631,272130,269962,357040
653222846871384236,272134,269988,357074
653222846878819841,272109,270096,356996
653222846886255446,272187,270046,356969
653222846893691051,272176,270052,357049
653222846901126656,272071,269990,357023
653222846908546797,272034,270257,356961
653222846915983312,272040,270177,356998
653222846923419827,272110,270140,357164
653222846930856342,272224,270017,357193
653222846938292857,272292,270072,357183
653222846945729372,272312,270024,357344
653222846953165887,272290,270112,357312
653222846960602402,272475,269935,357548
653222846968038917,272376,270155,357620
653222846975475432,272295,270151,357432
653222846982911947,272349,270105,357432
653222846990348462,272372,270191,357387
653222846997784977,272292,270209,357572
653222847005221492,272354,270261,357450
653222847012658007,272417,270238,357612
653222847020094522,272462,270247,357590
653222847027531037,272387,270236,357623
653222847034967552,272405,270119,357780
653222847042435017,272678,270305,357614
653222847049869712,272535,270259,357759
653222847057304407,272476,270278,357855
653222847064739102,272488,270284,357938
653222847072173797,272532,270309,358073
653222847079608492,272544,270282,358012
653222847087043187,272618,270304,357947
653222847094477882,272625,270356,358094
653222847101912577,272677,270401,358189
653222847109347272,272713,270493,358134
653222847116781967,272741,270494,358295
653222847124216662,272733,270611,358460
653222847131651357,272853,270566,358324
653222847139086052,272842,270582,358444
653222847146520747,272921,270557,358490
653222847153955442,272987,270762,358599
653222847161390137,273053,270778,358563
653222847168824832,272921,270735,358735
653222847176182162,273290,270789,358744
653222847183621408,273209,270867,358797
653222847191060654,273150,270851,358727
653222847198499900,273176,270808,358866
653222847205939146,273263,270767,358820
653222847213378392,273270,270830,359057
653222847220817638,273256,270957,359178
653222847228256884,273231,271011,359319
653222847235696130,273202,270997,359311
653222847243135376,273334,270995,359219
653222847250574622,273290,270914,359289
653222847258013868,273397,271012,359347
653222847265453114,273417,271130,359309
653222847272892360,273518,271075,359283
653222847280331606,273443,270956,359338
653222847287770852,273388,270869,359306
653222847295210098,273498,270878,359140
653222847302649344,273212,270863,358904
653222847310165961,273082,270766,358573
653222847317600656,273087,270677,358492
653222847325035351,273002,270714,358390
653222847332470046,272889,270654,358305
653222847339904741,272840,270495,358213
653222847347339436,272693,270402,358067
653222847354774131,272594,270225,357831
653222847362208826,272461,270307,357633
653222847369643521,272416,270222,357691
653222847377078216,272368,270171,357398
653222847384512911,272250,270005,357383
653222847391947606,272168,270007,357218
653222847399382301,272066,269940,357203
653222847406816996,271981,269850,357021
653222847414251691,272054,269874,356876
653222847421686386,272002,269741,356831
653222847429121081,271956,269713,356736
653222847436555776,271793,269732,356730
653222847443944063,271558,269742,356653
653222847451381488,271611,269631,356509
653222847458818913,271636,269597,356472
653222847466256338,271596,269562,356284
653222847473693763,271619,269447,356237
653222847481131188,271498,269363,356184
653222847488568613,271527,269331,356167
653222847496006038,271413,269308,356005
653222847503443463,271450,269120,356131
653222847510880888,271549,269261,355976
653222847518318313,271478,269243,356053
653222847525755738,271397,269246,355994
653222847533193163,271344,269236,355925
653222847540630588,271357,269263,355809
653222847548068013,271330,269238,356010
653222847555505438,271218,269314,355997
653222847562942863,271255,269192,355981
653222847570380288,271153,269178,355914
653222847577817727,271371,268973,356352
653222847585255152,271298,269070,356016
653222847592692577,271290,269160,355964
653222847600130002,271325,269166,356013
653222847607567427,271301,269158,356071
653222847615004852,271134,269049,355957
653222847622442277,271226,269153,355941
653222847629879702,271201,269208,355958
653222847637317127,271131,269073,355877
653222847644754552,271136,269077,355928
653222847652191977,271293,269157,355953
653222847659629402,271245,269191,355842
653222847667066827,271102,269061,355863
653222847674504252,271233,269080,355863
653222847681941677,271194,269103,355977
653222847689379102,271146,269106,355974
653222847696816527,271245,269115,355876
653222847704253952,271277,269156,355996
653222847711737801,271254,269257,355814
653222847719172496,271318,269187,356014
653222847726607191,271257,269138,356113
653222847734041886,271366,269078,356156
653222847741476581,271363,269154,356230
653222847748911276,271338,269135,356289
653222847756345971,271393,269189,356373
653222847763780666,271302,269226,356395
653222847771215361,271257,269283,356288
653222847778650056,271384,269301,356374
653222847786084751,271442,269306,356526
653222847793519446,271540,269335,356601
653222847800954141,271543,269254,356596
653222847808388836,271568,269350,356621
653222847815823531,271560,269435,356651
653222847823258226,271501,269346,356754
653222847830692921,271543,269451,356706
653222847838127616,271650,269478,356798
653222847845484946,271863,269829,356989
653222847852924192,271739,269727,357053
653222847860363438,271744,269674,357040
653222847867802684,271756,269583,356999
653222847875241930,271841,269594,357055
653222847882681176,271841,269652,357177
653222847890120422,271833,269666,357146
653222847897559668,271797,269608,357108
653222847904998914,271946,269777,357188
653222847912438160,271876,269701,357240
653222847919877406,271904,269772,357296
653222847927316652,271921,269782,357440
653222847934755898,272046,269821,357477
653222847942195144,271966,269877,357531
653222847949634390,272016,269880,357562
653222847957073636,272088,269879,357707
653222847964512882,272192,270024,357791
653222847971952128,272253,270046,357951
653222847979437805,272422,270021,358129
653222847986874320,272327,270068,358043
653222847994310835,272339,270087,358023
653222848001747350,272356,270056,358107
653222848009183865,272454,270135,358135
653222848016620380,272534,270256,358194
653222848024056895,272601,270231,358247
653222848031493410,272680,270171,358365
653222848038929925,272503,270270,358242
653222848046366440,272473,270224,358193
653222848053802955,272483,270287,358211
653222848061239470,272428,270282,358059
653222848068675985,272344,270209,357949
653222848076112500,272259,270113,357925
653222848083549015,272163,270142,357861
653222848090985530,272185,270023,357647
653222848098422045,272102,269818,357562
653222848105858560,271999,269798,357437
653222848113279615,272259,269613,357362
653222848120717040,271966,269796,357262
653222848128154465,271948,269570,357033
653222848135591890,271814,269686,357019
653222848143029315,271722,269526,356783
653222848150466740,271664,269510,356663
653222848157904165,271584,269412,356466
653222848165341590,271457,269264,356353
653222848172779015,271423,269298,356238
653222848180216440,271304,269246,356156
653222848187653865,271302,269097,356026
653222848195091290,271189,269167,355926
653222848202528715,271111,269150,355719
653222848209966140,270936,269063,355753
653222848217403565,270949,269037,355636
653222848224840990,270944,268957,355543
653222848232278415,270834,268969,355502
653222848239715840,270801,268836,355465
653222848247168749,270749,268932,355216
653222848254605264,270766,268860,355179
653222848262041779,270689,268769,355213
653222848269478294,270681,268752,355375
653222848276914809,270601,268692,355238
653222848284351324,270510,268638,355279
653222848291787839,270609,268717,355195
653222848299224354,270550,268635,355125
653222848306660869,270577,268606,355058
653222848314097384,270540,268640,355170
653222848321533899,270546,268582,355134
653222848328970414,270616,268590,355142
653222848336406929,270446,268689,355124
653222848343843444,270492,268688,355084
653222848351279959,270585,268643,355098
653222848358716474,270531,268723,355213
653222848366152989,270568,268646,355125
653222848373589504,270483,268609,355024
653222848381010559,270760,268311,355219
653222848388447984,270574,268470,355099
653222848395885409,270489,268548,355054
653222848403322834,270547,268540,355106
653222848410760259,270453,268629,355020
653222848418197684,270491,268678,355102
653222848425635109,270432,268530,355032
653222848433072534,270364,268628,355040
653222848440509959,270410,268594,355020
653222848447947384,270468,268633,355031
653222848455384809,270414,268620,354961
653222848462822234,270479,268657,355044
653222848470259659,270489,268712,355147
653222848477697084,270481,268708,355126
653222848485134509,270464,268599,355242
653222848492571934,270602,268725,355210
653222848500009359,270561,268627,355243
653222848507446784,270660,268582,355278
653222848514930633,270564,268474,355297
653222848522365328,270694,268610,355405
653222848529800023,270637,268734,355390
653222848537234718,270740,268730,355482
653222848544669413,270646,268745,355472
653222848552104108,270635,268779,355517
653222848559538803,270693,268868,355460
653222848566973498,270683,268836,355446
653222848574408193,270742,268867,355511
653222848581842888,270852,268804,355626
653222848589277583,270890,268970,355712
653222848596712278,270881,269018,355695
653222848604146973,270946,269128,355847
653222848611581668,270962,269166,355994
653222848619016363,270988,269181,355974
653222848626451058,271000,269132,356039
653222848633885753,271028,269183,355994
653222848641320448,271081,269087,356081
653222848648693248,270918,268922,356014
653222848656131584,270978,269189,356136
653222848663569920,271086,269256,356204
653222848671008256,271260,269293,356343
653222848678446592,271293,269389,356448
653222848685884928,271384,269366,356555
653222848693323264,271423,269371,356638
653222848700761600,271431,269407,356567
653222848708199936,271468,269485,356625
653222848715638272,271430,269532,356722
653222848723076608,271502,269670,356740
653222848730514944,271551,269697,356856
653222848737953280,271568,269641,356924
653222848745391616,271581,269652,356870
653222848752829952,271555,269746,357067
653222848760268288,271701,269697,357189
653222848767706624,271842,269752,357158
653222848775144960,271492,269855,357281
653222848782629723,271601,269853,357316
653222848790065328,271730,269843,357411
653222848797500933,271721,269766,357418
653222848804936538,271903,269868,357606
653222848812372143,271922,270021,357624
653222848819807748,271919,270044,357609
653222848827243353,271995,270035,357762
653222848834678958,272083,270067,357831
653222848842114563,272142,270235,357934
653222848849550168,271948,270035,357752
653222848856985773,272008,270074,357747
653222848864421378,272097,270123,357633
653222848871856983,272067,270083,357574
653222848879292588,272029,270020,357348
653222848886728193,271918,270042,357375
653222848894163798,271819,269928,357302
653222848901599403,271696,269997,357159
653222848909035008,271696,269894,357013
653222848916424192,271505,269973,356722
653222848923862528,271550,269819,356579
653222848931300864,271521,269632,356566
653222848938739200,271434,269652,356465
653222848946177536,271344,269604,356346
653222848953615872,271365,269543,356346
653222848961054208,271408,269390,356090
653222848968492544,271284,269367,356047
653222848975930880,271052,269255,355930
653222848983369216,270966,269283,355680
653222848990807552,270910,269267,355540
653222848998245888,270914,269291,355557
653222849005684224,270939,269220,355516
653222849013122560,270938,269061,355473
653222849020560896,270787,269199,355584
653222849027999232,270803,269188,355492
653222849035437568,270760,269126,355420
653222849042875904,270789,269113,355277
653222849050329727,270745,268776,355337
653222849057767152,270694,268941,355299
653222849065204577,270736,268985,355128
653222849072642002,270713,268901,355133
653222849080079427,270665,268981,354973
653222849087516852,270677,268913,355100
653222849094954277,270556,268912,354996
653222849102391702,270602,268993,354942
653222849109829127,270564,269011,354980
653222849117266552,270592,269028,354870
653222849124703977,270635,268976,354902
653222849132141402,270646,268946,354853
653222849139578827,270691,269001,354802
653222849147016252,270648,268984,354890
653222849154453677,270501,269036,355014
653222849161891102,270616,269073,354957
653222849169328527,270653,268874,354991
653222849176765952,270591,268831,354965
653222849184234331,270756,269278,354927
653222849191669936,270622,269156,355037
653222849199105541,270607,269163,354974
653222849206541146,270656,269076,355110
653222849213976751,270655,269036,355099
653222849221412356,270611,269046,355056
653222849228847961,270619,268986,355143
653222849236283566,270629,269015,355183
653222849243719171,270639,269111,355026
653222849251154776,270668,269110,355002
653222849258590381,270565,269033,355082
653222849266025986,270691,269061,355184
653222849273461591,270664,269086,355186
653222849280897196,270590,269103,355167
653222849288332801,270648,269116,355262
653222849295768406,270717,269166,355281
653222849303204011,270631,269103,355440
653222849310639616,270777,268978,355437
653222849318028800,271106,269337,355251
653222849325467136,270981,269266,355514
653222849332905472,270877,269206,355472
653222849340343808,270943,269195,355608
653222849347782144,270865,269143,355589
653222849355220480,270915,269164,355651
653222849362658816,270947,269345,355660
653222849370097152,270925,269404,355796
653222849377535488,270976,269357,355801
653222849384973824,271102,269479,355893
653222849392412160,271169,269550,355996
653222849399850496,271197,269507,355968
653222849407288832,271111,269470,356064
653222849414727168,271083,269462,355893
653222849422165504,271210,269590,356141
653222849429603840,271253,269590,356160
653222849437042176,271231,269566,356183
653222849444480512,271263,269580,356333
653222849451965275,271059,269847,356675
653222849459400880,271178,269754,356593
653222849466836485,271409,269768,356497
653222849474272090,271417,269672,356555
653222849481707695,271396,269787,356680
653222849489143300,271452,269809,356642
653222849496578905,271579,269863,356648
653222849504014510,271647,269865,356808
653222849511450115,271627,269872,356849
653222849518885720,271614,269913,356806
653222849526321325,271662,269873,357043
653222849533756930,271683,270034,357095
653222849541192535,271832,270105,357218
653222849548628140,271840,270110,357205
653222849556063745,271905,270164,357275
653222849563499350,271951,270123,357265
653222849570934955,271942,270125,357268
653222849578370560,271964,270160,357487
653222849585759744,271798,270036,357742
653222849593198080,271818,270227,357660
653222849600636416,271999,270307,357692
653222849608074752,272008,270285,357607
653222849615513088,271997,270306,357695
653222849622951424,272047,270282,357517
653222849630389760,272015,270329,357598
653222849637828096,272007,270181,357449
653222849645266432,271919,270122,357241
653222849652704768,271766,270137,357144
653222849660143104,271692,270000,357042
653222849667581440,271707,269952,356942
653222849675019776,271691,270080,356831
653222849682458112,271545,270066,356723
653222849689896448,271498,269991,356623
653222849697334784,271546,269939,356387
653222849704773120,271335,269695,356300
653222849712211456,271355,269632,356206
653222849719711689,271576,269454,356254
653222849727146384,271347,269568,356145
653222849734581079,271232,269504,356029
653222849742015774,271202,269633,355952
653222849749450469,271119,269625,355887
653222849756885164,270976,269531,355850
653222849764319859,270989,269478,355764
653222849771754554,270974,269461,355696
653222849779189249,270879,269383,355524
653222849786623944,270891,269377,355477
653222849794058639,270889,269465,355372
653222849801493334,270743,269294,355289
653222849808928029,270867,269331,355362
653222849816362724,270807,269411,355305
653222849823797419,270819,269322,355341
653222849831232114,270700,269327,355371
653222849838666809,270684,269273,355466
653222849846101504,270754,269303,355368
653222849853489791,270765,269098,355306
653222849860927216,270772,269216,355352
653222849868364641,270770,269251,355442
653222849875802066,270772,269229,355405
653222849883239491,270657,269298,355412
653222849890676916,270731,269382,355354
653222849898114341,270764,269311,355301
653222849905551766,270744,269268,355436
653222849912989191,270775,269333,355413
653222849920426616,270749,269422,355520
653222849927864041,270740,269402,355413
653222849935301466,270707,269261,355506
653222849942738891,270743,269350,355483
653222849950176316,270778,269414,355473
653222849957613741,270689,269405,355532
653222849965051166,270812,269359,355518
653222849972488591,270816,269459,355541
653222849979926016,270793,269418,355576
653222849987363455,270918,269148,355856
653222849994800880,270930,269271,355584
653222850002238305,270808,269377,355555
653222850009675730,270817,269472,355675
653222850017113155,270869,269497,355653
653222850024550580,270889,269453,355766
653222850031988005,270911,269477,355794
653222850039425430,270939,269558,355915
653222850046862855,271016,269533,355959
653222850054300280,270962,269539,355984
653222850061737705,271066,269621,355988
653222850069175130,270998,269434,355959
653222850076612555,271034,269537,356047
653222850084049980,271062,269665,356151
653222850091487405,271128,269645,356103
653222850098924830,271082,269796,356218
653222850106362255,271155,269770,356254
653222850113799680,271192,269781,356379
653222850121252589,271112,269956,356190
653222850128689104,271169,269845,356302
653222850136125619,271177,269775,356490
653222850143562134,271218,269736,356356
653222850150998649,271290,269851,356440
653222850158435164,271340,269913,356539
653222850165871679,271425,269975,356596
653222850173308194,271486,270065,356617
653222850180744709,271437,270021,356857
653222850188181224,271542,270095,356970
653222850195617739,271487,270139,357015
653222850203054254,271496,270226,357089
653222850210490769,271557,270279,357161
653222850217927284,271568,270162,357250
653222850225363799,271754,270229,357307
653222850232800314,271682,270321,357401
653222850240236829,271741,270300,357384
653222850247673344,271818,270363,357345
653222850255140809,272037,270544,357723
653222850262575504,271893,270387,357733
653222850270010199,271938,270504,357669
653222850277444894,271870,270445,357657
653222850284879589,271954,270477,357634
653222850292314284,272079,270605,357893
653222850299748979,272102,270546,357946
653222850307183674,272058,270547,358052
653222850314618369,272199,270574,358093
653222850322053064,272232,270736,358199
653222850329487759,272192,270708,358199
653222850336922454,272285,270744,358163
653222850344357149,272290,270781,358307
653222850351791844,272283,270711,358269
653222850359226539,272383,270767,358334
653222850366661234,272360,270853,358385
653222850374095929,272364,270875,358229
653222850381530624,272368,270721,358281
653222850388887954,272159,270781,358398
653222850396327200,272262,270660,358170
653222850403766446,272244,270582,357972
653222850411205692,272171,270520,357817
653222850418644938,272115,270558,357694
653222850426084184,272017,270596,357556
653222850433523430,271832,270556,357481
653222850440962676,271874,270483,357380
653222850448401922,271689,270381,357261
653222850455841168,271721,270273,357143
653222850463280414,271626,270189,356833
653222850470719660,271486,270207,356842
653222850478158906,271489,270134,356723
653222850485598152,271295,270139,356675
653222850493037398,271289,269972,356659
653222850500476644,271316,269951,356457
653222850507915890,271311,269949,356454
653222850515355136,271235,269926,356230
653222850522871753,271264,269732,356454
653222850530306448,271160,269710,356296
653222850537741143,271131,269743,356230
653222850545175838,271153,269865,356159
653222850552610533,271130,269752,356085
653222850560045228,270946,269670,355996
653222850567479923,270971,269756,355929
653222850574914618,270946,269710,355909
653222850582349313,270914,269605,355917
653222850589784008,270918,269618,355794
653222850597218703,270788,269555,355742
653222850604653398,270800,269631,355753
653222850612088093,270709,269533,355801
653222850619522788,270812,269532,355829
653222850626957483,270710,269588,355806
653222850634392178,270799,269557,355825
653222850641826873,270855,269596,355671
653222850649261568,270676,269534,355812
653222850656649855,270992,269419,355585
653222850664087280,270864,269447,355741
653222850671524705,270878,269488,355811
653222850678962130,270820,269614,355892
653222850686399555,270738,269531,355864
653222850693836980,270802,269711,355880
653222850701274405,270821,269657,355795
653222850708711830,270863,269604,355835
653222850716149255,270838,269629,355987
653222850723586680,270781,269606,355953
653222850731024105,270702,269592,355998
653222850738461530,270703,269421,356002
653222850745898955,270653,269500,355885
