timestamp,ch1,ch2,ch3
653225930362817663,-69379,-105307,29838
653225930370257136,-69372,-105250,29969
653225930377696609,-69296,-105228,29911
653225930385136082,-69290,-105337,29903
653225930392575555,-69257,-105254,30031
653225930400015028,-69227,-105221,30041
653225930407454501,-69307,-105317,30092
653225930414893974,-69202,-105206,30140
653225930422333447,-69269,-105116,30042
653225930429772920,-69212,-105105,30142
653225930437212393,-69276,-105178,30208
653225930444651866,-69238,-105010,30209
653225930452091339,-69084,-105190,30314
653225930459530812,-69129,-105059,30220
653225930466970285,-68959,-104952,30306
653225930474409758,-69007,-104881,30210
653225930481849231,-69004,-104917,30313
653225930489288704,-69074,-104975,30239
653225930496756224,-69135,-104732,30579
653225930504194048,-68918,-104808,30526
653225930511631872,-68942,-104897,30485
653225930519069696,-68857,-104876,30413
653225930526507520,-68839,-104786,30468
653225930533945344,-68778,-104709,30595
653225930541383168,-68834,-104760,30631
653225930548820992,-68761,-104787,30802
653225930556258816,-68680,-104771,30723
653225930563696640,-68760,-104798,30667
653225930571134464,-68657,-104707,30669
653225930578572288,-68702,-104659,30825
653225930586010112,-68748,-104614,30764
653225930593447936,-68687,-104686,30747
653225930600885760,-68647,-104641,30784
653225930608323584,-68527,-104555,30837
653225930615761408,-68674,-104639,30819
653225930623199232,-68590,-104583,30839
653225930630695094,-68431,-104255,31184
653225930638129504,-68481,-104384,31071
653225930645563914,-68531,-104453,31009
653225930652998324,-68528,-104541,31147
653225930660432734,-68466,-104510,31032
653225930667867144,-68362,-104550,30974
653225930675301554,-68506,-104530,31093
653225930682735964,-68632,-104650,30976
653225930690170374,-68600,-104573,30925
653225930697604784,-68687,-104659,30834
653225930705039194,-68639,-104810,30892
653225930712473604,-68647,-104730,30869
653225930719908014,-68756,-104712,30829
653225930727342424,-68688,-104676,30818
653225930734776834,-68845,-104647,30784
653225930742211244,-68914,-104806,30724
653225930749645654,-68974,-104904,30627
653225930757080064,-69047,-104873,30647
653225930764427446,-68860,-104687,30700
653225930771866976,-69005,-104780,30653
653225930779306506,-69069,-104843,30624
653225930786746036,-69033,-104859,30521
653225930794185566,-69119,-104920,30612
653225930801625096,-69131,-104837,30666
653225930809064626,-69010,-104823,30736
653225930816504156,-69127,-104855,30732
653225930823943686,-69101,-104906,30647
653225930831383216,-69092,-104871,30637
653225930838822746,-69203,-104890,30579
653225930846262276,-69202,-104966,30547
653225930853701806,-69295,-104886,30580
653225930861141336,-69233,-104896,30513
653225930868580866,-69389,-104886,30549
653225930876020396,-69324,-104950,30573
653225930883459926,-69280,-104872,30542
653225930890899456,-69231,-104862,30604
6.53226E+17,-68976,-104975,30528
653225930905805824,-69080,-104943,30673
653225930913243648,-69121,-104854,30696
653225930920681472,-69182,-104859,30756
653225930928119296,-69155,-104932,30648
653225930935557120,-69184,-104805,30590
653225930942994944,-69140,-104808,30715
653225930950432768,-69243,-104862,30819
653225930957870592,-69206,-104848,30757
653225930965308416,-69078,-104778,30814
653225930972746240,-69062,-104811,30864
653225930980184064,-69027,-104718,30887
653225930987621888,-69066,-104886,30962
653225930995059712,-69014,-104806,30922
653225931002497536,-68979,-104793,30912
653225931009935360,-69023,-104653,30922
653225931017373184,-68954,-104774,30931
653225931024811008,-69027,-104742,31031
653225931032277851,-68753,-104465,30753
653225931039713968,-68842,-104596,30918
653225931047150085,-68785,-104570,31207
653225931054586202,-68804,-104574,31190
653225931062022319,-68823,-104640,31199
653225931069458436,-68820,-104554,31140
653225931076894553,-68843,-104623,31186
653225931084330670,-68733,-104669,31238
653225931091766787,-68735,-104606,31310
653225931099202904,-68710,-104467,31327
653225931106639021,-68735,-104474,31419
653225931114075138,-68687,-104505,31437
653225931121511255,-68618,-104519,31465
653225931128947372,-68660,-104517,31348
653225931136383489,-68552,-104519,31579
653225931143819606,-68637,-104531,31579
653225931151255723,-68611,-104464,31613
653225931158691840,-68621,-104535,31489
653225931166099913,-68760,-104257,31505
653225931173537680,-68548,-104404,31620
653225931180975447,-68607,-104487,31602
653225931188413214,-68554,-104527,31607
653225931195850981,-68502,-104528,31778
653225931203288748,-68390,-104588,31705
653225931210726515,-68282,-104464,31834
653225931218164282,-68396,-104443,31925
653225931225602049,-68310,-104378,31919
653225931233039816,-68279,-104362,32031
653225931240477583,-68191,-104301,32040
653225931247915350,-68265,-104404,32080
653225931255353117,-68088,-104326,32169
653225931262790884,-68092,-104208,32211
653225931270228651,-68085,-104403,32148
653225931277666418,-68092,-104264,32239
653225931285104185,-68028,-104205,32309
653225931292541952,-67980,-104272,32380
653225931299978752,-67934,-104264,32723
653225931307416576,-67935,-104318,32543
653225931314854400,-67911,-104194,32538
653225931322292224,-67838,-104164,32593
653225931329730048,-67810,-104036,32655
653225931337167872,-67779,-104070,32693
653225931344605696,-67731,-104021,32764
653225931352043520,-67758,-103969,32764
653225931359481344,-67581,-103956,32879
653225931366919168,-67653,-104058,32884
653225931374356992,-67582,-103960,32927
653225931381794816,-67436,-104011,32979
653225931389232640,-67570,-103950,32969
653225931396670464,-67448,-104017,33104
653225931404108288,-67464,-103998,33026
653225931411546112,-67386,-103902,33128
653225931418983936,-67493,-104021,33075
653225931426421760,-67590,-104010,32989
653225931433917622,-67672,-104195,33163
653225931441352032,-67596,-104108,33122
653225931448786442,-67605,-104111,33062
653225931456220852,-67623,-104196,32898
653225931463655262,-67764,-104208,32892
653225931471089672,-67745,-104127,32851
653225931478524082,-67838,-104090,32819
653225931485958492,-67766,-104096,32869
653225931493392902,-67839,-104093,32915
653225931500827312,-67831,-104221,32791
653225931508261722,-67855,-104217,32703
653225931515696132,-67971,-104277,32750
653225931523130542,-67955,-104316,32775
653225931530564952,-68023,-104340,32803
653225931537999362,-68017,-104354,32702
653225931545433772,-68174,-104400,32566
653225931552868182,-68103,-104345,32686
653225931560302592,-68094,-104587,32819
653225931567649974,-68288,-104251,32962
653225931575089504,-68215,-104369,32862
653225931582529034,-68275,-104362,32825
653225931589968564,-68229,-104466,32787
653225931597408094,-68231,-104539,32619
653225931604847624,-68235,-104482,32753
653225931612287154,-68219,-104487,32730
653225931619726684,-68150,-104523,32826
653225931627166214,-68213,-104541,32762
653225931634605744,-68221,-104457,32856
653225931642045274,-68220,-104524,32928
653225931649484804,-68248,-104450,32863
653225931656924334,-68195,-104528,32851
653225931664363864,-68232,-104470,32835
653225931671803394,-68101,-104565,32869
653225931679242924,-68141,-104463,32919
653225931686682454,-68108,-104471,32947
653225931694121984,-68002,-104369,33015
653225931701648566,-67925,-104377,33072
653225931709082976,-68022,-104537,33144
653225931716517386,-68063,-104501,33161
653225931723951796,-68036,-104418,33129
653225931731386206,-68033,-104440,33188
653225931738820616,-68027,-104545,33098
653225931746255026,-68131,-104559,33095
653225931753689436,-68021,-104491,33223
653225931761123846,-67986,-104478,33208
653225931768558256,-67984,-104311,33255
653225931775992666,-68010,-104342,33235
653225931783427076,-68121,-104360,33249
653225931790861486,-68010,-104346,33309
653225931798295896,-68008,-104377,33252
653225931805730306,-67942,-104352,33382
653225931813164716,-67924,-104463,33428
653225931820599126,-67772,-104454,33417
653225931828033536,-67889,-104420,33326
653225931835380918,-67849,-104650,33434
653225931842820448,-67839,-104485,33512
653225931850259978,-67885,-104425,33557
653225931857699508,-67747,-104437,33583
653225931865139038,-67707,-104436,33654
653225931872578568,-67643,-104380,33718
653225931880018098,-67661,-104268,33822
653225931887457628,-67574,-104353,33703
653225931894897158,-67538,-104371,33828
653225931902336688,-67563,-104267,33873
653225931909776218,-67547,-104281,33887
653225931917215748,-67561,-104255,34031
653225931924655278,-67471,-104234,34100
653225931932094808,-67468,-104217,33993
653225931939534338,-67350,-104212,34101
653225931946973868,-67389,-104349,34057
653225931954413398,-67334,-104258,34067
653225931961852928,-67218,-104312,34240
653225931969322441,-67277,-104453,34376
653225931976760208,-67258,-104217,34427
653225931984197975,-67197,-104169,34489
653225931991635742,-67128,-104136,34562
653225931999073509,-67078,-104075,34634
653225932006511276,-67049,-104111,34672
653225932013949043,-67015,-104102,34737
653225932021386810,-66981,-104161,34786
653225932028824577,-66986,-104037,34838
653225932036262344,-66881,-104033,34854
653225932043700111,-66969,-104023,34784
653225932051137878,-66898,-103918,34861
653225932058575645,-66851,-103819,34957
653225932066013412,-66756,-103866,35029
653225932073451179,-66783,-103854,35016
653225932080888946,-66697,-103936,35106
653225932088326713,-66714,-103933,35078
653225932095764480,-66600,-103917,35263
653225932103258349,-66645,-103817,35463
653225932110692816,-66560,-103862,35402
653225932118127283,-66568,-103798,35504
653225932125561750,-66437,-103708,35556
653225932132996217,-66339,-103658,35576
653225932140430684,-66324,-103677,35602
653225932147865151,-66378,-103665,35600
653225932155299618,-66184,-103637,35741
653225932162734085,-66157,-103684,35776
653225932170168552,-66115,-103633,35753
653225932177603019,-66164,-103702,35786
653225932185037486,-66248,-103766,35868
653225932192471953,-66290,-103824,35869
653225932199906420,-66159,-103780,35974
653225932207340887,-66156,-103767,35843
653225932214775354,-66156,-103739,35884
653225932222209821,-66165,-103728,35953
653225932229644288,-66276,-103738,35879
653225932236964644,-66366,-103832,35995
653225932244405824,-66299,-103792,35938
653225932251847004,-66436,-103739,35896
653225932259288184,-66337,-103877,35780
653225932266729364,-66396,-103816,35806
653225932274170544,-66502,-103943,35756
653225932281611724,-66512,-103927,35708
653225932289052904,-66636,-103924,35682
653225932296494084,-66851,-103826,35682
653225932303935264,-66670,-103841,35748
653225932311376444,-66531,-103824,35719
653225932318817624,-66420,-103947,35680
653225932326258804,-66612,-104027,35525
653225932333699984,-66644,-104042,35435
653225932341141164,-66558,-104085,35585
653225932348582344,-66713,-104156,35603
653225932356023524,-66738,-104105,35656
653225932363464704,-66844,-104167,35630
653225932370991963,-66686,-104370,35467
653225932378428080,-66720,-104324,35518
653225932385864197,-66743,-104240,35487
653225932393300314,-66781,-104180,35497
653225932400736431,-66879,-104125,35508
653225932408172548,-66860,-104037,35544
653225932415608665,-66868,-104161,35456
653225932423044782,-66773,-104187,35522
653225932430480899,-66728,-103958,35604
653225932437917016,-66808,-104114,35492
653225932445353133,-66827,-104110,35556
653225932452789250,-66830,-104129,35663
653225932460225367,-66777,-104089,35637
653225932467661484,-66771,-103910,35752
653225932475097601,-66877,-104086,35668
653225932482533718,-66813,-103976,35748
653225932489969835,-66789,-103942,35730
653225932497405952,-66727,-103992,35683
653225932504813056,-66661,-104069,36019
653225932512250880,-66825,-104036,35888
653225932519688704,-66766,-103905,35865
653225932527126528,-66751,-104111,35644
653225932534564352,-66806,-104033,35795
653225932542002176,-66740,-103971,35798
6.53226E+17,-66808,-104033,35801
653225932556877824,-66863,-104022,35775
653225932564315648,-66780,-103957,35708
653225932571753472,-66679,-103920,35791
653225932579191296,-66688,-103978,35780
653225932586629120,-66587,-103932,35873
653225932594066944,-66620,-104038,35810
653225932601504768,-66662,-103960,35888
653225932608942592,-66536,-103882,35914
653225932616380416,-66538,-103852,35937
653225932623818240,-66567,-103995,35910
653225932631256064,-66704,-103882,35929
653225932638722907,-66534,-103871,36312
653225932646159024,-66530,-103798,36144
653225932653595141,-66499,-103833,36129
653225932661031258,-66510,-103826,35993
653225932668467375,-66419,-103822,35988
653225932675903492,-66472,-103823,36009
653225932683339609,-66442,-103773,36078
653225932690775726,-66454,-103836,36096
653225932698211843,-66352,-103778,36132
653225932705647960,-66380,-103787,36113
653225932713084077,-66404,-103766,36195
653225932720520194,-66385,-103758,36184
653225932727956311,-66310,-103701,36149
653225932735392428,-66271,-103811,36163
653225932742828545,-66262,-103714,36123
653225932750264662,-66309,-103695,36098
653225932757700779,-66127,-103651,36282
653225932765136896,-66150,-103755,36253
653225932772515967,-66418,-103480,36109
653225932779955440,-66268,-103575,36269
653225932787394913,-66188,-103619,36321
653225932794834386,-66235,-103578,36396
653225932802273859,-66197,-103700,36398
653225932809713332,-66176,-103528,36398
653225932817152805,-66128,-103595,36473
653225932824592278,-66019,-103549,36397
653225932832031751,-65995,-103594,36402
653225932839471224,-65898,-103555,36463
653225932846910697,-66027,-103523,36480
653225932854350170,-65972,-103453,36510
653225932861789643,-65953,-103500,36576
653225932869229116,-65924,-103370,36599
653225932876668589,-65753,-103342,36729
653225932884108062,-65774,-103353,36762
653225932891547535,-65801,-103367,36762
653225932898987008,-65833,-103285,36716
653225932906511597,-65614,-103273,36667
653225932913946064,-65705,-103367,36750
653225932921380531,-65698,-103238,36806
653225932928814998,-65643,-103215,36883
653225932936249465,-65451,-103244,36884
653225932943683932,-65491,-103190,36965
653225932951118399,-65643,-103284,36833
653225932958552866,-65525,-103257,36993
653225932965987333,-65544,-103215,36997
653225932973421800,-65485,-103148,36970
653225932980856267,-65399,-103217,36944
653225932988290734,-65477,-103117,36992
653225932995725201,-65494,-103132,36995
653225933003159668,-65519,-103108,37098
653225933010594135,-65397,-103228,37148
653225933018028602,-65311,-103181,37128
653225933025463069,-65357,-103097,37192
653225933032897536,-65441,-103131,37164
653225933040245942,-65636,-102928,37097
653225933047685472,-65640,-103072,37031
653225933055125002,-65500,-103006,37010
653225933062564532,-65597,-103147,36989
653225933070004062,-65668,-103257,36847
653225933077443592,-65694,-103243,36832
653225933084883122,-65810,-103322,36719
653225933092322652,-65765,-103277,36799
653225933099762182,-65733,-103323,36820
653225933107201712,-65807,-103408,36783
653225933114641242,-66029,-103507,36701
653225933122080772,-65941,-103402,36689
653225933129520302,-65990,-103385,36633
653225933136959832,-66088,-103500,36510
653225933144399362,-66073,-103373,36556
653225933151838892,-66097,-103372,36608
653225933159278422,-66041,-103515,36519
653225933166717952,-66199,-103458,36524
653225933174245503,-65875,-103198,36747
653225933181679856,-66001,-103313,36561
653225933189114209,-66106,-103472,36508
653225933196548562,-66145,-103444,36450
653225933203982915,-66185,-103493,36433
653225933211417268,-66312,-103418,36390
653225933218851621,-66369,-103470,36284
653225933226285974,-66301,-103456,36322
653225933233720327,-66311,-103463,36324
653225933241154680,-66275,-103440,36262
653225933248589033,-66335,-103454,36162
653225933256023386,-66277,-103490,36319
653225933263457739,-66356,-103526,36165
653225933270892092,-66310,-103634,36179
653225933278326445,-66326,-103654,36200
653225933285760798,-66321,-103534,36314
653225933293195151,-66313,-103526,36225
653225933300629504,-66225,-103641,36235
653225933307947812,-66198,-103578,36248
653225933315388992,-66339,-103519,36156
653225933322830172,-66322,-103500,36236
653225933330271352,-66303,-103389,36338
653225933337712532,-66302,-103480,36266
653225933345153712,-66318,-103485,36347
653225933352594892,-66270,-103438,36326
653225933360036072,-66240,-103614,36360
653225933367477252,-66224,-103538,36272
653225933374918432,-66194,-103497,36385
653225933382359612,-66199,-103524,36349
653225933389800792,-66157,-103604,36335
653225933397241972,-66124,-103504,36379
653225933404683152,-66194,-103483,36368
653225933412124332,-66140,-103584,36421
653225933419565512,-66141,-103521,36432
653225933427006692,-66174,-103581,36456
653225933434447872,-66071,-103610,36438
653225933442003181,-66206,-103403,36400
653225933449437648,-66143,-103551,36404
653225933456872115,-66129,-103542,36487
653225933464306582,-66070,-103487,36477
653225933471741049,-66074,-103482,36509
653225933479175516,-66071,-103545,36413
653225933486609983,-66012,-103590,36414
653225933494044450,-65988,-103480,36533
653225933501478917,-66032,-103371,36511
653225933508913384,-65944,-103325,36543
653225933516347851,-65951,-103341,36550
653225933523782318,-65855,-103377,36624
653225933531216785,-65823,-103361,36617
653225933538651252,-65933,-103261,36694
653225933546085719,-65852,-103291,36705
653225933553520186,-65713,-103246,36774
653225933560954653,-65855,-103209,36750
653225933568389120,-65749,-103172,36759
653225933575738495,-65756,-102848,37094
653225933583177968,-65752,-102982,36884
653225933590617441,-65872,-103016,36773
653225933598056914,-65763,-103106,36898
653225933605496387,-65834,-103124,36833
653225933612935860,-65725,-103028,36867
653225933620375333,-65697,-103065,36841
653225933627814806,-65659,-103118,36848
653225933635254279,-65537,-103104,36933
653225933642693752,-65538,-103091,36977
653225933650133225,-65503,-103082,36978
653225933657572698,-65574,-103046,36865
653225933665012171,-65600,-103061,36953
653225933672451644,-65528,-103009,36932
653225933679891117,-65564,-103099,37040
653225933687330590,-65336,-102951,37120
653225933694770063,-65267,-102833,37181
653225933702209536,-65217,-102781,37187
653225933709676104,-65128,-102629,37054
653225933717113984,-65222,-102767,37094
653225933724551864,-65186,-102762,37187
653225933731989744,-65116,-102784,37249
653225933739427624,-65087,-102755,37269
653225933746865504,-65039,-102646,37376
653225933754303384,-65037,-102654,37299
653225933761741264,-65034,-102671,37312
653225933769179144,-64921,-102670,37466
653225933776617024,-64916,-102675,37463
653225933784054904,-64840,-102636,37518
653225933791492784,-64933,-102517,37543
653225933798930664,-64865,-102636,37576
653225933806368544,-64946,-102605,37551
653225933813806424,-64867,-102540,37614
653225933821244304,-64726,-102552,37639
653225933828682184,-64729,-102497,37709
653225933836120064,-64677,-102583,37721
653225933843559881,-64739,-102429,38063
653225933850997648,-64773,-102493,38033
653225933858435415,-64639,-102550,37800
653225933865873182,-64602,-102467,37909
653225933873310949,-64590,-102228,37892
653225933880748716,-64530,-102332,37823
653225933888186483,-64575,-102453,37871
653225933895624250,-64636,-102374,37862
653225933903062017,-64747,-102541,37823
653225933910499784,-64494,-102238,37827
653225933917937551,-64690,-102488,37668
653225933925375318,-64723,-102457,37752
653225933932813085,-64736,-102521,37761
653225933940250852,-64766,-102519,37668
653225933947688619,-64789,-102609,37649
653225933955126386,-64911,-102651,37613
653225933962564153,-64971,-102722,37581
653225933970001920,-65071,-102660,37518
653225933977439689,-65206,-102863,37281
653225933984877456,-65147,-102754,37447
653225933992315223,-65108,-102738,37469
653225933999752990,-65154,-102672,37464
653225934007190757,-65227,-102663,37361
653225934014628524,-65324,-102807,37287
653225934022066291,-65246,-102826,37218
653225934029504058,-65237,-102702,37287
653225934036941825,-65343,-102866,37163
653225934044379592,-65294,-102763,37168
653225934051817359,-65406,-102909,37077
653225934059255126,-65313,-102950,37082
653225934066692893,-65281,-102843,37154
653225934074130660,-65336,-102868,36987
653225934081568427,-65452,-102840,37106
653225934089006194,-65362,-102806,37135
653225934096443961,-65298,-102911,37107
653225934103881728,-65339,-102892,37104
653225934111346578,-65538,-102969,37181
653225934118782752,-65360,-102819,37106
653225934126218926,-65390,-102834,37124
653225934133655100,-65303,-102740,37067
653225934141091274,-65257,-102670,37113
653225934148527448,-65201,-102661,37142
653225934155963622,-65302,-102578,37106
653225934163399796,-65238,-102828,37063
653225934170835970,-65225,-102834,37117
653225934178272144,-65315,-102686,37046
653225934185708318,-65391,-102683,37028
653225934193144492,-65262,-102712,37087
653225934200580666,-65237,-102730,37089
653225934208016840,-65207,-102751,37072
653225934215453014,-65184,-102654,37146
653225934222889188,-65340,-102729,37059
653225934230325362,-65294,-102643,37101
653225934237761536,-65160,-102675,37154
653225934245141631,-65324,-102778,37583
653225934252581104,-65183,-102691,37366
653225934260020577,-65159,-102719,37187
653225934267460050,-65063,-102714,37118
653225934274899523,-65067,-102610,37110
653225934282338996,-65060,-102642,37252
653225934289778469,-65105,-102525,37316
653225934297217942,-65089,-102558,37260
653225934304657415,-64944,-102539,37309
653225934312096888,-64954,-102540,37335
653225934319536361,-64970,-102486,37275
653225934326975834,-64952,-102511,37289
653225934334415307,-64892,-102610,37323
653225934341854780,-64991,-102566,37410
653225934349294253,-64967,-102662,37336
653225934356733726,-64942,-102574,37277
653225934364173199,-64866,-102502,37245
653225934371612672,-64798,-102442,37202
653225934379079240,-64979,-102447,37488
653225934386517120,-64858,-102456,37432
6.53226E+17,-64876,-102484,37529
653225934401392880,-64811,-102392,37640
653225934408830760,-64713,-102571,37484
653225934416268640,-64756,-102463,37503
653225934423706520,-64761,-102580,37600
653225934431144400,-64644,-102416,37625
653225934438582280,-64578,-102434,37602
653225934446020160,-64604,-102337,37591
653225934453458040,-64520,-102375,37679
653225934460895920,-64503,-102289,37631
653225934468333800,-64390,-102351,37683
653225934475771680,-64376,-102277,37721
653225934483209560,-64514,-102320,37692
653225934490647440,-64431,-102205,37689
653225934498085320,-64520,-102203,37762
653225934505523200,-64453,-102164,37814
653225934512992036,-64099,-101863,37627
653225934520428096,-64228,-102081,37777
653225934527864156,-64197,-102111,37802
653225934535300216,-64200,-102130,37841
653225934542736276,-64182,-102125,38017
653225934550172336,-64170,-102006,38038
653225934557608396,-64111,-102050,38042
653225934565044456,-64204,-102061,38105
653225934572480516,-64123,-101931,38177
653225934579916576,-64083,-101957,38148
653225934587352636,-64060,-101941,38289
653225934594788696,-63987,-101922,38349
653225934602224756,-63877,-101767,38368
653225934609660816,-63908,-101808,38361
653225934617096876,-63858,-101842,38310
653225934624532936,-63840,-101860,38400
653225934631968996,-63819,-101727,38243
653225934639405056,-63779,-101729,38390
653225934646839186,-63774,-101979,38425
653225934654275360,-63749,-101908,38464
653225934661711534,-63717,-101734,38510
653225934669147708,-63661,-101860,38538
653225934676583882,-63656,-101684,38668
653225934684020056,-63535,-101666,38692
653225934691456230,-63561,-101702,38640
653225934698892404,-63583,-101603,38734
653225934706328578,-63484,-101596,38756
653225934713764752,-63535,-101627,38661
653225934721200926,-63429,-101456,38665
653225934728637100,-63444,-101570,38722
653225934736073274,-63480,-101591,38804
653225934743509448,-63640,-101602,38710
653225934750945622,-63585,-101612,38774
653225934758381796,-63772,-101733,38717
653225934765817970,-63725,-101792,38670
653225934773254144,-63717,-101823,38544
653225934780634239,-63876,-101880,38481
653225934788073712,-63910,-101841,38459
653225934795513185,-63928,-101815,38529
653225934802952658,-64023,-102029,38325
653225934810392131,-63975,-102004,38261
653225934817831604,-63931,-101996,38155
653225934825271077,-63973,-101976,38250
653225934832710550,-63913,-102011,38331
653225934840150023,-64043,-101983,38255
653225934847589496,-64065,-102151,38249
653225934855028969,-64172,-102115,38207
653225934862468442,-64110,-101947,38209
653225934869907915,-64152,-101972,38204
653225934877347388,-64119,-102119,38175
653225934884786861,-64154,-101991,38170
653225934892226334,-64176,-102092,38068
653225934899665807,-64138,-101990,38021
653225934907105280,-64165,-102030,38081
653225934914573769,-64194,-102112,38430
653225934922011536,-64115,-102049,38293
653225934929449303,-64182,-101980,38186
653225934936887070,-64258,-102063,38119
653225934944324837,-64319,-102143,38038
653225934951762604,-64249,-102062,38165
653225934959200371,-64248,-102109,38144
653225934966638138,-64195,-102038,38047
653225934974075905,-64068,-101977,38064
653225934981513672,-64219,-102017,38152
653225934988951439,-64101,-102015,38166
653225934996389206,-64145,-101925,38062
653225935003826973,-64025,-101858,38095
653225935011264740,-64158,-101869,38127
653225935018702507,-64177,-101999,38060
653225935026140274,-64136,-101964,38114
653225935033578041,-64008,-101939,38121
653225935041015808,-63995,-101875,38113
653225935048451656,-63949,-101913,37830
653225935055889536,-64016,-101911,38052
653225935063327416,-64070,-101915,38103
653225935070765296,-64031,-101934,38168
653225935078203176,-64110,-101952,38126
653225935085641056,-64070,-102058,38170
653225935093078936,-64012,-101823,38193
653225935100516816,-63913,-101966,38179
653225935107954696,-63973,-101872,38261
653225935115392576,-63934,-101824,38267
653225935122830456,-64012,-101800,38306
653225935130268336,-63852,-101857,38273
653225935137706216,-63949,-101849,38198
653225935145144096,-63896,-101875,38161
653225935152581976,-63854,-101946,38280
653225935160019856,-63739,-101754,38353
653225935167457736,-63819,-101726,38350
653225935174895616,-63807,-101756,38361
653225935182335433,-63678,-101995,38636
653225935189773200,-63734,-101945,38540
653225935197210967,-63715,-101947,38438
653225935204648734,-63761,-101948,38433
653225935212086501,-63769,-101604,38531
653225935219524268,-63763,-101655,38538
653225935226962035,-63650,-101773,38481
653225935234399802,-63616,-101658,38475
653225935241837569,-63547,-101639,38541
653225935249275336,-63553,-101593,38609
653225935256713103,-63504,-101636,38455
653225935264150870,-63568,-101693,38546
653225935271588637,-63441,-101681,38610
653225935279026404,-63575,-101616,38480
653225935286464171,-63497,-101484,38716
653225935293901938,-63544,-101461,38632
653225935301339705,-63332,-101486,38701
653225935308777472,-63333,-101414,38660
653225935316215241,-63043,-101374,38773
653225935323653008,-63238,-101381,38830
653225935331090775,-63215,-101352,38859
653225935338528542,-63304,-101362,38921
653225935345966309,-63243,-101464,38723
653225935353404076,-63208,-101297,38931
653225935360841843,-63202,-101334,39031
653225935368279610,-63110,-101320,38991
653225935375717377,-63094,-101372,38971
653225935383155144,-63173,-101263,38991
653225935390592911,-63214,-101303,39051
653225935398030678,-63124,-101288,39042
653225935405468445,-63162,-101268,39083
653225935412906212,-63188,-101256,39115
653225935420343979,-63083,-101111,39195
653225935427781746,-62947,-101087,39165
653225935435219513,-62933,-101095,39180
653225935442657280,-62859,-101160,39240
653225935450093128,-62761,-101262,39586
653225935457531008,-62847,-101129,39428
653225935464968888,-62802,-100986,39516
653225935472406768,-62748,-100988,39385
653225935479844648,-62772,-100933,39499
653225935487282528,-62813,-101018,39487
653225935494720408,-62578,-100928,39609
653225935502158288,-62559,-100829,39595
653225935509596168,-62601,-100868,39626
653225935517034048,-62590,-101004,39596
653225935524471928,-62546,-100840,39648
653225935531909808,-62502,-100881,39640
653225935539347688,-62472,-100942,39717
653225935546785568,-62521,-100768,39751
653225935554223448,-62441,-100896,39787
653225935561661328,-62526,-100883,39744
653225935569099208,-62542,-100806,39715
653225935576537088,-62608,-100878,39767
653225935583976905,-62676,-100883,39886
653225935591414672,-62665,-100874,39808
653225935598852439,-62692,-100961,39725
653225935606290206,-62677,-100938,39598
653225935613727973,-62807,-100859,39551
653225935621165740,-62749,-101009,39479
653225935628603507,-62844,-101028,39411
653225935636041274,-62829,-101164,39404
653225935643479041,-62838,-101004,39465
653225935650916808,-63005,-101057,39359
653225935658354575,-62988,-101101,39404
653225935665792342,-63018,-101086,39338
653225935673230109,-63074,-101021,39307
653225935680667876,-63178,-101087,39249
653225935688105643,-63037,-101086,39132
653225935695543410,-63145,-101065,39149
653225935702981177,-63263,-101098,39064
653225935710418944,-63278,-101107,39040
653225935717854792,-63318,-101112,39018
653225935725292672,-63300,-101230,38889
653225935732730552,-63226,-101246,38907
653225935740168432,-63371,-101257,38938
653225935747606312,-63367,-101244,38950
653225935755044192,-63439,-101167,39013
653225935762482072,-63558,-101258,38939
653225935769919952,-63512,-101231,38925
653225935777357832,-63449,-101198,38848
653225935784795712,-63348,-101326,38895
653225935792233592,-63427,-101357,38838
653225935799671472,-63470,-101309,38840
653225935807109352,-63535,-101310,38810
653225935814547232,-63539,-101251,38805
653225935821985112,-63510,-101289,38818
653225935829422992,-63518,-101247,38787
653225935836860872,-63481,-101227,38823
653225935844298752,-63494,-101313,38784
653225935851767588,-63225,-101422,39001
653225935859203648,-63395,-101383,38852
653225935866639708,-63438,-101365,38811
653225935874075768,-63399,-101276,38893
653225935881511828,-63186,-101030,38654
653225935888947888,-63313,-101213,38807
653225935896383948,-63325,-101229,38872
653225935903820008,-63407,-101186,38780
653225935911256068,-63399,-101226,38842
653225935918692128,-63366,-101188,38875
653225935926128188,-63529,-101138,38853
653225935933564248,-63453,-101168,38934
653225935941000308,-63467,-101140,38913
653225935948436368,-63392,-101100,38979
653225935955872428,-63466,-101237,39009
653225935963308488,-63342,-101188,39032
653225935970744548,-63435,-101268,38989
653225935978180608,-63365,-101126,39017
653225935985585736,-63263,-100906,39227
653225935993023616,-63308,-101065,39051
653225936000461496,-63347,-101101,39008
653225936007899376,-63304,-101117,39034
653225936015337256,-63321,-101117,39066
653225936022775136,-63318,-101058,38974
653225936030213016,-63261,-101155,38964
653225936037650896,-63253,-101076,39052
653225936045088776,-63319,-101169,39105
653225936052526656,-63309,-101187,39014
653225936059964536,-63180,-101147,39167
653225936067402416,-63100,-100937,39175
653225936074840296,-63094,-101048,39121
653225936082278176,-63070,-100912,39156
653225936089716056,-63140,-100962,39190
653225936097153936,-63033,-101038,39248
653225936104591816,-63114,-100936,39203
653225936112029696,-63054,-100958,39248
653225936119498532,-62806,-101205,39083
653225936126934592,-62838,-101023,39150
653225936134370652,-62861,-100975,39185
653225936141806712,-62910,-100775,39210
653225936149242772,-62874,-100758,39381
653225936156678832,-62953,-100766,39350
653225936164114892,-62989,-100857,39205
653225936171550952,-62876,-100823,39334
653225936178987012,-62839,-100663,39423
653225936186423072,-62814,-100743,39394
653225936193859132,-62852,-100715,39388
653225936201295192,-62819,-100728,39487
653225936208731252,-62745,-100731,39478
653225936216167312,-62729,-100652,39537
653225936223603372,-62715,-100736,39513
653225936231039432,-62671,-100624,39610
653225936238475492,-62661,-100501,39552
653225936245911552,-62678,-100536,39679
653225936253289599,-62917,-100655,39646
653225936260729072,-62728,-100582,39695
653225936268168545,-62602,-100611,39728
653225936275608018,-62633,-100422,39762
653225936283047491,-62468,-100590,39699
653225936290486964,-62549,-100498,39714
653225936297926437,-62505,-100451,39772
653225936305365910,-62479,-100521,39798
653225936312805383,-62372,-100376,39801
653225936320244856,-62307,-100308,39885
653225936327684329,-62346,-100282,39983
653225936335123802,-62187,-100241,39974
653225936342563275,-62324,-100241,40090
653225936350002748,-62401,-100177,40194
653225936357442221,-62254,-100119,40162
653225936364881694,-62174,-100166,40218
653225936372321167,-62215,-100178,40161
653225936379760640,-62230,-100187,39913
653225936387256210,-61944,-100072,40421
653225936394692384,-61950,-100122,40405
653225936402128558,-62050,-100066,40423
653225936409564732,-62036,-100148,40333
653225936417000906,-62043,-100108,40318
653225936424437080,-62079,-100027,40302
653225936431873254,-62210,-100160,40302
653225936439309428,-62206,-100185,40305
653225936446745602,-62270,-100326,40108
653225936454181776,-62392,-100427,40066
653225936461617950,-62303,-100540,40122
653225936469054124,-62391,-100391,40093
653225936476490298,-62431,-100460,40054
653225936483926472,-62544,-100406,40049
653225936491362646,-62584,-100445,39862
653225936498798820,-62727,-100552,39780
653225936506234994,-62586,-100432,39777
653225936513671168,-62593,-100462,39783
653225936521051263,-62863,-100520,39922
653225936528490736,-62899,-100589,39834
653225936535930209,-62882,-100695,39622
653225936543369682,-62909,-100588,39696
653225936550809155,-62837,-100570,39478
653225936558248628,-62923,-100643,39576
653225936565688101,-62961,-100662,39596
653225936573127574,-63043,-100632,39548
653225936580567047,-63108,-100674,39448
653225936588006520,-63087,-100647,39434
653225936595445993,-63071,-100674,39385
653225936602885466,-63093,-100682,39388
653225936610324939,-63131,-100709,39381
653225936617764412,-63149,-100707,39440
653225936625203885,-63141,-100732,39454
653225936632643358,-63083,-100664,39415
653225936640082831,-63204,-100725,39390
653225936647522304,-63179,-100758,39390
653225936655017874,-63257,-100714,39162
653225936662454048,-63224,-100779,39301
653225936669890222,-63255,-100705,39233
653225936677326396,-63250,-100676,39412
653225936684762570,-63256,-100656,39369
653225936692198744,-63348,-100852,39297
653225936699634918,-63336,-100819,39306
653225936707071092,-63387,-100938,39378
653225936714507266,-63335,-100854,39194
653225936721943440,-63302,-100781,39213
653225936729379614,-63148,-100638,39159
653225936736815788,-63128,-100671,39291
653225936744251962,-63149,-100631,39278
653225936751688136,-63272,-100633,39265
653225936759124310,-63313,-100587,39224
653225936766560484,-63191,-100541,39251
653225936773996658,-63182,-100729,39221
653225936781432832,-63115,-100684,39188
653225936788812927,-63108,-100666,39185
653225936796252400,-63158,-100672,39054
653225936803691873,-63203,-100675,39224
653225936811131346,-63224,-100611,39214
653225936818570819,-63204,-100570,39219
653225936826010292,-63138,-100592,39151
653225936833449765,-63126,-100485,39194
653225936840889238,-63197,-100520,39280
653225936848328711,-63190,-100608,39135
653225936855768184,-63194,-100573,39207
653225936863207657,-63230,-100654,39013
653225936870647130,-63268,-100730,39066
653225936878086603,-63180,-100736,39090
653225936885526076,-63124,-100656,39214
653225936892965549,-63094,-100565,39230
653225936900405022,-63134,-100521,39289
653225936907844495,-63145,-100533,39287
653225936915283968,-63162,-100394,39365
653225936922752457,-62958,-100359,39417
653225936930190224,-62981,-100556,39314
653225936937627991,-63000,-100356,39453
653225936945065758,-62965,-100547,39281
653225936952503525,-62906,-100435,39380
653225936959941292,-62833,-100371,39410
653225936967379059,-62933,-100354,39410
653225936974816826,-62783,-100398,39506
653225936982254593,-62872,-100280,39511
653225936989692360,-62862,-100349,39504
653225936997130127,-62756,-100240,39516
653225937004567894,-62725,-100285,39643
653225937012005661,-62729,-100306,39603
653225937019443428,-62734,-100288,39504
653225937026881195,-62675,-100334,39545
653225937034318962,-62653,-100287,39504
653225937041756729,-62766,-100333,39642
653225937049194496,-62670,-100182,39763
653225937056630344,-62453,-100264,39755
653225937064068224,-62530,-100288,39687
653225937071506104,-62446,-100128,39791
653225937078943984,-62567,-100159,39795
653225937086381864,-62444,-100048,39913
653225937093819744,-62523,-100194,39879
653225937101257624,-62508,-100178,39916
653225937108695504,-62473,-100174,39972
653225937116133384,-62511,-100214,39978
653225937123571264,-62534,-100275,40014
653225937131009144,-62423,-100096,40001
653225937138447024,-62448,-100106,40055
653225937145884904,-62315,-100088,40079
653225937153322784,-62345,-100149,40108
653225937160760664,-62230,-100000,40038
653225937168198544,-62385,-100014,40097
653225937175636424,-62225,-99888,40242
653225937183074304,-62213,-99924,40179
653225937190514121,-62046,-99759,40605
653225937197951888,-62049,-99843,40460
653225937205389655,-62033,-99879,40407
653225937212827422,-62088,-99892,40419
653225937220265189,-62063,-99821,40354
653225937227702956,-61960,-99787,40463
653225937235140723,-61989,-99824,40460
653225937242578490,-61945,-99753,40499
653225937250016257,-62068,-99786,40427
653225937257454024,-61979,-99711,40531
653225937264891791,-61970,-99718,40517
653225937272329558,-62026,-99897,40449
653225937279767325,-62084,-99839,40536
653225937287205092,-62168,-99824,40428
653225937294642859,-62055,-99921,40396
653225937302080626,-62374,-99998,40302
653225937309518393,-62408,-99986,40289
653225937316956160,-62320,-100059,40293
653225937324393929,-62037,-100094,40236
653225937331831696,-62328,-100025,40177
653225937339269463,-62526,-100011,40097
653225937346707230,-62522,-100133,39982
653225937354144997,-62564,-100186,40028
653225937361582764,-62595,-100164,39979
653225937369020531,-62637,-100117,39985
653225937376458298,-62675,-100220,39793
653225937383896065,-62662,-100196,39877
653225937391333832,-62693,-100163,39772
653225937398771599,-62733,-100265,39835
653225937406209366,-62771,-100204,39711
653225937413647133,-62880,-100300,39675
653225937421084900,-62909,-100514,39562
653225937428522667,-62914,-100257,39673
653225937435960434,-63108,-100319,39409
653225937443398201,-63073,-100279,39444
653225937450835968,-63111,-100332,39426
653225937458271816,-62900,-100592,39306
653225937465709696,-62946,-100438,39435
653225937473147576,-63043,-100308,39355
653225937480585456,-63017,-100267,39330
653225937488023336,-63088,-100404,39408
653225937495461216,-63121,-100375,39397
653225937502899096,-63192,-100362,39335
653225937510336976,-63180,-100342,39287
653225937517774856,-63197,-100376,39329
653225937525212736,-63181,-100334,39322
653225937532650616,-63096,-100293,39315
653225937540088496,-63172,-100324,39181
653225937547526376,-63130,-100273,39283
653225937554964256,-63077,-100366,39314
653225937562402136,-63103,-100334,39269
653225937569840016,-63151,-100401,39374
653225937577277896,-63243,-100376,39164
653225937584715776,-63240,-100376,39231
653225937592184612,-62924,-100392,39482
653225937599620672,-63050,-100401,39343
653225937607056732,-63134,-100301,39263
653225937614492792,-63236,-100375,39153
653225937621928852,-63165,-100259,39062
653225937629364912,-63156,-100280,39099
653225937636800972,-63174,-100347,38987
653225937644237032,-63177,-100299,39120
653225937651673092,-63339,-100395,39211
653225937659109152,-63222,-100257,39254
653225937666545212,-63234,-100341,39128
653225937673981272,-63200,-100297,39139
653225937681417332,-63052,-100238,39183
653225937688853392,-63164,-100271,39099
653225937696289452,-63122,-100201,39130
653225937703725512,-63054,-100225,39224
653225937711161572,-63059,-100229,39194
653225937718597632,-62942,-100294,39349
653225937725973741,-62919,-99907,39258
653225937733413328,-62983,-100112,39264
653225937740852915,-63114,-100189,39184
653225937748292502,-63000,-100306,39172
653225937755732089,-62933,-100154,39289
653225937763171676,-63031,-100166,39223
653225937770611263,-63002,-100187,39355
653225937778050850,-62938,-100163,39369
653225937785490437,-62965,-100140,39336
653225937792930024,-62994,-100105,39374
653225937800369611,-62890,-100205,39375
653225937807809198,-62917,-100052,39405
653225937815248785,-62880,-100019,39446
653225937822688372,-62858,-100126,39507
653225937830127959,-62731,-100095,39564
653225937837567546,-62849,-100047,39546
653225937845007133,-62785,-100050,39589
653225937852446720,-62704,-99981,39631
653225937859946276,-62557,-99830,39742
653225937867382336,-62590,-99908,39661
653225937874818396,-62593,-99941,39700
653225937882254456,-62634,-99969,39688
653225937889690516,-62682,-99896,39699
653225937897126576,-62558,-99960,39763
653225937904562636,-62512,-99888,39833
653225937911998696,-62462,-99805,39878
653225937919434756,-62517,-99879,39768
653225937926870816,-62503,-99877,39884
653225937934306876,-62499,-99843,39890
653225937941742936,-62529,-99826,39897
653225937949178996,-62414,-99955,39937
653225937956615056,-62338,-99829,39971
653225937964051116,-62266,-99730,39996
653225937971487176,-62303,-99653,40005
653225937978923236,-62258,-99655,39977
653225937986359296,-62175,-99727,40118
653225937993737343,-62012,-99888,40014
653225938001176816,-62077,-99785,40063
653225938008616289,-62156,-99702,40194
653225938016055762,-62100,-99660,40177
653225938023495235,-62125,-99626,40254
653225938030934708,-62055,-99615,40258
653225938038374181,-62121,-99603,40285
653225938045813654,-62100,-99600,40288
653225938053253127,-62010,-99551,40296
653225938060692600,-61874,-99742,40417
653225938068132073,-62032,-99628,40341
653225938075571546,-62032,-99655,40411
653225938083011019,-61905,-99492,40424
653225938090450492,-61940,-99587,40561
653225938097889965,-61874,-99434,40485
653225938105329438,-61759,-99415,40458
653225938112768911,-61947,-99441,40390
653225938120208384,-62003,-99501,40401
653225938127674952,-61789,-99538,40313
653225938135112832,-62063,-99573,40256
653225938142550712,-62159,-99608,40102
653225938149988592,-62191,-99630,40169
653225938157426472,-62367,-99750,40025
653225938164864352,-62368,-99740,40087
653225938172302232,-62373,-99759,40020
653225938179740112,-62401,-99620,40039
653225938187177992,-62543,-99918,39794
653225938194615872,-62632,-100021,39755
653225938202053752,-62616,-100089,39774
653225938209491632,-62684,-99946,39690
653225938216929512,-62623,-99977,39701
653225938224367392,-62648,-99959,39651
653225938231805272,-62679,-99888,39727
653225938239243152,-62710,-100081,39672
653225938246681032,-62784,-99963,39564
653225938254118912,-62763,-99997,39548
653225938261558729,-62927,-100021,39455
653225938268996496,-62898,-100008,39488
653225938276434263,-62893,-99997,39459
653225938283872030,-62975,-100059,39332
653225938291309797,-62882,-100059,39418
653225938298747564,-63000,-100233,39338
653225938306185331,-62941,-100173,39277
653225938313623098,-63021,-100200,39217
653225938321060865,-62983,-100121,39220
653225938328498632,-62985,-100037,39348
653225938335936399,-62917,-100082,39280
653225938343374166,-62885,-100035,39326
653225938350811933,-62916,-100138,39332
653225938358249700,-62884,-100153,39277
653225938365687467,-63020,-100134,39353
653225938373125234,-62990,-100086,39451
653225938380563001,-62982,-100127,39319
653225938388000768,-62976,-100065,39389
653225938395436616,-62764,-100016,39546
653225938402874496,-62799,-99908,39352
653225938410312376,-62856,-100055,39344
653225938417750256,-62908,-100115,39357
653225938425188136,-62902,-100164,39323
653225938432626016,-62895,-100100,39367
653225938440063896,-62948,-100144,39369
653225938447501776,-62841,-100062,39341
653225938454939656,-62876,-99948,39318
653225938462377536,-62943,-100066,39327
653225938469815416,-62916,-100197,39335
653225938477253296,-62912,-100074,39315
653225938484691176,-62884,-100100,39305
653225938492129056,-62982,-100110,39292
653225938499566936,-62948,-100120,39221
653225938507004816,-62902,-100070,39221
653225938514442696,-62840,-99990,39309
653225938521880576,-62871,-100111,39351
653225938529291391,-62660,-99799,39397
653225938536730864,-62819,-99935,39330
653225938544170337,-62830,-99981,39369
653225938551609810,-62849,-100014,39448
653225938559049283,-62811,-100054,39352
653225938566488756,-62718,-100121,39319
653225938573928229,-62756,-100235,39524
653225938581367702,-62746,-100070,39497
653225938588807175,-62733,-99992,39570
653225938596246648,-62686,-100033,39544
653225938603686121,-62702,-100176,39554
653225938611125594,-62778,-99990,39499
653225938618565067,-62763,-99950,39548
653225938626004540,-62625,-100046,39497
653225938633444013,-62542,-99930,39576
653225938640883486,-62503,-99911,39554
653225938648322959,-62550,-100001,39675
653225938655762432,-62656,-99993,39638
653225938663287021,-62305,-100089,39486
653225938670721488,-62328,-99925,39642
653225938678155955,-62421,-99913,39782
653225938685590422,-62375,-100015,39642
653225938693024889,-62445,-99864,39790
653225938700459356,-62337,-99836,39888
653225938707893823,-62370,-99753,39862
653225938715328290,-62354,-99808,39851
653225938722762757,-62360,-99793,39837
653225938730197224,-62419,-99881,39928
653225938737631691,-62383,-99759,39924
653225938745066158,-62415,-99865,39911
653225938752500625,-62317,-99751,40006
653225938759935092,-62270,-99691,40060
653225938767369559,-62172,-99743,40144
653225938774804026,-62178,-99850,40074
653225938782238493,-62202,-99725,40165
653225938789672960,-62111,-99710,40138
653225938796993316,-62003,-99762,40486
653225938804434496,-61986,-99750,40298
653225938811875676,-61992,-99756,40298
653225938819316856,-61925,-99773,40185
653225938826758036,-61873,-99634,40451
653225938834199216,-62004,-99645,40427
653225938841640396,-61930,-99734,40336
653225938849081576,-61896,-99642,40449
653225938856522756,-61874,-99604,40430
653225938863963936,-61861,-99599,40533
653225938871405116,-61879,-99543,40580
653225938878846296,-61690,-99574,40528
653225938886287476,-61705,-99500,40623
653225938893728656,-61619,-99424,40773
653225938901169836,-61600,-99413,40767
653225938908611016,-61654,-99361,40708
653225938916052196,-61674,-99440,40733
653225938923493376,-61661,-99492,40711
653225938930992585,-61847,-99593,40410
653225938938430352,-61828,-99627,40484
653225938945868119,-61821,-99662,40416
653225938953305886,-61906,-99657,40400
653225938960743653,-61959,-99696,40421
653225938968181420,-62105,-99626,40395
653225938975619187,-62267,-99819,40346
653225938983056954,-62116,-99733,40281
653225938990494721,-62201,-99718,40274
653225938997932488,-62158,-99729,40156
653225939005370255,-62384,-99888,40060
653225939012808022,-62249,-99786,40135
653225939020245789,-62459,-99867,40006
653225939027683556,-62410,-99916,40034
653225939035121323,-62457,-99997,40051
653225939042559090,-62505,-99913,39990
653225939049996857,-62489,-99964,39964
653225939057434624,-62580,-100011,39944
653225939064899474,-62324,-100111,40088
653225939072335648,-62460,-100150,39927
653225939079771822,-62491,-100066,39842
653225939087207996,-62678,-100097,39796
653225939094644170,-62641,-100063,39767
653225939102080344,-62675,-100196,39688
653225939109516518,-62629,-100079,39647
653225939116952692,-62571,-100097,39629
653225939124388866,-62603,-99989,39636
653225939131825040,-62679,-100007,39701
653225939139261214,-62628,-100043,39630
653225939146697388,-62588,-99977,39556
653225939154133562,-62535,-99990,39721
653225939161569736,-62522,-99956,39727
653225939169005910,-62549,-100007,39713
653225939176442084,-62677,-99913,39691
653225939183878258,-62704,-100060,39819
653225939191314432,-62516,-100055,39761
653225939198694527,-62607,-99686,40013
6.53226E+17,-62580,-99913,39867
653225939213573473,-62507,-100014,39756
653225939221012946,-62483,-99992,39802
653225939228452419,-62492,-99989,39862
653225939235891892,-62565,-100119,39860
653225939243331365,-62610,-100199,39811
653225939250770838,-62583,-100169,39832
653225939258210311,-62492,-100023,39804
653225939265649784,-62393,-100197,39812
653225939273089257,-62405,-100115,39809
653225939280528730,-62497,-100155,39892
653225939287968203,-62555,-100097,39812
653225939295407676,-62511,-100228,39906
653225939302847149,-62473,-100121,39827
653225939310286622,-62533,-100188,39881
653225939317726095,-62471,-100171,39909
653225939325165568,-62383,-100157,39877
653225939332663076,-62277,-100067,40021
653225939340099136,-62434,-100201,39979
653225939347535196,-62306,-100235,39860
653225939354971256,-62327,-100061,40028
653225939362407316,-62311,-100079,40026
653225939369843376,-62268,-100029,40060
653225939377279436,-62326,-100029,40071
653225939384715496,-62473,-100086,39966
653225939392151556,-62330,-100144,39997
653225939399587616,-62375,-99998,39965
653225939407023676,-62226,-100067,40070
653225939414459736,-62327,-100066,40091
653225939421895796,-62226,-99907,40155
653225939429331856,-62136,-99896,40145
653225939436767916,-62080,-99875,40252
653225939444203976,-62173,-99781,40292
653225939451640036,-62165,-99770,40229
653225939459076096,-62027,-99903,40230
653225939466452205,-62064,-99906,40566
653225939473891792,-62086,-99947,40341
653225939481331379,-62158,-99887,40322
653225939488770966,-62069,-99778,40208
653225939496210553,-61907,-99794,40289
653225939503650140,-61995,-99757,40341
653225939511089727,-61992,-99812,40390
653225939518529314,-61833,-99785,40557
653225939525968901,-61858,-99731,40498
653225939533408488,-61849,-99737,40489
653225939540848075,-61795,-99786,40517
653225939548287662,-61732,-99754,40652
653225939555727249,-61801,-99798,40504
653225939563166836,-61671,-99850,40619
653225939570606423,-61646,-99670,40734
653225939578046010,-61577,-99683,40650
653225939585485597,-61633,-99701,40628
653225939592925184,-61551,-99659,40750
653225939600453759,-61712,-99763,40807
653225939607888112,-61596,-99727,40871
653225939615322465,-61583,-99648,40944
653225939622756818,-61503,-99574,40971
653225939630191171,-61434,-99630,41033
653225939637625524,-61330,-99462,41181
653225939645059877,-61415,-99441,41228
653225939652494230,-61402,-99508,41159
653225939659928583,-61377,-99536,41145
653225939667362936,-61240,-99445,41247
653225939674797289,-61173,-99450,41232
653225939682231642,-61137,-99495,41271
653225939689665995,-61147,-99565,41369
653225939697100348,-61252,-99519,41398
653225939704534701,-61122,-99358,41524
653225939711969054,-61135,-99505,41545
653225939719403407,-61170,-99415,41473
653225939726837760,-61116,-99589,41572
653225939734156068,-61339,-99523,41435
653225939741597248,-61302,-99457,41520
653225939749038428,-61271,-99545,41282
653225939756479608,-61398,-99565,41357
653225939763920788,-61338,-99757,41280
653225939771361968,-61401,-99743,41267
653225939778803148,-61433,-99831,41227
653225939786244328,-61506,-99848,41113
653225939793685508,-61530,-99686,41134
653225939801126688,-61571,-99740,41066
653225939808567868,-61558,-99853,41049
653225939816009048,-61712,-99797,40972
653225939823450228,-61760,-99983,40881
653225939830891408,-61727,-99989,40726
653225939838332588,-61702,-99977,40827
653225939845773768,-61761,-100002,40862
653225939853214948,-61781,-100050,40866
653225939860656128,-61827,-99908,40843
653225939868153416,-61940,-100058,41082
653225939875591296,-62056,-100205,40826
653225939883029176,-61911,-100034,40672
653225939890467056,-61924,-100070,40599
653225939897904936,-61967,-100132,40579
653225939905342816,-62006,-100203,40546
653225939912780696,-62037,-100166,40593
653225939920218576,-61997,-100094,40612
653225939927656456,-62023,-100162,40592
653225939935094336,-61975,-100156,40597
653225939942532216,-62004,-100149,40536
653225939949970096,-62121,-100246,40614
653225939957407976,-62072,-100163,40711
653225939964845856,-62018,-100188,40631
653225939972283736,-62073,-100143,40631
653225939979721616,-62098,-100172,40529
653225939987159496,-62079,-100153,40472
653225939994597376,-62101,-100152,40480
653225940002066212,-62099,-100282,40450
653225940009502272,-61985,-100207,40462
653225940016938332,-62066,-100178,40546
653225940024374392,-62073,-100321,40436
653225940031810452,-62039,-100301,40504
653225940039246512,-62017,-100142,40633
653225940046682572,-62055,-100232,40565
653225940054118632,-62059,-100196,40515
653225940061554692,-61925,-100322,40584
653225940068990752,-61917,-100246,40581
653225940076426812,-61958,-100197,40638
653225940083862872,-61979,-100280,40603
653225940091298932,-61975,-100248,40551
653225940098734992,-61969,-100186,40567
653225940106171052,-61794,-100152,40663
653225940113607112,-61841,-100027,40679
653225940121043172,-61958,-100038,40638
653225940128479232,-61893,-100116,40582
653225940135884360,-61725,-100011,40446
653225940143322240,-61839,-100118,40485
653225940150760120,-61983,-100096,40515
6.53226E+17,-61907,-100220,40547
653225940165635880,-61839,-100121,40589
653225940173073760,-61757,-100078,40716
653225940180511640,-61814,-100086,40714
653225940187949520,-61867,-100091,40706
653225940195387400,-61806,-100263,40747
653225940202825280,-61809,-100194,40766
653225940210263160,-61838,-100170,40686
653225940217701040,-61733,-100088,40707
653225940225138920,-61715,-100086,40748
653225940232576800,-61636,-100066,40726
653225940240014680,-61570,-100113,40793
653225940247452560,-61739,-100064,40737
653225940254890440,-61642,-100040,40828
653225940262328320,-61680,-100151,40901
653225940269768137,-61782,-100137,40845
653225940277205904,-61647,-100035,40956
653225940284643671,-61547,-100070,40946
653225940292081438,-61567,-100008,40935
653225940299519205,-61450,-99995,40817
653225940306956972,-61430,-99953,40973
653225940314394739,-61422,-99956,40922
653225940321832506,-61504,-99914,41012
653225940329270273,-61421,-99867,41089
653225940336708040,-61365,-99908,41126
653225940344145807,-61562,-99944,41224
653225940351583574,-61359,-99905,41218
653225940359021341,-61291,-99852,41252
653225940366459108,-61149,-99847,41115
653225940373896875,-61170,-100010,41190
653225940381334642,-61278,-99782,41280
653225940388772409,-61203,-99823,41384
653225940396210176,-61226,-99773,41376
653225940403646024,-61344,-99598,41555
653225940411083904,-61355,-99697,41476
653225940418521784,-61225,-99768,41362
653225940425959664,-61195,-99828,41475
653225940433397544,-61018,-99768,41522
653225940440835424,-61095,-99867,41489
653225940448273304,-60919,-99826,41637
653225940455711184,-60927,-99605,41650
653225940463149064,-60896,-99603,41543
653225940470586944,-60842,-99658,41568
653225940478024824,-60836,-99728,41678
653225940485462704,-60835,-99760,41681
653225940492900584,-60793,-99667,41645
653225940500338464,-60820,-99644,41722
653225940507776344,-60780,-99661,41752
653225940515214224,-60753,-99631,41770
653225940522652104,-60702,-99662,41824
653225940530089984,-60712,-99513,41866
653225940537558820,-60544,-99703,42014
653225940544994880,-60591,-99566,41930
653225940552430940,-60720,-99633,41724
6.53226E+17,-60848,-99695,41586
653225940567303060,-60865,-99721,41619
653225940574739120,-61032,-99779,41622
653225940582175180,-61043,-99796,41596
653225940589611240,-61116,-99828,41590
653225940597047300,-61144,-99814,41469
653225940604483360,-61265,-99850,41384
653225940611919420,-61232,-99891,41380
653225940619355480,-61336,-99926,41305
653225940626791540,-61380,-99941,41276
653225940634227600,-61365,-99949,41181
653225940641663660,-61295,-100139,41134
653225940649099720,-61376,-100058,41226
653225940656535780,-61401,-100134,41147
653225940663971840,-61467,-100143,40982
653225940671378889,-61757,-99764,41214
653225940678816656,-61616,-99968,41023
653225940686254423,-61591,-100037,41048
653225940693692190,-61651,-100160,40972
653225940701129957,-61609,-100152,40881
653225940708567724,-61636,-100151,40917
653225940716005491,-61683,-100229,40746
653225940723443258,-61684,-100179,40796
653225940730881025,-61841,-100202,40717
653225940738318792,-61743,-100149,40754
653225940745756559,-61630,-100228,40819
653225940753194326,-61630,-100114,40695
653225940760632093,-61672,-100183,40748
653225940768069860,-61709,-100232,40672
653225940775507627,-61683,-100178,40785
653225940782945394,-61705,-100102,40758
653225940790383161,-61698,-100095,40786
653225940797820928,-61646,-100148,40818
653225940805314797,-61552,-100382,40955
653225940812749264,-61525,-100212,40856
653225940820183731,-61710,-100151,40803
653225940827618198,-61670,-100159,40748
653225940835052665,-61685,-100163,40789
653225940842487132,-61621,-100010,40773
653225940849921599,-61670,-100046,40814
653225940857356066,-61793,-100102,40755
653225940864790533,-61643,-100143,40705
6.53226E+17,-61573,-100063,40779
653225940879659467,-61800,-100100,40869
653225940887093934,-61762,-100044,40892
653225940894528401,-61622,-100189,40698
653225940901962868,-61470,-100168,40719
653225940909397335,-61543,-100131,40690
653225940916831802,-61576,-100147,40740
653225940924266269,-61583,-100136,40786
653225940931700736,-61537,-100121,40820
653225940939021092,-61657,-100249,40606
653225940946462272,-61542,-100205,40739
653225940953903452,-61491,-100080,40864
653225940961344632,-61510,-100051,40791
653225940968785812,-61454,-100118,40742
653225940976226992,-61423,-100123,40755
653225940983668172,-61498,-100191,40851
653225940991109352,-61469,-100163,40849
653225940998550532,-61457,-100004,40895
653225941005991712,-61526,-100114,40813
653225941013432892,-61336,-100209,40865
653225941020874072,-61422,-100040,40874
653225941028315252,-61395,-100002,40925
653225941035756432,-61251,-100035,41003
653225941043197612,-61297,-99918,40980
653225941050638792,-61286,-99865,41030
653225941058079972,-61309,-99932,41008
653225941065521152,-61287,-99870,41094
653225941073018440,-61170,-99844,41255
653225941080456320,-61189,-99842,41211
653225941087894200,-61252,-99871,41162
653225941095332080,-61240,-99959,41164
653225941102769960,-61170,-99909,41094
653225941110207840,-61129,-99897,41198
653225941117645720,-61143,-99848,41141
653225941125083600,-61129,-99844,41142
653225941132521480,-61048,-99768,41198
653225941139959360,-61158,-99829,41157
653225941147397240,-60977,-99661,41237
653225941154835120,-61063,-99763,41285
6.53226E+17,-60923,-99697,41315
653225941169710880,-60845,-99785,41282
653225941177148760,-60892,-99751,41320
653225941184586640,-60894,-99611,41286
653225941192024520,-60856,-99718,41390
653225941199462400,-60796,-99694,41509
653225941206902217,-60703,-99926,41484
653225941214339984,-60749,-99772,41544
653225941221777751,-60823,-99577,41511
653225941229215518,-60748,-99737,41500
653225941236653285,-60692,-99659,41594
653225941244091052,-60694,-99651,41649
653225941251528819,-60653,-99555,41697
653225941258966586,-60732,-99609,41685
653225941266404353,-60701,-99663,41675
653225941273842120,-60612,-99667,41708
653225941281279887,-60654,-99628,41701
653225941288717654,-60595,-99606,41845
653225941296155421,-60533,-99517,41942
653225941303593188,-60459,-99501,41968
653225941311030955,-60501,-99331,41823
653225941318468722,-60509,-99534,41758
653225941325906489,-60641,-99695,41849
653225941333344256,-60646,-99706,41799
653225941340782025,-60297,-99566,41736
653225941348219792,-60483,-99506,41791
653225941355657559,-60595,-99644,41709
653225941363095326,-60594,-99784,41657
653225941370533093,-60763,-99772,41652
653225941377970860,-60765,-99704,41588
653225941385408627,-60790,-99742,41536
653225941392846394,-60830,-99700,41642
653225941400284161,-60862,-99809,41593
653225941407721928,-60992,-99784,41487
653225941415159695,-61043,-99977,41466
653225941422597462,-61070,-99912,41469
653225941430035229,-61114,-99911,41373
653225941437472996,-61078,-99941,41343
653225941444910763,-61105,-100087,41266
653225941452348530,-61067,-99999,41353
653225941459786297,-61042,-100030,41359
653225941467224064,-61191,-100015,41267
653225941474659912,-61197,-99795,40951
653225941482097792,-61276,-99956,41093
653225941489535672,-61168,-100043,41163
653225941496973552,-61259,-100067,41186
653225941504411432,-61309,-100131,41155
653225941511849312,-61280,-100030,41150
653225941519287192,-61235,-100047,41216
653225941526725072,-61225,-100096,41076
653225941534162952,-61244,-100201,41129
653225941541600832,-61357,-100167,41114
653225941549038712,-61300,-100213,41073
653225941556476592,-61221,-100164,41180
653225941563914472,-61251,-100212,41114
653225941571352352,-61100,-100118,41162
653225941578790232,-61191,-100041,41122
653225941586228112,-61126,-100127,41194
653225941593665992,-61206,-100168,41131
653225941601103872,-61276,-100156,41246
653225941608543689,-61320,-99896,41067
653225941615981456,-61243,-100094,41074
653225941623419223,-61104,-100055,41251
653225941630856990,-61048,-100031,41232
653225941638294757,-61244,-100123,41076
653225941645732524,-61151,-100004,41168
653225941653170291,-61062,-100028,41108
653225941660608058,-61120,-100101,41129
653225941668045825,-61164,-100029,41234
653225941675483592,-61149,-100189,41236
653225941682921359,-61144,-100084,41179
653225941690359126,-61197,-100046,41185
653225941697796893,-61193,-100028,41176
653225941705234660,-61108,-100014,41181
653225941712672427,-61143,-100053,41156
653225941720110194,-61073,-100171,41185
653225941727547961,-61071,-100037,41151
653225941734985728,-61061,-100081,41185
653225941742421576,-60890,-99765,41111
653225941749859456,-60997,-99949,41163
653225941757297336,-61094,-99917,41162
653225941764735216,-61039,-99999,41276
653225941772173096,-61027,-99961,41363
653225941779610976,-60984,-99985,41396
653225941787048856,-61030,-99936,41343
653225941794486736,-61009,-100051,41377
653225941801924616,-60777,-99995,41415
653225941809362496,-60858,-99961,41388
653225941816800376,-60897,-99912,41418
653225941824238256,-60905,-99865,41541
653225941831676136,-60920,-99822,41479
653225941839114016,-60869,-99922,41412
653225941846551896,-60799,-100064,41514
653225941853989776,-60734,-99882,41493
653225941861427656,-60868,-99956,41492
653225941868865536,-60700,-99984,41518
653225941876305353,-60736,-99682,41350
653225941883743120,-60796,-99775,41565
653225941891180887,-60739,-99799,41683
653225941898618654,-60733,-99826,41657
653225941906056421,-60617,-99733,41752
653225941913494188,-60713,-99772,41791
653225941920931955,-60774,-99906,41668
653225941928369722,-60722,-99828,41788
653225941935807489,-60584,-99722,41766
653225941943245256,-60524,-99675,41849
653225941950683023,-60524,-99709,41834
653225941958120790,-60598,-99815,41747
653225941965558557,-60598,-99666,41828
653225941972996324,-60500,-99768,41903
653225941980434091,-60372,-99751,41942
653225941987871858,-60480,-99652,41993
653225941995309625,-60436,-99556,42047
653225942002747392,-60394,-99755,42007
653225942010185161,-60417,-99502,41942
653225942017622928,-60410,-99567,42035
653225942025060695,-60302,-99615,42020
653225942032498462,-60290,-99572,42148
653225942039936229,-60247,-99519,42198
653225942047373996,-60259,-99492,42242
653225942054811763,-60275,-99506,42247
653225942062249530,-60194,-99568,42258
653225942069687297,-60060,-99394,42376
653225942077125064,-60134,-99365,42404
653225942084562831,-60151,-99390,42410
653225942092000598,-60037,-99413,42468
653225942099438365,-60114,-99547,42373
653225942106876132,-60087,-99524,42548
653225942114313899,-60040,-99503,42534
653225942121751666,-59916,-99460,42593
653225942129189433,-59943,-99457,42603
653225942136627200,-60034,-99468,42595
653225942144063048,-59750,-99334,42578
653225942151500928,-60012,-99462,42523
653225942158938808,-60120,-99614,42361
653225942166376688,-60090,-99548,42380
653225942173814568,-60046,-99519,42346
653225942181252448,-60213,-99633,42316
653225942188690328,-60222,-99695,42318
653225942196128208,-60326,-99582,42346
653225942203566088,-60465,-99665,42137
653225942211003968,-60464,-99826,42203
653225942218441848,-60617,-99745,42102
653225942225879728,-60592,-99733,42038
653225942233317608,-60671,-99708,42028
653225942240755488,-60647,-99801,42003
653225942248193368,-60808,-99883,41839
653225942255631248,-60738,-99787,41948
653225942263069128,-60774,-99795,41845
653225942270507008,-60866,-99994,41823
653225942278004863,-60686,-100049,41713
653225942285439216,-60925,-100032,41685
653225942292873569,-60917,-100016,41685
653225942300307922,-60981,-99924,41683
653225942307742275,-60828,-99929,41641
653225942315176628,-60920,-100028,41600
653225942322610981,-60968,-100063,41599
653225942330045334,-60882,-99980,41609
653225942337479687,-61117,-100020,41556
653225942344914040,-61109,-100002,41487
653225942352348393,-61106,-100096,41425
653225942359782746,-61150,-100160,41436
653225942367217099,-61120,-100117,41485
653225942374651452,-61061,-100030,41467
653225942382085805,-61216,-100074,41449
653225942389520158,-61259,-100052,41445
653225942396954511,-61214,-100000,41449
653225942404388864,-61123,-99933,41397
653225942411734253,-61044,-100153,41469
653225942419173840,-61077,-100106,41419
653225942426613427,-61167,-100067,41332
653225942434053014,-61112,-100020,41402
653225942441492601,-61091,-99916,41410
653225942448932188,-61035,-99975,41389
653225942456371775,-61086,-99987,41475
653225942463811362,-61020,-99976,41450
653225942471250949,-61083,-99863,41382
653225942478690536,-61117,-99977,41370
653225942486130123,-61200,-99940,41330
653225942493569710,-61199,-100102,41280
653225942501009297,-61115,-100034,41297
653225942508448884,-61185,-99953,41195
653225942515888471,-61200,-100006,41196
653225942523328058,-61181,-99952,41320
653225942530767645,-61208,-99889,41259
653225942538207232,-61161,-99911,41266
653225942545706788,-61144,-100002,41135
653225942553142848,-61090,-99939,41323
653225942560578908,-61123,-99944,41274
653225942568014968,-61044,-99943,41312
653225942575451028,-60996,-99926,41300
653225942582887088,-61084,-99929,41246
653225942590323148,-61141,-100046,41353
653225942597759208,-61056,-100102,41347
653225942605195268,-60933,-99938,41384
653225942612631328,-60964,-99810,41372
653225942620067388,-61126,-99876,41301
653225942627503448,-61179,-99967,41180
653225942634939508,-61130,-100036,41233
653225942642375568,-61008,-99909,41360
653225942649811628,-61071,-99905,41298
653225942657247688,-60925,-99827,41401
653225942664683748,-61046,-99898,41420
653225942672119808,-60951,-99939,41467
653225942679497855,-60825,-99849,41771
653225942686937328,-60946,-99803,41553
653225942694376801,-60964,-99831,41506
653225942701816274,-60896,-99789,41502
653225942709255747,-60977,-99796,41576
653225942716695220,-60903,-99871,41654
653225942724134693,-60823,-99787,41647
653225942731574166,-60854,-99798,41552
653225942739013639,-60838,-99864,41594
653225942746453112,-60754,-99758,41605
653225942753892585,-60729,-99666,41625
653225942761332058,-60740,-99644,41622
653225942768771531,-60643,-99656,41636
653225942776211004,-60643,-99560,41641
653225942783650477,-60689,-99657,41700
653225942791089950,-60666,-99656,41711
653225942798529423,-60685,-99601,41821
653225942805968896,-60737,-99700,41708
653225942813435464,-60784,-99733,41914
653225942820873344,-60781,-99634,41825
653225942828311224,-60666,-99560,41932
653225942835749104,-60545,-99560,41882
653225942843186984,-60584,-99611,41843
653225942850624864,-60520,-99618,41939
653225942858062744,-60445,-99519,41941
653225942865500624,-60501,-99559,41950
653225942872938504,-60460,-99545,41990
653225942880376384,-60498,-99505,41826
653225942887814264,-60450,-99501,41958
653225942895252144,-60361,-99522,41979
653225942902690024,-60365,-99528,41988
653225942910127904,-60393,-99387,42148
653225942917565784,-60333,-99396,42158
653225942925003664,-60349,-99460,42231
653225942932441544,-60358,-99495,42208
653225942939879424,-60230,-99372,42249
653225942947319241,-60065,-99180,42540
653225942954757008,-60162,-99210,42447
653225942962194775,-60124,-99210,42337
653225942969632542,-60224,-99380,42269
653225942977070309,-60206,-99361,42327
653225942984508076,-60208,-99332,42330
653225942991945843,-60218,-99337,42463
653225942999383610,-60216,-99310,42398
653225943006821377,-60241,-99384,42265
653225943014259144,-60320,-99490,42140
653225943021696911,-60289,-99458,42251
653225943029134678,-60412,-99445,42201
653225943036572445,-60532,-99429,42131
653225943044010212,-60724,-99592,42046
653225943051447979,-60520,-99524,42060
653225943058885746,-60576,-99591,41957
653225943066323513,-60780,-99624,41799
653225943073761280,-60929,-99782,41756
653225943081197128,-60661,-99913,41970
653225943088635008,-60869,-99857,41820
653225943096072888,-60967,-99684,41703
653225943103510768,-61004,-99889,41445
653225943110948648,-61067,-99811,41455
653225943118386528,-61099,-99985,41470
653225943125824408,-61121,-99870,41420
653225943133262288,-61115,-99857,41438
653225943140700168,-61309,-99990,41271
653225943148138048,-61274,-99914,41302
653225943155575928,-61300,-99932,41223
653225943163013808,-61320,-100023,41167
653225943170451688,-61318,-99955,41212
653225943177889568,-61472,-100040,40975
653225943185327448,-61487,-99994,41046
653225943192765328,-61471,-100055,40967
653225943200203208,-61553,-100079,40934
653225943207641088,-61466,-99986,40951
653225943215080905,-61641,-99875,40813
653225943222518672,-61660,-100092,40856
653225943229956439,-61636,-100128,40867
653225943237394206,-61586,-100190,40915
653225943244831973,-61524,-100049,40798
653225943252269740,-61556,-100115,40665
653225943259707507,-61530,-100205,40670
653225943267145274,-61581,-100098,40680
653225943274583041,-61600,-100122,40711
653225943282020808,-61588,-100122,40698
653225943289458575,-61559,-100129,40698
653225943296896342,-61568,-100128,40574
653225943304334109,-61494,-100091,40645
653225943311771876,-61685,-100179,40730
653225943319209643,-61782,-100133,40715
653225943326647410,-61686,-100071,40657
653225943334085177,-61790,-100095,40605
653225943341522944,-61658,-100027,40666
653225943348987794,-61742,-99943,40805
653225943356423968,-61816,-100046,40634
653225943363860142,-61788,-100080,40788
653225943371296316,-61711,-100161,40652
653225943378732490,-61685,-100055,40646
653225943386168664,-61724,-100104,40565
653225943393604838,-61690,-100126,40399
653225943401041012,-61613,-100066,40449
653225943408477186,-61600,-100065,40520
653225943415913360,-61653,-100188,40533
653225943423349534,-61706,-100105,40534
653225943430785708,-61741,-100079,40507
653225943438221882,-61655,-100160,40503
653225943445658056,-61624,-100013,40605
653225943453094230,-61600,-100117,40484
653225943460530404,-61668,-100123,40529
653225943467966578,-61613,-100068,40529
653225943475402752,-61589,-100092,40576
653225943482811849,-61842,-100202,40704
653225943490249616,-61748,-100102,40551
653225943497687383,-61674,-100032,40546
653225943505125150,-61752,-99994,40480
653225943512562917,-61693,-99995,40508
653225943520000684,-61653,-99924,40591
653225943527438451,-61591,-99948,40643
653225943534876218,-61500,-99963,40739
653225943542313985,-61511,-99999,40713
653225943549751752,-61440,-99950,40724
653225943557189519,-61481,-99942,40598
653225943564627286,-61398,-100036,40639
653225943572065053,-61394,-99854,40816
653225943579502820,-61288,-99882,40780
653225943586940587,-61236,-99863,40779
653225943594378354,-61334,-99853,40700
653225943601816121,-61352,-99921,40759
653225943609253888,-61215,-99850,40816
653225943616747757,-61473,-99585,40891
653225943624182224,-61311,-99619,40953
653225943631616691,-61253,-99711,40960
653225943639051158,-61311,-99777,40811
653225943646485625,-61281,-99786,40799
653225943653920092,-61233,-99735,40928
653225943661354559,-61216,-99736,40936
653225943668789026,-61081,-99806,41047
653225943676223493,-61162,-99729,40990
653225943683657960,-61261,-99703,40992
653225943691092427,-61159,-99606,41023
653225943698526894,-61167,-99599,40965
653225943705961361,-61029,-99760,40909
653225943713395828,-61151,-99771,41005
653225943720830295,-61200,-99673,41047
653225943728264762,-61031,-99726,41090
653225943735699229,-61076,-99666,41161
653225943743133696,-60960,-99575,41189
653225943750512073,-60773,-99693,41394
653225943757949840,-60882,-99639,41209
653225943765387607,-60895,-99587,41298
653225943772825374,-60862,-99553,41370
653225943780263141,-60918,-99530,41377
653225943787700908,-60875,-99504,41423
653225943795138675,-60854,-99513,41381
653225943802576442,-60877,-99503,41496
653225943810014209,-60803,-99426,41462
653225943817451976,-60765,-99429,41487
653225943824889743,-60639,-99562,41584
653225943832327510,-60781,-99501,41480
653225943839765277,-60797,-99697,41441
653225943847203044,-60934,-99669,41362
653225943854640811,-60990,-99592,41423
653225943862078578,-61032,-99607,41285
653225943869516345,-60992,-99754,41226
653225943876954112,-60997,-99717,41179
653225943884362879,-60957,-100019,41694
653225943891802352,-61123,-99835,41335
653225943899241825,-61198,-99807,41149
653225943906681298,-61359,-99761,41039
653225943914120771,-61398,-99929,40814
653225943921560244,-61393,-99929,40716
653225943928999717,-61482,-99816,40763
653225943936439190,-61561,-99963,40713
653225943943878663,-61543,-99883,40688
653225943951318136,-61697,-99942,40615
653225943958757609,-61666,-99983,40610
653225943966197082,-61741,-99953,40428
653225943973636555,-61787,-100070,40436
653225943981076028,-61857,-100092,40332
653225943988515501,-61935,-100256,40302
653225943995954974,-61797,-100109,40311
653225944003394447,-61906,-100250,40290
653225944010833920,-61964,-100182,40252
653225944018329490,-61749,-99952,40429
653225944025765664,-61834,-99960,40250
653225944033201838,-61958,-100110,40153
653225944040638012,-61984,-100127,40069
653225944048074186,-62146,-100054,40039
653225944055510360,-62049,-100172,39954
653225944062946534,-62118,-100289,39905
653225944070382708,-62146,-100313,39912
653225944077818882,-62134,-100268,39883
653225944085255056,-62148,-100219,39900
653225944092691230,-62071,-100269,39860
653225944100127404,-62107,-100126,39932
653225944107563578,-62230,-100173,39842
653225944114999752,-62148,-100168,39840
653225944122435926,-62146,-100166,39783
653225944129872100,-62094,-100113,39826
653225944137308274,-62140,-100269,39855
653225944144744448,-62215,-100219,39765
653225944152124543,-62124,-100328,40077
653225944159564016,-62146,-100199,39931
653225944167003489,-62176,-100233,39850
653225944174442962,-62187,-100304,39879
653225944181882435,-62201,-100219,39885
653225944189321908,-62285,-100199,39802
653225944196761381,-62102,-100115,39808
653225944204200854,-62200,-100172,39748
653225944211640327,-62148,-100186,39760
653225944219079800,-62209,-100224,39742
653225944226519273,-62134,-100298,39678
653225944233958746,-62285,-100243,39625
653225944241398219,-62227,-100170,39812
653225944248837692,-62250,-100138,39674
653225944256277165,-62384,-100254,39675
653225944263716638,-62184,-100178,39798
653225944271156111,-62158,-100127,39732
653225944278595584,-62213,-100096,39696
653225944286064073,-62179,-100076,39682
653225944293501840,-62127,-100138,39718
653225944300939607,-62155,-100007,39784
653225944308377374,-62073,-99977,39790
653225944315815141,-62213,-100149,39707
653225944323252908,-62302,-100079,39691
653225944330690675,-62144,-100051,39799
653225944338128442,-62234,-100013,39752
653225944345566209,-62145,-100079,39841
653225944353003976,-62119,-100053,39828
653225944360441743,-61895,-100014,39781
653225944367879510,-61871,-99986,39909
653225944375317277,-61924,-100031,39873
653225944382755044,-61913,-100046,39821
653225944390192811,-61962,-100093,39815
653225944397630578,-61975,-100140,39866
653225944405068345,-61899,-99904,40028
653225944412506112,-61879,-99910,40007
653225944419941960,-61981,-100030,39785
653225944427379840,-61997,-100013,39960
653225944434817720,-61896,-99922,39877
653225944442255600,-61791,-99841,40014
653225944449693480,-61857,-100019,40098
653225944457131360,-61818,-100007,40002
653225944464569240,-61835,-99907,40080
653225944472007120,-61776,-99957,40156
6.53226E+17,-61684,-99932,40172
653225944486882880,-61708,-99830,40208
653225944494320760,-61679,-99756,40286
653225944501758640,-61701,-99870,40221
653225944509196520,-61633,-99876,40299
653225944516634400,-61625,-99760,40318
653225944524072280,-61514,-99740,40316
653225944531510160,-61610,-99805,40301
653225944538948040,-61607,-99778,40225
653225944546385920,-61475,-99776,40340
653225944553825737,-61356,-99717,40475
653225944561263504,-61505,-99708,40503
653225944568701271,-61516,-99650,40605
653225944576139038,-61465,-99677,40475
653225944583576805,-61473,-99636,40493
653225944591014572,-61402,-99648,40507
653225944598452339,-61391,-99632,40528
653225944605890106,-61303,-99531,40722
653225944613327873,-61313,-99685,40604
653225944620765640,-61253,-99669,40670
653225944628203407,-61268,-99589,40735
653225944635641174,-61369,-99588,40810
653225944643078941,-61211,-99533,40775
653225944650516708,-61219,-99526,40831
653225944657954475,-61262,-99624,40935
653225944665392242,-61313,-99547,40804
653225944672830009,-61218,-99433,40867
653225944680267776,-61234,-99552,40881
653225944687732626,-60988,-99782,40985
653225944695168800,-61137,-99677,40893
653225944702604974,-61281,-99661,40731
653225944710041148,-61445,-99700,40753
653225944717477322,-61382,-99691,40648
653225944724913496,-61515,-99799,40555
653225944732349670,-61598,-99816,40461
653225944739785844,-61713,-99797,40462
653225944747222018,-61379,-100123,40427
653225944754658192,-61659,-99867,40411
653225944762094366,-61657,-99875,40328
653225944769530540,-61794,-99846,40252
653225944776966714,-61828,-99788,40233
653225944784402888,-61888,-99909,40211
653225944791839062,-61910,-99943,40107
653225944799275236,-61866,-100003,40050
653225944806711410,-61879,-100012,40084
653225944814147584,-61951,-99972,40057
653225944821556681,-62178,-99882,39885
653225944828994448,-62113,-99904,39924
653225944836432215,-62081,-100087,39762
653225944843869982,-62166,-100034,39829
653225944851307749,-62207,-100184,39726
653225944858745516,-62133,-100086,39819
653225944866183283,-62202,-100043,39719
653225944873621050,-62203,-100127,39772
653225944881058817,-61999,-100068,39765
653225944888496584,-62081,-99974,39810
653225944895934351,-62157,-99998,39714
653225944903372118,-62168,-99984,39750
653225944910809885,-62266,-100054,39681
653225944918247652,-62251,-100097,39671
653225944925685419,-62289,-100031,39636
653225944933123186,-62307,-100048,39688
653225944940560953,-62238,-100053,39727
653225944947998720,-62377,-100091,39614
653225944955436489,-62364,-99866,39714
653225944962874256,-62279,-100042,39567
653225944970312023,-62276,-100002,39632
653225944977749790,-62242,-100121,39634
653225944985187557,-62261,-100065,39603
653225944992625324,-62158,-100101,39692
653225945000063091,-62200,-100114,39609
653225945007500858,-62256,-100055,39658
653225945014938625,-62257,-100025,39643
653225945022376392,-62195,-100087,39607
653225945029814159,-62159,-100029,39657
653225945037251926,-62149,-100094,39596
653225945044689693,-62401,-100070,39593
653225945052127460,-62288,-99994,39553
653225945059565227,-62238,-100020,39680
653225945067002994,-62255,-100100,39501
653225945074440761,-62268,-100077,39547
653225945081878528,-62101,-100061,39666
653225945089285357,-62288,-100050,39542
653225945096724944,-62337,-99977,39535
653225945104164531,-62232,-99945,39661
653225945111604118,-62337,-99956,39699
653225945119043705,-62259,-99963,39719
653225945126483292,-62272,-99959,39670
653225945133922879,-62234,-99914,39740
653225945141362466,-62261,-99991,39713
653225945148802053,-62222,-99978,39796
653225945156241640,-62019,-99864,39761
653225945163681227,-62037,-99912,39850
653225945171120814,-62008,-99784,39830
653225945178560401,-62061,-99839,39732
653225945185999988,-62096,-100014,39738
653225945193439575,-62171,-99974,39734
653225945200879162,-62044,-99850,39753
653225945208318749,-62111,-99892,39697
653225945215758336,-62002,-99774,39889
653225945223286911,-61816,-99926,39835
653225945230721264,-61913,-99886,39860
653225945238155617,-61905,-99912,39829
653225945245589970,-61936,-99724,39914
653225945253024323,-61872,-99767,39943
653225945260458676,-61839,-99790,39971
653225945267893029,-61919,-99650,40059
653225945275327382,-61844,-99751,40106
653225945282761735,-61829,-99756,40128
653225945290196088,-61755,-99623,40098
653225945297630441,-61672,-99569,40180
653225945305064794,-61669,-99616,40239
653225945312499147,-61784,-99806,40204
653225945319933500,-61683,-99657,40236
653225945327367853,-61762,-99634,40256
653225945334802206,-61684,-99722,40278
653225945342236559,-61662,-99632,40312
653225945349670912,-61679,-99708,40328
653225945356987282,-61816,-99767,40784
653225945364428576,-61653,-99690,40521
653225945371869870,-61524,-99625,40529
653225945379311164,-61477,-99554,40445
653225945386752458,-61552,-99591,40511
653225945394193752,-61468,-99554,40537
653225945401635046,-61395,-99501,40555
653225945409076340,-61475,-99575,40601
653225945416517634,-61373,-99479,40686
653225945423958928,-61363,-99497,40661
653225945431400222,-61278,-99522,40668
653225945438841516,-61380,-99523,40723
653225945446282810,-61283,-99507,40704
653225945453724104,-61283,-99407,40737
653225945461165398,-61218,-99377,40790
653225945468606692,-61196,-99291,40820
653225945476047986,-61128,-99301,40898
653225945483489280,-61110,-99290,40924
653225945491019556,-61077,-99468,40649
653225945498455616,-61225,-99426,40743
653225945505891676,-61152,-99512,40698
653225945513327736,-61265,-99464,40718
653225945520763796,-61383,-99543,40748
653225945528199856,-61338,-99495,40789
653225945535635916,-61379,-99618,40621
653225945543071976,-61518,-99621,40458
653225945550508036,-61547,-99771,40634
653225945557944096,-61602,-99690,40516
653225945565380156,-61637,-99694,40519
653225945572816216,-61630,-99727,40465
653225945580252276,-61674,-99708,40414
653225945587688336,-61655,-99695,40443
653225945595124396,-61769,-99739,40377
653225945602560456,-61782,-99856,40257
653225945609996516,-61794,-99795,40309
653225945617432576,-61754,-99881,40352
653225945624839625,-61585,-99639,40090
653225945632277392,-61809,-99658,40186
653225945639715159,-61837,-99821,40028
653225945647152926,-61809,-99811,40192
653225945654590693,-61771,-99926,40239
653225945662028460,-61794,-99822,40156
653225945669466227,-61881,-99829,40196
653225945676903994,-61811,-99943,40257
653225945684341761,-61893,-99859,40193
653225945691779528,-61963,-99966,40195
653225945699217295,-61924,-99898,40149
653225945706655062,-62049,-99968,40089
653225945714092829,-62037,-99984,40052
653225945721530596,-61962,-100098,40021
653225945728968363,-61922,-99940,40137
653225945736406130,-61823,-99966,40045
653225945743843897,-61969,-99915,40075
653225945751281664,-61969,-100043,40115
653225945758688493,-62272,-99770,40101
653225945766128080,-62035,-99926,40174
653225945773567667,-61940,-99898,40151
653225945781007254,-61803,-99932,40127
653225945788446841,-61863,-99897,40108
653225945795886428,-61780,-99974,40091
653225945803326015,-61829,-99947,40143
653225945810765602,-61818,-99978,40040
653225945818205189,-61826,-100062,39932
653225945825644776,-61765,-99980,40083
653225945833084363,-61871,-99927,40069
653225945840523950,-61902,-99995,39997
653225945847963537,-61875,-99981,40065
653225945855403124,-61877,-99987,40125
653225945862842711,-61885,-99947,40047
653225945870282298,-61773,-100046,40076
653225945877721885,-61745,-99946,40128
653225945885161472,-61799,-99917,40097
653225945892632009,-61642,-99991,40451
653225945900069776,-61654,-99962,40298
653225945907507543,-61722,-99932,40325
653225945914945310,-61806,-99823,40200
653225945922383077,-61677,-99874,40206
653225945929820844,-61710,-99901,40259
653225945937258611,-61798,-99839,40258
653225945944696378,-61676,-99778,40338
653225945952134145,-61831,-99865,40204
653225945959571912,-61749,-99849,40316
653225945967009679,-61807,-99846,40263
653225945974447446,-61783,-99913,40272
653225945981885213,-61594,-99910,40349
653225945989322980,-61617,-99882,40336
653225945996760747,-61651,-99850,40364
653225946004198514,-61574,-99792,40507
653225946011636281,-61476,-99743,40507
653225946019074048,-61460,-99739,40509
653225946026538898,-61601,-99479,40175
653225946033975072,-61491,-99669,40443
653225946041411246,-61540,-99570,40519
653225946048847420,-61376,-99541,40637
653225946056283594,-61347,-99546,40692
653225946063719768,-61340,-99492,40674
653225946071155942,-61321,-99631,40642
653225946078592116,-61319,-99756,40540
653225946086028290,-61334,-99727,40632
653225946093464464,-61328,-99625,40702
653225946100900638,-61137,-99643,40797
653225946108336812,-61240,-99553,40814
653225946115772986,-61150,-99568,40882
653225946123209160,-61166,-99479,40943
653225946130645334,-61180,-99416,40955
653225946138081508,-61275,-99570,40866
653225946145517682,-61161,-99461,40950
653225946152953856,-61144,-99532,40955
653225946160333951,-61099,-99371,40872
653225946167773424,-61052,-99420,40943
653225946175212897,-61031,-99586,40970
653225946182652370,-60945,-99456,41088
653225946190091843,-60928,-99446,41092
653225946197531316,-60823,-99385,41157
653225946204970789,-60945,-99423,41163
653225946212410262,-60892,-99285,41308
653225946219849735,-60878,-99319,41320
653225946227289208,-60798,-99351,41402
653225946234728681,-60943,-99319,41338
653225946242168154,-60804,-99253,41369
653225946249607627,-60750,-99279,41475
653225946257047100,-60858,-99286,41338
653225946264486573,-60805,-99215,41485
653225946271926046,-60913,-99243,41457
653225946279365519,-60835,-99285,41413
653225946286804992,-60947,-99379,41359
653225946294273481,-61198,-99661,41707
653225946301711248,-60986,-99546,41464
653225946309149015,-61071,-99532,41411
653225946316586782,-60985,-99460,41166
653225946324024549,-61209,-99523,41086
653225946331462316,-61206,-99570,40910
653225946338900083,-61182,-99608,41012
653225946346337850,-61212,-99624,41023
653225946353775617,-61242,-99602,41012
653225946361213384,-61410,-99687,40837
653225946368651151,-61443,-99721,40953
653225946376088918,-61395,-99836,40915
653225946383526685,-61449,-99899,40753
653225946390964452,-61578,-99786,40740
653225946398402219,-61572,-99876,40669
653225946405839986,-61629,-99879,40625
653225946413277753,-61622,-99850,40450
653225946420715520,-61697,-99972,40517
653225946428151368,-61616,-100125,40491
653225946435589248,-61672,-100072,40429
653225946443027128,-61762,-99927,40447
653225946450465008,-61783,-100036,40383
653225946457902888,-61809,-100089,40443
653225946465340768,-61743,-100140,40401
653225946472778648,-61854,-100065,40391
653225946480216528,-61967,-100100,40329
653225946487654408,-61876,-100091,40290
653225946495092288,-61984,-100074,40286
653225946502530168,-61848,-100191,40149
653225946509968048,-61874,-100146,40207
653225946517405928,-61898,-100182,40237
653225946524843808,-61946,-100172,40191
653225946532281688,-61918,-100111,40323
653225946539719568,-61896,-100102,40256
653225946547157448,-61869,-100106,40200
653225946554595328,-61835,-100194,40205
653225946562035145,-61988,-100560,40330
653225946569472912,-61943,-100381,40188
653225946576910679,-61954,-100240,40177
653225946584348446,-61900,-100146,40161
653225946591786213,-61906,-100142,40077
653225946599223980,-61958,-100150,40155
653225946606661747,-62000,-100276,40312
653225946614099514,-62037,-100143,40243
653225946621537281,-61974,-100176,40183
653225946628975048,-62006,-100172,40145
653225946636412815,-61998,-100184,40052
653225946643850582,-62061,-100287,40092
653225946651288349,-62042,-100167,40110
653225946658726116,-62015,-100188,39955
653225946666163883,-61931,-100257,40167
653225946673601650,-61986,-100223,40093
653225946681039417,-61905,-100171,40175
653225946688477184,-61947,-100177,40163
653225946695914953,-62030,-100342,40428
653225946703352720,-61861,-100342,40224
653225946710790487,-61889,-100203,40229
653225946718228254,-61840,-100213,40194
653225946725666021,-61889,-100151,40157
653225946733103788,-61867,-100099,40231
653225946740541555,-61861,-100099,40330
653225946747979322,-61786,-100047,40162
653225946755417089,-61876,-100085,40226
653225946762854856,-61878,-100032,40212
653225946770292623,-61881,-100021,40271
653225946777730390,-61924,-99967,40271
653225946785168157,-61820,-99983,40304
653225946792605924,-61822,-100055,40166
653225946800043691,-61678,-100101,40309
653225946807481458,-61702,-100137,40269
653225946814919225,-61746,-100100,40376
653225946822356992,-61681,-100144,40358
653225946829792840,-61448,-99760,39999
653225946837230720,-61559,-99873,40190
653225946844668600,-61567,-100020,40282
653225946852106480,-61619,-99995,40478
653225946859544360,-61647,-100043,40552
653225946866982240,-61572,-100126,40459
653225946874420120,-61539,-99979,40426
6.53226E+17,-61708,-99840,40424
653225946889295880,-61569,-99886,40466
653225946896733760,-61525,-99888,40570
653225946904171640,-61418,-99847,40533
653225946911609520,-61432,-99956,40476
653225946919047400,-61442,-100031,40570
653225946926485280,-61445,-100020,40588
653225946933923160,-61418,-99865,40637
653225946941361040,-61378,-99754,40754
653225946948798920,-61488,-99850,40719
653225946956236800,-61315,-99708,40777
653225946963734655,-61416,-99627,40934
653225946971169008,-61434,-99678,40951
653225946978603361,-61284,-99788,40874
653225946986037714,-61174,-99846,40928
653225946993472067,-61329,-99790,40985
653225947000906420,-61209,-99772,40915
653225947008340773,-61311,-99723,41020
653225947015775126,-61081,-99770,40938
653225947023209479,-61159,-99675,40911
653225947030643832,-61057,-99754,41073
653225947038078185,-61088,-99660,41052
653225947045512538,-61023,-99615,41066
653225947052946891,-61016,-99631,41101
653225947060381244,-61025,-99608,41016
653225947067815597,-61083,-99582,40989
653225947075249950,-61144,-99875,40879
653225947082684303,-61097,-99737,40930
653225947090118656,-61231,-99910,40821
653225947097435026,-61123,-99944,41005
653225947104876320,-61258,-100006,40832
653225947112317614,-61267,-99870,40774
653225947119758908,-61507,-99974,40685
653225947127200202,-61645,-99961,40597
653225947134641496,-61549,-100014,40416
653225947142082790,-61639,-100104,40444
653225947149524084,-61619,-100059,40460
653225947156965378,-61633,-100273,40339
653225947164406672,-61750,-100301,40207
653225947171847966,-61828,-100288,40227
653225947179289260,-61830,-100340,40201
653225947186730554,-61764,-100386,40132
653225947194171848,-61843,-100290,39984
653225947201613142,-62012,-100314,40031
653225947209054436,-62005,-100457,40028
653225947216495730,-62066,-100541,39894
653225947223937024,-62111,-100526,39821
653225947231467300,-61991,-100398,40072
653225947238903360,-62182,-100432,39938
653225947246339420,-62208,-100496,39739
653225947253775480,-62212,-100525,39695
653225947261211540,-62262,-100525,39620
653225947268647600,-62324,-100651,39460
653225947276083660,-62244,-100698,39508
653225947283519720,-62401,-100716,39457
653225947290955780,-62473,-100744,39519
653225947298391840,-62347,-100543,39605
653225947305827900,-62315,-100615,39428
653225947313263960,-62402,-100686,39405
653225947320700020,-62406,-100609,39455
653225947328136080,-62370,-100729,39388
653225947335572140,-62367,-100678,39429
653225947343008200,-62426,-100695,39288
653225947350444260,-62377,-100651,39318
653225947357880320,-62357,-100744,39227
653225947365285448,-62139,-100935,39548
653225947372723328,-62378,-100907,39233
653225947380161208,-62384,-100902,39107
653225947387599088,-62424,-100762,39182
653225947395036968,-62422,-100717,39207
653225947402474848,-62445,-100728,39158
653225947409912728,-62446,-100727,39128
653225947417350608,-62296,-100697,39180
653225947424788488,-62349,-100725,39145
653225947432226368,-62468,-100753,39169
653225947439664248,-62446,-100725,39114
653225947447102128,-62409,-100793,39120
653225947454540008,-62496,-100772,39118
653225947461977888,-62397,-100635,39145
653225947469415768,-62345,-100683,39064
653225947476853648,-62478,-100729,39041
653225947484291528,-62495,-100691,39113
653225947491729408,-62366,-100806,39091
653225947499169225,-62210,-100974,38992
653225947506606992,-62320,-100895,38933
653225947514044759,-62340,-100827,39068
653225947521482526,-62345,-100732,39065
653225947528920293,-62350,-100866,39001
653225947536358060,-62288,-100779,39051
653225947543795827,-62320,-100818,39083
653225947551233594,-62340,-100786,39059
653225947558671361,-62215,-100759,39058
653225947566109128,-62256,-100809,39083
653225947573546895,-62237,-100775,39135
653225947580984662,-62327,-100794,39046
653225947588422429,-62284,-100745,39080
653225947595860196,-62319,-100623,39152
653225947603297963,-62271,-100797,39094
653225947610735730,-62235,-100724,39088
653225947618173497,-62247,-100803,39171
653225947625611264,-62173,-100769,39214
653225947633105133,-62279,-100434,39525
653225947640539600,-62201,-100558,39347
653225947647974067,-62162,-100610,39142
653225947655408534,-62102,-100638,39298
653225947662843001,-62048,-100660,39236
653225947670277468,-62107,-100600,39302
653225947677711935,-62061,-100632,39322
653225947685146402,-62101,-100741,39134
653225947692580869,-62032,-100785,39108
653225947700015336,-62033,-100652,39351
653225947707449803,-61948,-100732,39282
653225947714884270,-61889,-100624,39403
653225947722318737,-62013,-100576,39282
653225947729753204,-61942,-100658,39250
653225947737187671,-61947,-100498,39335
653225947744622138,-61849,-100472,39439
653225947752056605,-61826,-100569,39431
653225947759491072,-61830,-100550,39414
653225947766811428,-61730,-100713,39609
653225947774252608,-61740,-100550,39707
653225947781693788,-61878,-100516,39606
653225947789134968,-61810,-100536,39557
653225947796576148,-61856,-100513,39577
653225947804017328,-61761,-100432,39622
653225947811458508,-61627,-100458,39651
653225947818899688,-61650,-100489,39622
653225947826340868,-61659,-100394,39651
653225947833782048,-61559,-100506,39693
653225947841223228,-61571,-100343,39702
653225947848664408,-61602,-100459,39716
653225947856105588,-61704,-100529,39729
653225947863546768,-61658,-100399,39668
653225947870987948,-61726,-100508,39684
653225947878429128,-61756,-100490,39650
653225947885870308,-61787,-100539,39606
653225947893311488,-61754,-100537,39597
653225947900839716,-62130,-100552,39745
653225947908275776,-62029,-100683,39554
653225947915711836,-61920,-100691,39412
653225947923147896,-62084,-100715,39280
653225947930583956,-62151,-100720,39200
653225947938020016,-62173,-100768,39101
653225947945456076,-62216,-100931,39043
653225947952892136,-62215,-100944,39017
653225947960328196,-62452,-100900,38886
653225947967764256,-62445,-100963,38729
653225947975200316,-62488,-101128,38760
653225947982636376,-62535,-101059,38520
653225947990072436,-62428,-101096,38656
653225947997508496,-62632,-101086,38498
653225948004944556,-62601,-101081,38409
653225948012380616,-62623,-101162,38366
653225948019816676,-62778,-101265,38163
653225948027252736,-62719,-101147,38211
653225948034686866,-62493,-101117,38342
653225948042123040,-62678,-101248,38130
653225948049559214,-62713,-101328,38120
653225948056995388,-62755,-101329,38100
653225948064431562,-62786,-101330,38024
653225948071867736,-62808,-101276,37975
653225948079303910,-62820,-101418,37750
653225948086740084,-62935,-101534,37680
653225948094176258,-62936,-101432,37778
653225948101612432,-62949,-101484,37760
653225948109048606,-62883,-101422,37782
653225948116484780,-62875,-101464,37704
653225948123920954,-62879,-101439,37726
653225948131357128,-62863,-101397,37720
653225948138793302,-62883,-101512,37730
653225948146229476,-62991,-101452,37631
653225948153665650,-62874,-101428,37599
653225948161101824,-62870,-101487,37628
653225948168481919,-62635,-101569,37814
653225948175921392,-62782,-101433,37730
653225948183360865,-62934,-101542,37439
653225948190800338,-62823,-101485,37515
653225948198239811,-62872,-101498,37561
653225948205679284,-62829,-101449,37457
653225948213118757,-62940,-101533,37461
653225948220558230,-62820,-101539,37469
653225948227997703,-62969,-101624,37292
653225948235437176,-62974,-101636,37318
653225948242876649,-62955,-101623,37448
653225948250316122,-62978,-101598,37412
653225948257755595,-63158,-101520,37391
653225948265195068,-63106,-101502,37370
653225948272634541,-62943,-101625,37339
653225948280074014,-62957,-101569,37370
653225948287513487,-62914,-101589,37370
653225948294952960,-62917,-101585,37376
653225948302421449,-63118,-101581,37131
653225948309859216,-63025,-101599,37118
653225948317296983,-62946,-101610,37236
653225948324734750,-62937,-101669,37177
653225948332172517,-62913,-101595,37220
653225948339610284,-62845,-101542,37197
653225948347048051,-62921,-101495,37190
653225948354485818,-62880,-101529,37428
653225948361923585,-62926,-101574,37438
653225948369361352,-62853,-101533,37420
653225948376799119,-62838,-101637,37500
653225948384236886,-62738,-101436,37442
653225948391674653,-62828,-101552,37495
653225948399112420,-62685,-101457,37419
653225948406550187,-62705,-101435,37390
653225948413987954,-62764,-101430,37393
653225948421425721,-62734,-101485,37423
653225948428863488,-62742,-101538,37396
653225948436357357,-62896,-101412,37135
653225948443791824,-62795,-101449,37227
653225948451226291,-62828,-101408,37304
653225948458660758,-62698,-101481,37344
653225948466095225,-62571,-101348,37494
653225948473529692,-62544,-101344,37474
653225948480964159,-62449,-101479,37623
653225948488398626,-62505,-101269,37563
653225948495833093,-62479,-101274,37596
653225948503267560,-62634,-101337,37496
653225948510702027,-62494,-101299,37564
653225948518136494,-62435,-101197,37668
653225948525570961,-62541,-101322,37601
653225948533005428,-62476,-101351,37571
653225948540439895,-62458,-101255,37656
653225948547874362,-62487,-101227,37695
653225948555308829,-62395,-101186,37646
653225948562743296,-62442,-101115,37739
653225948570063652,-62114,-101110,37585
653225948577504832,-62291,-101116,37688
653225948584946012,-62209,-101118,37839
653225948592387192,-62176,-101192,37867
653225948599828372,-62219,-101185,37907
653225948607269552,-62133,-101159,37924
653225948614710732,-62059,-100969,38016
653225948622151912,-62095,-100961,38095
653225948629593092,-62217,-101112,38050
653225948637034272,-62131,-101175,38072
653225948644475452,-62068,-101113,38104
653225948651916632,-62074,-101094,38156
653225948659357812,-62067,-100885,38130
653225948666798992,-62105,-101048,38176
653225948674240172,-62108,-101032,38040
653225948681681352,-62101,-101088,38148
653225948689122532,-62040,-101115,38088
653225948696563712,-62076,-101119,38006
653225948704119021,-62028,-101158,37814
653225948711553488,-62145,-101139,37839
653225948718987955,-62325,-101291,37970
653225948726422422,-62434,-101200,37850
653225948733856889,-62357,-101384,37643
653225948741291356,-62405,-101364,37666
653225948748725823,-62497,-101361,37684
653225948756160290,-62524,-101315,37585
653225948763594757,-62525,-101547,37444
653225948771029224,-62657,-101478,37366
653225948778463691,-62710,-101512,37355
653225948785898158,-62688,-101573,37276
653225948793332625,-62670,-101656,37208
653225948800767092,-62766,-101518,37173
653225948808201559,-62888,-101531,37052
653225948815636026,-62780,-101480,37077
653225948823070493,-62864,-101485,37019
653225948830504960,-62929,-101637,36950
653225948837854335,-63255,-101805,36542
653225948845293808,-63226,-101742,36590
653225948852733281,-63196,-101651,36741
653225948860172754,-63125,-101701,36680
653225948867612227,-63155,-101714,36575
653225948875051700,-63128,-101817,36507
653225948882491173,-63125,-101632,36493
653225948889930646,-63200,-101733,36405
653225948897370119,-63153,-101748,36347
653225948904809592,-63108,-101757,36449
653225948912249065,-63189,-101744,36350
653225948919688538,-63213,-101695,36431
653225948927128011,-63187,-101641,36330
653225948934567484,-63198,-101625,36312
653225948942006957,-63245,-101801,36384
653225948949446430,-63199,-101913,36187
653225948956885903,-63271,-101836,36180
653225948964325376,-63264,-101742,36232
653225948971793865,-63445,-102026,36178
653225948979231632,-63443,-101972,36156
653225948986669399,-63315,-101921,36096
653225948994107166,-63223,-101823,36051
653225949001544933,-63334,-101701,36148
653225949008982700,-63405,-101738,36215
653225949016420467,-63262,-101837,36118
653225949023858234,-63248,-101730,36118
653225949031296001,-63299,-101805,36078
653225949038733768,-63290,-101804,36132
653225949046171535,-63208,-101791,36028
653225949053609302,-63292,-101819,35981
653225949061047069,-63205,-101818,35964
653225949068484836,-63203,-101671,36059
653225949075922603,-63322,-101806,35936
653225949083360370,-63246,-101856,35950
653225949090798137,-63228,-101743,36027
653225949098235904,-63179,-101749,35989
653225949105671752,-63198,-101766,36110
653225949113109632,-63122,-101750,36048
653225949120547512,-63129,-101716,36065
653225949127985392,-63328,-101699,36050
653225949135423272,-63211,-101661,36109
653225949142861152,-63263,-101627,36092
653225949150299032,-63174,-101717,36059
653225949157736912,-63169,-101628,36111
653225949165174792,-63072,-101543,36189
653225949172612672,-63200,-101621,36247
653225949180050552,-63164,-101673,36128
653225949187488432,-63098,-101599,36165
653225949194926312,-63060,-101607,36180
653225949202364192,-62983,-101546,36280
653225949209802072,-62977,-101482,36271
653225949217239952,-63054,-101485,36281
653225949224677832,-62960,-101534,36252
653225949232115712,-62950,-101502,36309
653225949239555529,-62807,-101234,36199
653225949246993296,-62893,-101296,36314
653225949254431063,-62856,-101529,36350
653225949261868830,-62893,-101524,36302
653225949269306597,-62844,-101537,36347
653225949276744364,-62929,-101503,36378
653225949284182131,-62820,-101474,36414
653225949291619898,-62889,-101670,36391
653225949299057665,-62897,-101439,36430
653225949306495432,-62708,-101416,36515
653225949313933199,-62737,-101425,36496
653225949321370966,-62840,-101397,36438
653225949328808733,-62710,-101379,36456
653225949336246500,-62880,-101368,36528
653225949343684267,-62705,-101340,36525
653225949351122034,-62577,-101228,36553
653225949358559801,-62676,-101317,36636
653225949365997568,-62596,-101251,36664
653225949373433416,-62425,-101102,36948
653225949380871296,-62394,-101186,36796
653225949388309176,-62448,-101222,36833
653225949395747056,-62537,-101177,36844
653225949403184936,-62455,-101171,36908
653225949410622816,-62499,-101251,36834
653225949418060696,-62385,-101214,36874
653225949425498576,-62284,-101157,36948
653225949432936456,-62270,-101099,36996
653225949440374336,-62324,-101181,36958
653225949447812216,-62247,-101232,36882
653225949455250096,-62274,-101129,37080
653225949462687976,-62277,-101098,37088
653225949470125856,-62212,-101078,37090
653225949477563736,-62264,-100954,37087
653225949485001616,-62220,-101162,37169
653225949492439496,-62288,-101127,37064
653225949499877376,-62428,-101214,36936
653225949507346212,-62637,-101340,37235
653225949514782272,-62581,-101303,37064
653225949522218332,-62534,-101416,36783
653225949529654392,-62517,-101349,36810
653225949537090452,-62586,-101275,36733
653225949544526512,-62588,-101309,36799
653225949551962572,-62654,-101379,36710
653225949559398632,-62645,-101399,36630
653225949566834692,-62733,-101352,36592
653225949574270752,-62803,-101435,36556
653225949581706812,-62814,-101405,36401
653225949589142872,-62961,-101555,36375
653225949596578932,-62966,-101590,36225
653225949604014992,-62919,-101487,36278
653225949611451052,-62920,-101594,36183
653225949618887112,-63069,-101569,36124
653225949626323172,-62986,-101549,36080
653225949633759232,-63137,-101578,36057
653225949641193362,-63108,-101459,36275
653225949648629536,-63159,-101525,36181
653225949656065710,-63163,-101507,36093
653225949663501884,-63170,-101537,36071
653225949670938058,-63111,-101651,35951
653225949678374232,-63098,-101727,35904
653225949685810406,-63199,-101744,35747
653225949693246580,-63313,-101768,35872
653225949700682754,-63294,-101807,35728
653225949708118928,-63225,-101746,35821
653225949715555102,-63077,-101653,35874
653225949722991276,-63125,-101642,35777
653225949730427450,-63246,-101635,35709
653225949737863624,-63183,-101610,35772
653225949745299798,-63119,-101611,35819
653225949752735972,-63052,-101785,35838
653225949760172146,-63171,-101671,35823
653225949767608320,-63207,-101613,35826
653225949774988415,-63392,-101673,35873
653225949782427888,-63210,-101649,35775
653225949789867361,-63219,-101634,35746
653225949797306834,-63215,-101735,35719
653225949804746307,-63147,-101670,35724
653225949812185780,-63176,-101673,35701
653225949819625253,-63176,-101580,35672
653225949827064726,-63100,-101634,35731
653225949834504199,-63165,-101790,35723
653225949841943672,-63127,-101551,35824
653225949849383145,-63146,-101638,35705
653225949856822618,-63183,-101574,35718
653225949864262091,-63188,-101669,35699
653225949871701564,-63122,-101695,35716
653225949879141037,-63179,-101709,35773
653225949886580510,-63107,-101670,35732
653225949894019983,-63128,-101723,35660
653225949901459456,-63092,-101699,35726
653225949908984045,-62913,-101452,35451
653225949916418512,-62985,-101477,35699
653225949923852979,-63092,-101456,35750
653225949931287446,-63044,-101444,35838
653225949938721913,-63038,-101594,35844
653225949946156380,-63038,-101616,35718
653225949953590847,-62983,-101502,35868
653225949961025314,-62880,-101528,35878
653225949968459781,-62930,-101524,35851
653225949975894248,-62915,-101485,35858
653225949983328715,-62899,-101461,35912
653225949990763182,-62833,-101429,35927
653225949998197649,-62957,-101511,36024
653225950005632116,-62856,-101559,36009
653225950013066583,-62787,-101402,36001
653225950020501050,-62733,-101481,36081
653225950027935517,-62713,-101401,36063
653225950035369984,-62721,-101412,36056
653225950042748361,-62705,-101317,36013
653225950050186128,-62771,-101271,36091
653225950057623895,-62747,-101254,36153
653225950065061662,-62690,-101255,36053
653225950072499429,-62709,-101318,36211
653225950079937196,-62616,-101283,36265
653225950087374963,-62631,-101244,36255
653225950094812730,-62605,-101246,36269
653225950102250497,-62522,-101183,36368
653225950109688264,-62595,-101185,36320
653225950117126031,-62417,-101183,36406
653225950124563798,-62411,-101041,36519
653225950132001565,-62419,-101062,36483
653225950139439332,-62428,-101093,36585
653225950146877099,-62408,-101083,36497
653225950154314866,-62393,-101104,36521
653225950161752633,-62428,-101094,36595
653225950169190400,-62369,-101115,36511
653225950176626248,-62308,-101141,36587
653225950184064128,-62318,-101066,36655
653225950191502008,-62251,-101206,36640
653225950198939888,-62252,-101094,36775
653225950206377768,-62229,-101101,36852
653225950213815648,-62197,-100991,36795
653225950221253528,-62187,-101010,36834
653225950228691408,-62200,-100951,36866
653225950236129288,-62073,-101018,36885
653225950243567168,-62074,-100995,36953
653225950251005048,-61985,-101028,37020
653225950258442928,-62016,-100998,37036
653225950265880808,-61969,-100914,37104
653225950273318688,-62008,-100871,37066
653225950280756568,-62033,-100808,37046
653225950288194448,-62200,-100981,36897
653225950295632328,-62082,-100945,36850
653225950303070208,-62139,-101036,36912
653225950310481023,-61953,-101009,36881
653225950317920496,-62119,-101038,36864
653225950325359969,-62207,-100997,36703
653225950332799442,-62307,-101082,36652
653225950340238915,-62380,-101170,36733
653225950347678388,-62445,-101079,36614
653225950355117861,-62521,-101218,36420
653225950362557334,-62690,-101419,36518
653225950369996807,-62651,-101333,36458
653225950377436280,-62813,-101361,36259
653225950384875753,-62846,-101461,36110
653225950392315226,-62825,-101357,36091
653225950399754699,-62789,-101282,36111
653225950407194172,-62808,-101375,36057
653225950414633645,-62879,-101475,35852
653225950422073118,-62882,-101466,35862
653225950429512591,-63021,-101419,35827
653225950436952064,-63019,-101474,35788
653225950444418632,-63004,-101310,35976
653225950451856512,-63025,-101499,35883
653225950459294392,-63085,-101457,35792
653225950466732272,-63139,-101585,35674
653225950474170152,-63186,-101582,35595
653225950481608032,-63004,-101471,35596
653225950489045912,-63155,-101629,35472
653225950496483792,-63132,-101693,35432
653225950503921672,-63191,-101645,35450
653225950511359552,-63239,-101498,35497
653225950518797432,-63257,-101448,35467
653225950526235312,-63264,-101547,35539
653225950533673192,-63195,-101490,35514
653225950541111072,-63262,-101514,35460
653225950548548952,-63308,-101617,35439
653225950555986832,-63321,-101647,35417
653225950563424712,-63239,-101651,35381
653225950570862592,-63342,-101530,35333
653225950578304347,-63532,-101599,35160
6.53226E+17,-63394,-101646,35211
653225950593179653,-63296,-101529,35308
653225950600617306,-63322,-101615,35307
653225950608054959,-63412,-101547,35279
653225950615492612,-63335,-101508,35343
653225950622930265,-63364,-101659,35235
653225950630367918,-63257,-101611,35305
653225950637805571,-63334,-101631,35264
653225950645243224,-63384,-101543,35303
653225950652680877,-63199,-101525,35320
653225950660118530,-63409,-101529,35240
653225950667556183,-63357,-101599,35190
653225950674993836,-63275,-101522,35279
653225950682431489,-63211,-101518,35236
653225950689869142,-63228,-101445,35272
653225950697306795,-63233,-101659,35236
653225950704744448,-63222,-101483,35295
653225950712178248,-63024,-101471,34989
653225950719616128,-63081,-101461,35256
653225950727054008,-63197,-101444,35259
653225950734491888,-63185,-101495,35354
653225950741929768,-63219,-101465,35363
653225950749367648,-63240,-101617,35295
653225950756805528,-63127,-101441,35382
653225950764243408,-62998,-101354,35485
653225950771681288,-63140,-101420,35482
653225950779119168,-63154,-101440,35409
653225950786557048,-63226,-101595,35288
653225950793994928,-63091,-101412,35527
653225950801432808,-63060,-101396,35414
653225950808870688,-63045,-101326,35478
653225950816308568,-63046,-101375,35512
653225950823746448,-62989,-101552,35524
653225950831184328,-63025,-101385,35517
653225950838622208,-62907,-101317,35627
653225950846091044,-62739,-101573,35604
653225950853527104,-62834,-101408,35641
653225950860963164,-62817,-101286,35583
653225950868399224,-62793,-101220,35694
653225950875835284,-62885,-101232,35630
653225950883271344,-62904,-101210,35759
653225950890707404,-62780,-101171,35771
653225950898143464,-62694,-101161,35820
653225950905579524,-62627,-101292,35757
653225950913015584,-62713,-101168,35882
653225950920451644,-62736,-101201,35829
653225950927887704,-62769,-101248,35827
653225950935323764,-62751,-101116,35911
653225950942759824,-62685,-101224,35916
653225950950195884,-62608,-101026,36048
653225950957631944,-62523,-101042,35962
653225950965068004,-62523,-101083,36082
653225950972504064,-62532,-101054,36078
653225950979909192,-62724,-100743,36311
653225950987347072,-62635,-100893,36224
653225950994784952,-62592,-100979,36164
653225951002222832,-62438,-100980,36282
653225951009660712,-62499,-101026,36282
653225951017098592,-62446,-101030,36352
653225951024536472,-62369,-100920,36346
653225951031974352,-62401,-100953,36372
653225951039412232,-62361,-100944,36420
653225951046850112,-62422,-100952,36400
653225951054287992,-62220,-100865,36465
653225951061725872,-62196,-100899,36515
653225951069163752,-62262,-100836,36497
653225951076601632,-62353,-100836,36527
653225951084039512,-62250,-100817,36471
653225951091477392,-62175,-100939,36430
653225951098915272,-62273,-100893,36480
653225951106353152,-62259,-100897,36420
653225951113791048,-62537,-101006,36500
653225951121228928,-62537,-100975,36375
653225951128666808,-62643,-100918,36339
653225951136104688,-62640,-101090,36133
653225951143542568,-62681,-101043,36146
653225951150980448,-62709,-101149,35948
653225951158418328,-62769,-101174,35947
653225951165856208,-62893,-101057,35888
653225951173294088,-62968,-101203,35821
653225951180731968,-62950,-101373,35825
653225951188169848,-63068,-101254,35742
653225951195607728,-63027,-101222,35655
653225951203045608,-62915,-101307,35638
653225951210483488,-62940,-101232,35587
653225951217921368,-63048,-101379,35456
653225951225359248,-63171,-101343,35431
653225951232797128,-63087,-101300,35423
653225951240235008,-63344,-101305,35327
653225951247676763,-63553,-101509,35197
653225951255114416,-63427,-101357,35279
653225951262552069,-63470,-101348,35210
653225951269989722,-63471,-101407,35202
653225951277427375,-63426,-101447,35123
653225951284865028,-63459,-101475,35122
653225951292302681,-63444,-101441,34972
653225951299740334,-63471,-101368,34993
653225951307177987,-63602,-101483,34872
653225951314615640,-63555,-101466,34950
653225951322053293,-63574,-101478,34954
653225951329490946,-63522,-101491,34962
653225951336928599,-63509,-101401,34913
653225951344366252,-63564,-101531,34833
653225951351803905,-63578,-101526,34867
653225951359241558,-63524,-101383,34904
653225951366679211,-63571,-101511,34866
653225951374116864,-63608,-101603,34798
653225951381608685,-63836,-101566,34565
653225951389043152,-63754,-101530,34660
653225951396477619,-63556,-101542,34748
653225951403912086,-63557,-101533,34733
653225951411346553,-63585,-101469,34795
653225951418781020,-63564,-101507,34746
653225951426215487,-63553,-101508,34788
653225951433649954,-63551,-101443,34837
653225951441084421,-63625,-101499,34791
653225951448518888,-63612,-101533,34726
653225951455953355,-63534,-101512,34719
653225951463387822,-63585,-101449,34746
653225951470822289,-63686,-101579,34749
653225951478256756,-63660,-101499,34818
653225951485691223,-63500,-101578,34833
653225951493125690,-63563,-101495,34700
653225951500560157,-63556,-101663,34759
653225951507994624,-63573,-101544,34825
653225951515313042,-63744,-101432,35030
653225951522754336,-63629,-101420,34886
653225951530195630,-63639,-101425,34868
653225951537636924,-63649,-101497,34800
653225951545078218,-63575,-101492,34864
653225951552519512,-63411,-101372,34940
653225951559960806,-63421,-101398,34819
653225951567402100,-63312,-101398,34958
653225951574843394,-63364,-101406,34901
653225951582284688,-63319,-101435,34950
653225951589725982,-63173,-101505,34930
653225951597167276,-63295,-101411,34972
653225951604608570,-63299,-101516,34996
653225951612049864,-63375,-101366,34993
653225951619491158,-63323,-101369,35053
653225951626932452,-63346,-101313,35035
653225951634373746,-63295,-101331,35197
653225951641815040,-63676,-101355,35135
653225951649376256,-63147,-101215,35234
653225951656810496,-63190,-101279,34975
653225951664244736,-63289,-101226,35129
653225951671678976,-63302,-101307,35128
653225951679113216,-63220,-101290,35157
653225951686547456,-63267,-101283,35180
653225951693981696,-63183,-101245,35263
653225951701415936,-63255,-101260,35326
653225951708850176,-62967,-101177,35319
653225951716284416,-63061,-101185,35417
653225951723718656,-63094,-101122,35408
653225951731152896,-63151,-101194,35394
653225951738587136,-63038,-101134,35467
653225951746021376,-63015,-101110,35519
653225951753455616,-62961,-101251,35492
653225951760889856,-62952,-101113,35492
653225951768324096,-62917,-101201,35595
653225951775758336,-62935,-101196,35484
653225951783099739,-63067,-100950,35562
653225951790539440,-62978,-101128,35635
653225951797979141,-62923,-101069,35709
653225951805418842,-62848,-101112,35680
653225951812858543,-62804,-101067,35770
653225951820298244,-62804,-100951,35814
653225951827737945,-62810,-101006,35766
653225951835177646,-62743,-100945,35836
653225951842617347,-62576,-101102,35831
653225951850057048,-62635,-100921,35990
653225951857496749,-62629,-100972,35998
653225951864936450,-62563,-100888,36142
653225951872376151,-62594,-100823,36215
653225951879815852,-62576,-101085,36322
653225951887255553,-62554,-100900,36257
653225951894695254,-62520,-100770,36326
653225951902134955,-62636,-100788,36169
653225951909574656,-62637,-100801,36206
653225951917049179,-62440,-100856,35986
653225951924486832,-62523,-100906,36076
653225951931924485,-62628,-100956,36036
653225951939362138,-62639,-101000,36105
653225951946799791,-62768,-100983,36050
653225951954237444,-62862,-101064,36008
653225951961675097,-62959,-101112,35948
653225951969112750,-62913,-101109,35942
653225951976550403,-62926,-100989,35911
653225951983988056,-62859,-101010,35891
653225951991425709,-62991,-101032,35691
653225951998863362,-63027,-101042,35699
653225952006301015,-63160,-101259,35648
653225952013738668,-63175,-101197,35581
653225952021176321,-63149,-101277,35541
653225952028613974,-63246,-101211,35504
653225952036051627,-63203,-101386,35464
653225952043489280,-63263,-101332,35414
653225952050981101,-63145,-101042,35580
653225952058415568,-63183,-101173,35416
653225952065850035,-63365,-101235,35368
653225952073284502,-63430,-101246,35153
653225952080718969,-63417,-101332,35106
653225952088153436,-63453,-101369,35144
653225952095587903,-63577,-101426,35121
653225952103022370,-63706,-101391,34981
653225952110456837,-63578,-101510,34950
653225952117891304,-63617,-101417,34915
653225952125325771,-63571,-101502,34913
653225952132760238,-63672,-101459,34905
653225952140194705,-63708,-101473,34822
653225952147629172,-63585,-101397,34827
653225952155063639,-63705,-101448,34812
653225952162498106,-63603,-101494,34856
653225952169932573,-63672,-101324,34875
653225952177367040,-63657,-101446,34744
653225952184716415,-63480,-101563,34748
653225952192155888,-63659,-101513,34729
653225952199595361,-63711,-101503,34844
653225952207034834,-63722,-101533,34818
653225952214474307,-63581,-101447,34764
653225952221913780,-63638,-101369,34769
653225952229353253,-63782,-101544,34821
653225952236792726,-63756,-101459,34722
653225952244232199,-63867,-101491,34633
653225952251671672,-63799,-101442,34711
653225952259111145,-63744,-101428,34674
653225952266550618,-63703,-101577,34746
653225952273990091,-63717,-101466,34795
653225952281429564,-63678,-101534,34775
653225952288869037,-63753,-101533,34602
653225952296308510,-63659,-101426,34788
653225952303747983,-63760,-101526,34650
653225952311187456,-63756,-101446,34641
653225952318654024,-63789,-101352,34773
653225952326091904,-63717,-101419,34818
653225952333529784,-63759,-101333,34764
653225952340967664,-63714,-101354,34822
653225952348405544,-63721,-101552,34927
653225952355843424,-63683,-101476,34739
653225952363281304,-63822,-101482,34778
653225952370719184,-63654,-101572,34866
653225952378157064,-63603,-101535,34748
653225952385594944,-63608,-101439,34809
653225952393032824,-63685,-101305,34838
653225952400470704,-63548,-101357,34932
653225952407908584,-63501,-101289,34961
653225952415346464,-63535,-101314,35030
653225952422784344,-63587,-101210,34928
653225952430222224,-63493,-101376,34933
653225952437660104,-63489,-101206,35073
653225952445097984,-63418,-101295,35043
653225952452535880,-63312,-101289,35024
653225952459973760,-63305,-101259,34972
653225952467411640,-63351,-101215,35163
653225952474849520,-63398,-101237,35075
653225952482287400,-63397,-101200,35150
653225952489725280,-63358,-101152,35212
653225952497163160,-63368,-101159,35222
653225952504601040,-63486,-101090,35276
653225952512038920,-63405,-101058,35255
653225952519476800,-63285,-101060,35368
653225952526914680,-63342,-101056,35435
653225952534352560,-63258,-101092,35340
653225952541790440,-63275,-101144,35398
653225952549228320,-63135,-101146,35500
653225952556666200,-63188,-101144,35467
653225952564104080,-63153,-101023,35524
653225952571541960,-63035,-101002,35561
653225952578979840,-63198,-101034,35512
653225952586421595,-63191,-100854,35702
653225952593859248,-63140,-100903,35741
653225952601296901,-63101,-101052,35726
653225952608734554,-62989,-100984,35894
653225952616172207,-62935,-100993,35793
653225952623609860,-62898,-100975,35740
653225952631047513,-62872,-100918,35812
653225952638485166,-62821,-100860,35917
653225952645922819,-62817,-100901,35952
653225952653360472,-62765,-100813,36092
653225952660798125,-62832,-100765,36039
653225952668235778,-62771,-100898,36133
653225952675673431,-62738,-100725,36088
653225952683111084,-62737,-100774,36131
653225952690548737,-62667,-100735,36193
653225952697986390,-62588,-100740,36289
653225952705424043,-62559,-100662,36232
653225952712861696,-62520,-100627,36304
653225952720322560,-62260,-100696,36479
653225952727758848,-62355,-100707,36475
653225952735195136,-62473,-100660,36468
653225952742631424,-62464,-100703,36533
653225952750067712,-62403,-100666,36492
6.53226E+17,-62442,-100675,36460
653225952764940288,-62385,-100746,36468
653225952772376576,-62392,-100757,36514
653225952779812864,-62546,-100655,36435
653225952787249152,-62481,-100617,36367
653225952794685440,-62632,-100848,36454
653225952802121728,-62561,-100667,36487
653225952809558016,-62566,-100651,36412
653225952816994304,-62652,-100724,36278
653225952824430592,-62785,-100920,36261
