timestamp,ch1,ch2,ch3
653223462182540360,289675,285629,377342
653223462189982336,289696,285674,377292
653223462197424312,289715,285626,377172
653223462204866288,289666,285581,377127
653223462212308264,289603,285614,377130
653223462219750240,289504,285665,377115
653223462227192216,289346,285571,377010
653223462234634192,289343,285320,376886
653223462242076168,289467,285360,376789
653223462249518144,289386,285256,376806
653223462256960120,289285,285201,376512
653223462264402096,289038,285138,376521
653223462271844072,288947,285121,376371
653223462279286048,288926,285122,376266
653223462286728024,288962,284998,376161
6.53223E+17,288960,285007,376018
653223462301611976,288946,284955,376049
653223462309053952,288857,284817,375911
653223462316557824,288723,284418,375784
653223462323996160,288614,284373,375621
653223462331434496,288568,284481,375569
653223462338872832,288447,284452,375491
653223462346311168,288504,284515,375416
653223462353749504,288424,284451,375159
653223462361187840,288193,284303,375214
653223462368626176,288213,284156,375080
653223462376064512,288241,284228,375051
653223462383502848,288199,284199,374996
653223462390941184,288139,284139,375050
653223462398379520,288105,284119,374851
653223462405817856,288039,283985,374724
653223462413256192,287808,284054,374728
653223462420694528,287957,284068,374695
653223462428132864,287915,284052,374692
653223462435571200,287939,284041,374693
653223462443009536,287764,283947,374668
653223462450509769,287824,284198,374327
653223462457944464,287704,283994,374396
653223462465379159,287708,283945,374485
653223462472813854,287681,283869,374612
653223462480248549,287722,283954,374598
653223462487683244,287798,283920,374558
653223462495117939,287750,283839,374550
653223462502552634,287719,283774,374677
653223462509987329,287656,283724,374550
653223462517422024,287616,283708,374515
653223462524856719,287542,283545,374515
653223462532291414,287481,283563,374451
653223462539726109,287445,283727,374541
653223462547160804,287437,283587,374545
653223462554595499,287542,283626,374499
653223462562030194,287176,283578,374535
653223462569464889,287255,283535,374517
653223462576899584,287264,283461,374504
653223462584272384,287140,283232,374267
653223462591710720,287252,283383,374360
653223462599149056,287166,283285,374447
653223462606587392,287147,283361,374498
653223462614025728,287016,283377,374575
653223462621464064,287061,283263,374601
653223462628902400,286920,283243,374625
653223462636340736,286937,283215,374489
653223462643779072,286787,283109,374618
653223462651217408,286834,283104,374660
653223462658655744,286852,282987,374625
653223462666094080,286811,283041,374672
653223462673532416,286774,283033,374686
653223462680970752,286674,283003,374662
653223462688409088,286656,282954,374732
653223462695847424,286562,282885,374620
653223462703285760,286601,282800,374467
653223462710724096,286502,282774,374619
653223462718224329,286313,282868,374670
653223462725659024,286258,282665,374614
653223462733093719,286383,282759,374722
653223462740528414,286429,282686,374673
653223462747963109,286518,282819,374629
653223462755397804,286483,282810,374668
653223462762832499,286335,282770,374685
653223462770267194,286357,282695,374705
653223462777701889,286336,282803,374675
653223462785136584,286370,282698,374609
653223462792571279,286123,282730,374619
653223462800005974,286127,282718,374699
653223462807440669,286125,282718,374839
653223462814875364,286170,282712,374889
653223462822310059,285991,282670,375006
653223462829744754,285967,282653,375021
653223462837179449,286091,282657,375023
653223462844614144,286070,282660,375148
653223462851986944,286001,282894,375233
653223462859425280,285893,282643,375131
653223462866863616,285865,282655,375213
653223462874301952,285926,282580,375162
653223462881740288,285872,282546,375121
653223462889178624,285867,282591,375236
653223462896616960,285582,282566,375205
653223462904055296,285624,282419,375185
653223462911493632,285432,282414,375067
653223462918931968,285499,282254,374873
653223462926370304,285416,282304,374910
653223462933808640,285331,282180,374748
653223462941246976,285267,282120,374704
653223462948685312,285157,282134,374666
653223462956123648,284984,281978,374504
653223462963561984,284837,281932,374343
653223462971000320,284775,281736,374329
653223462978438656,284592,281646,374273
653223462985876992,284620,281449,373989
653223462993315328,284640,281580,374062
653223463000753664,284484,281594,373948
6.53223E+17,284366,281549,373854
653223463015630336,284230,281430,373692
653223463023068672,284049,281249,373707
653223463030507008,284090,281271,373610
653223463037945344,283824,281242,373518
653223463045383680,283836,280982,373201
653223463052822016,283725,281106,373298
653223463060260352,283740,281104,373156
653223463067698688,283655,281013,373078
653223463075137024,283567,280904,373004
653223463082575360,283460,280923,372999
653223463090013696,283412,280700,372693
653223463097452032,283348,280706,372769
653223463104890368,283261,280602,372665
653223463112328704,283258,280610,372570
653223463119767040,282812,280535,372284
653223463127205376,283023,280619,372381
653223463134643712,283058,280469,372454
653223463142082048,283003,280381,372416
653223463149520384,282986,280427,372335
653223463156958720,282953,280469,372360
653223463164397056,282936,280453,372400
653223463171835392,282740,280507,372384
653223463179273728,282789,280294,372243
653223463186712064,282791,280273,372249
653223463194150400,282779,280289,372311
653223463201588736,282612,280295,372328
653223463209027072,282762,280135,372256
653223463216465408,282628,280183,372326
653223463223903744,282490,280095,372299
653223463231342080,282527,280047,372192
653223463238780416,282559,280111,372081
653223463246218752,282539,280109,372042
653223463253718985,282396,279864,372118
653223463261153680,282323,279845,372168
653223463268588375,282287,279900,372184
653223463276023070,282322,279906,372112
653223463283457765,282204,279879,372059
653223463290892460,282106,279914,372190
653223463298327155,282032,279939,372105
653223463305761850,282131,280063,372198
653223463313196545,282296,279980,372325
653223463320631240,282140,279871,372345
653223463328065935,282193,279974,372359
653223463335500630,282220,279966,372315
653223463342935325,282141,279916,372249
653223463350370020,281974,280003,372362
653223463357804715,281877,279922,372436
653223463365239410,281970,279981,372332
653223463372674105,281924,279996,372487
653223463380108800,281998,280002,372303
653223463387481600,282169,279900,372410
653223463394919936,281994,279881,372446
653223463402358272,281877,279921,372564
653223463409796608,281876,279951,372568
653223463417234944,281816,279919,372517
653223463424673280,281843,279932,372577
653223463432111616,281836,279783,372566
653223463439549952,281690,279912,372754
653223463446988288,281811,279874,372724
653223463454426624,281781,280016,372842
653223463461864960,281885,279969,372673
653223463469303296,281926,280056,372795
653223463476741632,281911,280066,372909
653223463484179968,281988,280179,372600
653223463491618304,282018,280137,372842
653223463499056640,281943,280157,372982
653223463506494976,281957,280160,372950
653223463513933312,282027,280100,372946
653223463521371648,282026,279979,373056
653223463528809984,281994,280178,373098
653223463536248320,281949,280071,373217
653223463543686656,282113,280172,373373
653223463551124992,282175,280423,373291
653223463558563328,282201,280408,373444
653223463566001664,282197,280390,373435
6.53223E+17,282039,280331,373452
653223463580878336,282129,280222,373427
653223463588316672,282111,280362,373529
653223463595755008,282230,280349,373402
653223463603193344,282283,280372,373536
653223463610631680,282165,280224,373354
653223463618070016,282074,280225,373298
653223463625508352,282137,280110,373184
653223463632946688,282088,280073,373060
653223463640385024,281981,279834,372983
653223463647823360,281929,279753,372839
653223463655261696,282068,279809,372923
653223463662700032,282028,279859,372833
653223463670138368,282002,279761,372796
653223463677576704,281936,279635,372629
653223463685015040,281924,279511,372522
653223463692453376,281874,279528,372522
653223463699891712,281658,279338,372457
653223463707330048,281626,279437,372516
653223463714768384,281502,279251,372540
653223463722206720,281445,279214,372461
653223463729645056,281439,278971,372551
653223463737083392,281511,278951,372442
653223463744521728,281477,278983,372454
653223463751960064,281438,279017,372337
653223463759398400,281482,278827,372119
653223463766836736,281482,278775,372099
653223463774275072,281370,278810,371991
653223463781713408,281305,278660,371980
653223463789213641,281350,278586,371700
653223463796648336,281186,278381,371823
653223463804083031,281246,278514,372018
653223463811517726,280995,278303,371931
653223463818952421,281065,278323,372055
653223463826387116,281020,278290,372119
653223463833821811,281016,278073,371933
653223463841256506,280939,277942,371998
653223463848691201,280884,277750,371941
653223463856125896,280899,277757,371988
653223463863560591,280890,277671,372249
653223463870995286,280848,277610,372306
653223463878429981,280680,277577,372317
653223463885864676,280707,277389,372338
653223463893299371,280620,277383,372368
653223463900734066,280515,277287,372314
653223463908168761,280478,277129,372445
653223463915603456,280274,276965,372361
653223463922976256,280060,276987,372591
653223463930414592,280116,276919,372442
653223463937852928,279929,276762,372265
653223463945291264,280119,276866,372065
653223463952729600,280104,276714,372053
653223463960167936,280038,276637,372133
653223463967606272,279970,276501,372074
653223463975044608,279815,276332,372143
653223463982482944,279896,276460,372225
653223463989921280,279947,276372,372254
653223463997359616,279822,276368,372122
653223464004797952,279851,276380,372038
653223464012236288,279897,276415,372165
653223464019674624,279767,276461,372117
653223464027112960,279771,276446,372123
653223464034551296,279668,276386,372154
653223464041989632,279621,276313,372142
653223464049427968,279616,276340,372246
653223464056866304,279463,276119,372451
653223464064304640,279589,276200,372206
653223464071742976,279662,276215,372136
653223464079181312,279632,276248,372066
653223464086619648,279604,276247,372066
653223464094057984,279625,276378,372158
653223464101496320,279566,276248,372232
653223464108934656,279645,276336,372354
653223464116372992,279515,276401,372270
653223464123811328,279556,276351,372272
653223464131249664,279511,276307,372308
6.53223E+17,279495,276276,372236
653223464146126336,279383,276302,372308
653223464153564672,279532,276170,372357
653223464161003008,279400,276344,372288
653223464168441344,279429,276267,372262
653223464175879680,279373,276341,372412
653223464183318016,279246,276393,372466
653223464190818249,279557,276135,372479
653223464198252944,279522,276281,372360
653223464205687639,279428,276407,372454
653223464213122334,279451,276385,372432
653223464220557029,279467,276236,372481
653223464227991724,279417,276202,372475
653223464235426419,279359,276303,372519
653223464242861114,279415,276273,372536
653223464250295809,279479,276434,372629
653223464257730504,279352,276423,372628
653223464265165199,279495,276304,372536
653223464272599894,279479,276300,372579
653223464280034589,279507,276209,372419
653223464287469284,279396,276340,372441
653223464294903979,279364,276372,372529
653223464302338674,279328,276072,372379
653223464309773369,279227,276184,372307
653223464317208064,279160,276130,372221
653223464324518984,279266,275960,372202
653223464331960960,279160,275949,371917
653223464339402936,279108,275917,371783
653223464346844912,278856,275844,371595
653223464354286888,278813,275787,371685
653223464361728864,278701,275625,371613
653223464369170840,278650,275571,371458
653223464376612816,278576,275593,371360
653223464384054792,278630,275440,371162
653223464391496768,278525,275484,371104
653223464398938744,278586,275489,371077
653223464406380720,278503,275306,370922
653223464413822696,278477,275440,370763
653223464421264672,278327,275303,370724
653223464428706648,278247,275231,370667
653223464436148624,278196,275206,370670
653223464443590600,278114,275228,370618
653223464451032576,278041,275076,370344
653223464458660242,277786,275125,370145
653223464466091296,277693,274959,370189
653223464473522350,277740,274926,370260
653223464480953404,277801,274966,370276
653223464488384458,277857,274976,370293
653223464495815512,277835,274952,370257
653223464503246566,277729,274938,370242
653223464510677620,277724,274924,370147
653223464518108674,277670,274854,370191
653223464525539728,277594,274784,370096
653223464532970782,277637,274797,370073
653223464540401836,277601,274587,369979
653223464547832890,277526,274750,370070
653223464555263944,277628,274591,370031
653223464562694998,277667,274653,369906
653223464570126052,277607,274700,369851
653223464577557106,277642,274734,369871
653223464584988160,277546,274701,369961
653223464592295424,277809,274423,370006
653223464599733760,277619,274593,369890
653223464607172096,277442,274544,369821
653223464614610432,277404,274635,369850
653223464622048768,277502,274677,369741
653223464629487104,277510,274590,369695
653223464636925440,277501,274633,369823
653223464644363776,277504,274685,369804
653223464651802112,277525,274717,369757
653223464659240448,277510,274625,369778
653223464666678784,277362,274587,369775
653223464674117120,277388,274421,369752
653223464681555456,277371,274575,369883
653223464688993792,277330,274652,369804
653223464696432128,277434,274590,369803
653223464703870464,277395,274663,369855
653223464711308800,277475,274600,369856
653223464718747136,277379,274611,370006
653223464726123592,277498,274523,369861
653223464733565568,277389,274574,370077
653223464741007544,277421,274661,369938
653223464748449520,277506,274802,370106
653223464755891496,277473,274746,370017
653223464763333472,277559,274785,370079
653223464770775448,277743,274871,370154
653223464778217424,277716,274890,370094
653223464785659400,277644,274840,370210
653223464793101376,277658,274861,370310
653223464800543352,277516,274874,370230
653223464807985328,277575,274692,370205
653223464815427304,277693,274709,370344
653223464822869280,277785,274732,370269
653223464830311256,277764,274761,370362
653223464837753232,277843,274733,370335
653223464845195208,277756,274985,370465
653223464852637184,277855,274797,370525
653223464860264850,277846,274872,370546
653223464867695904,277819,274916,370569
653223464875126958,277922,275023,370687
653223464882558012,278047,275000,370770
653223464889989066,277960,274998,370812
653223464897420120,278004,275039,370787
653223464904851174,277890,274956,370834
653223464912282228,278045,275019,370860
653223464919713282,278039,275116,370912
653223464927144336,278164,275104,370853
653223464934575390,278133,275113,370987
653223464942006444,278029,275120,371110
653223464949437498,277979,275123,371249
653223464956868552,278019,275017,371135
653223464964299606,278059,275135,371203
653223464971730660,278130,275102,371273
653223464979161714,278166,275137,371192
653223464986592768,278027,275155,371167
653223464993900032,278434,274872,370979
653223465001338368,278141,274883,371019
653223465008776704,277957,274955,371007
653223465016215040,277879,274879,370947
653223465023653376,277899,274876,370925
653223465031091712,277917,275008,370895
653223465038530048,277796,274952,370773
653223465045968384,277769,274933,370691
653223465053406720,277733,274793,370437
653223465060845056,277630,274878,370467
653223465068283392,277654,274599,370223
653223465075721728,277625,274653,370150
653223465083160064,277513,274531,370076
653223465090598400,277261,274537,370038
653223465098036736,277336,274463,369899
653223465105475072,277200,274474,369783
653223465112913408,277142,274468,369725
653223465120351744,277183,274290,369715
653223465127728200,277256,274147,369326
653223465135170176,277119,274256,369455
653223465142612152,277058,274177,369377
653223465150054128,276948,274273,369271
653223465157496104,276939,274120,369311
653223465164938080,276979,274117,369280
653223465172380056,276920,274094,369269
653223465179822032,276908,274021,369101
653223465187264008,276755,274106,369099
653223465194705984,276755,274075,369130
653223465202147960,276833,274078,369081
653223465209589936,276688,273978,369072
653223465217031912,276827,274038,369055
653223465224473888,276791,274080,368985
653223465231915864,276774,274079,368896
653223465239357840,276662,274040,368984
653223465246799816,276723,274057,368919
653223465254241792,276731,273996,368903
653223465261745664,276805,274123,368893
6.53223E+17,276624,274124,368978
653223465276622336,276619,273984,368935
653223465284060672,276628,274041,368774
653223465291499008,276489,274034,368904
653223465298937344,276516,274067,368832
653223465306375680,276732,273967,368698
653223465313814016,276682,273989,368800
653223465321252352,276740,273891,368803
653223465328690688,276610,274016,368962
653223465336129024,276664,273925,368967
653223465343567360,276590,273953,368869
653223465351005696,276619,273870,368949
653223465358444032,276698,273990,369006
653223465365882368,276638,274134,368993
653223465373320704,276714,274115,369049
653223465380759040,276644,274121,368968
653223465388197376,276750,274000,368971
653223465395635712,276944,274288,369022
653223465403074048,276890,274208,368981
653223465410512384,276914,274216,369158
653223465417950720,276896,274192,369164
653223465425389056,276849,274066,369171
653223465432827392,276863,274147,369255
653223465440265728,276843,274133,369240
653223465447704064,276816,274136,369270
653223465455142400,277158,274089,369257
653223465462580736,276994,274234,369355
653223465470019072,276811,274317,369362
653223465477457408,276883,274217,369496
653223465484895744,276899,274299,369472
653223465492334080,276856,274340,369587
653223465499772416,276917,274339,369609
653223465507210752,277022,274293,369601
653223465514649088,277131,274440,369686
653223465522087424,277137,274438,369712
653223465529587657,277427,274325,369860
653223465537022352,277226,274331,369895
653223465544457047,277275,274431,369851
653223465551891742,277121,274469,369888
653223465559326437,277115,274485,369947
653223465566761132,277302,274634,370018
653223465574195827,277271,274623,370088
653223465581630522,277160,274681,370125
653223465589065217,277296,274562,370131
653223465596499912,277292,274687,370253
653223465603934607,277424,274787,370286
653223465611369302,277357,274818,370286
653223465618803997,277456,274883,370468
653223465626238692,277522,274921,370559
653223465633673387,277636,274856,370557
653223465641108082,277586,274966,370463
653223465648542777,277643,274981,370624
653223465655977472,277783,274942,370604
653223465663350272,277707,275140,370844
653223465670788608,277754,275035,370707
653223465678226944,277731,274948,370802
653223465685665280,277814,275006,370880
653223465693103616,277946,275015,370908
653223465700541952,278065,275075,370918
653223465707980288,278017,275053,370893
653223465715418624,277824,275162,370919
653223465722856960,277902,275179,370909
653223465730295296,277885,275152,370839
653223465737733632,277882,275045,370761
653223465745171968,277761,275175,370802
653223465752610304,277781,275109,370685
653223465760048640,277601,275028,370555
653223465767486976,277764,275098,370553
653223465774925312,277761,275070,370557
653223465782363648,277791,275049,370366
653223465789801984,277667,275061,370316
653223465797240320,277902,274731,370314
653223465804678656,277762,274893,370262
653223465812116992,277514,274832,370130
653223465819555328,277355,274764,370087
653223465826993664,277434,274772,370005
6.53223E+17,277412,274779,370011
653223465841870336,277387,274805,369768
653223465849308672,277343,274754,369812
653223465856747008,277414,274794,369759
653223465864185344,277280,274795,369722
653223465871623680,277189,274689,369732
653223465879062016,277177,274569,369484
653223465886500352,277169,274687,369410
653223465893938688,277200,274645,369544
653223465901377024,277119,274652,369519
653223465908815360,277075,274662,369361
653223465916253696,276994,274642,369371
653223465923692032,276955,274659,369480
653223465931192265,277157,274740,369183
653223465938626960,277002,274633,369317
653223465946061655,277186,274607,369325
653223465953496350,277175,274641,369259
653223465960931045,277090,274691,369379
653223465968365740,277006,274642,369271
653223465975800435,277050,274694,369357
653223465983235130,277009,274612,369313
653223465990669825,276884,274613,369262
653223465998104520,276926,274509,369244
653223466005539215,276902,274560,369296
653223466012973910,276922,274573,369358
653223466020408605,277001,274573,369355
653223466027843300,276933,274695,369464
653223466035277995,277021,274616,369396
653223466042712690,277090,274515,369271
653223466050147385,277133,274612,369351
653223466057582080,277178,274591,369362
653223466064954880,277215,274932,369382
653223466072393216,277163,274783,369449
653223466079831552,277207,274793,369365
653223466087269888,277146,274833,369451
653223466094708224,277155,274877,369565
653223466102146560,277325,274820,369544
653223466109584896,277183,274744,369610
653223466117023232,277235,274721,369518
653223466124461568,277323,274803,369631
653223466131899904,277283,274854,369716
653223466139338240,277347,274767,369603
653223466146776576,277262,274941,369705
653223466154214912,277290,274884,369782
653223466161653248,277346,274967,369959
653223466169091584,277419,274938,369970
653223466176529920,277455,275037,370095
653223466183968256,277534,274920,369899
653223466191406592,277558,274979,369940
653223466198906825,277701,274942,369715
653223466206341520,277641,275017,370061
653223466213776215,277581,275120,370075
653223466221210910,277646,275125,370273
653223466228645605,277667,275209,370328
653223466236080300,277660,275249,370319
653223466243514995,277675,275216,370371
653223466250949690,277710,275290,370446
653223466258384385,277771,275448,370475
653223466265819080,277867,275386,370642
653223466273253775,277845,275422,370665
653223466280688470,277825,275538,370754
653223466288123165,277882,275481,370793
653223466295557860,277992,275499,370761
653223466302992555,277918,275523,370863
653223466310427250,277948,275634,371078
653223466317861945,278047,275461,370878
653223466325296640,278042,275588,371061
653223466332669440,278113,275560,370882
653223466340107776,278161,275641,371041
653223466347546112,278344,275791,371198
653223466354984448,278234,275813,371314
653223466362422784,278333,275758,371386
653223466369861120,278380,275911,371367
653223466377299456,278416,275930,371430
653223466384737792,278481,275956,371590
653223466392176128,278617,276016,371706
653223466399614464,278526,276075,371806
653223466407052800,278664,276051,371786
653223466414491136,278660,276118,371777
653223466421929472,278653,276179,371899
653223466429367808,278716,276173,371841
653223466436806144,278695,276266,372021
653223466444244480,278699,276272,372170
653223466451682816,278726,276316,372213
653223466459121152,278823,276354,372181
653223466466559488,278981,276190,372196
653223466473997824,278788,276132,372135
653223466481436160,278808,276304,372229
653223466488874496,278735,276359,372209
653223466496312832,278816,276384,372182
653223466503751168,278634,276301,372158
653223466511189504,278737,276282,372130
653223466518627840,278785,276323,372049
653223466526066176,278720,276263,371895
653223466533504512,278804,276204,371783
653223466540942848,278624,276199,371760
653223466548381184,278694,276132,371814
653223466555819520,278619,276158,371785
653223466563257856,278634,276216,371780
653223466570696192,278633,276209,371706
653223466578134528,278564,276187,371653
653223466585572864,278613,276137,371543
653223466593011200,278574,276129,371501
653223466600511433,278353,276067,371570
653223466607946128,278228,276170,371562
653223466615380823,278283,276042,371568
653223466622815518,278451,275991,371439
653223466630250213,278514,275958,371348
653223466637684908,278457,276049,371325
653223466645119603,278455,276105,371409
653223466652554298,278426,276144,371370
653223466659988993,278529,276007,371295
653223466667423688,278451,276018,371293
653223466674858383,278319,276010,371266
653223466682293078,278453,276123,371286
653223466689727773,278463,276164,371242
653223466697162468,278431,276039,371249
653223466704597163,278412,276022,371339
653223466712031858,278354,276060,371370
653223466719466553,278319,276099,371365
653223466726901248,278408,276057,371439
653223466734274048,278738,276254,371256
653223466741712384,278669,276246,371283
653223466749150720,278522,276251,371188
653223466756589056,278448,276088,371382
653223466764027392,278478,276100,371494
653223466771465728,278466,276085,371511
653223466778904064,278563,276154,371492
653223466786342400,278572,276258,371584
653223466793780736,278628,276195,371734
653223466801219072,278676,276173,371524
653223466808657408,278603,276305,371612
653223466816095744,278611,276311,371751
653223466823534080,278628,276305,371799
653223466830972416,278684,276296,371903
653223466838410752,278805,276249,371828
653223466845849088,278830,276356,371794
653223466853287424,278881,276349,371759
653223466860725760,278813,276456,371835
653223466868225993,278997,276508,371878
653223466875660688,278873,276525,372037
653223466883095383,278861,276444,372074
653223466890530078,278914,276512,372109
653223466897964773,278906,276543,372223
653223466905399468,278949,276572,372202
653223466912834163,278881,276575,372272
653223466920268858,279008,276502,372215
653223466927703553,279077,276586,372391
653223466935138248,279134,276666,372305
653223466942572943,279160,276554,372398
653223466950007638,279296,276678,372492
653223466957442333,279199,276741,372434
653223466964877028,279185,276754,372472
653223466972311723,279268,276787,372655
653223466979746418,279407,276780,372709
653223466987181113,279436,276943,372809
653223466994615808,279548,276915,372757
653223467001988608,279359,276745,372827
653223467009426944,279272,276902,372907
653223467016865280,279424,277068,373032
653223467024303616,279580,277053,373084
653223467031741952,279567,277112,373100
653223467039180288,279645,277140,373198
653223467046618624,279751,277131,373244
653223467054056960,279720,277195,373302
653223467061495296,279793,277283,373397
653223467068933632,279808,277313,373450
653223467076371968,279836,277330,373450
653223467083810304,279860,277371,373611
653223467091248640,279876,277377,373760
653223467098686976,279846,277234,373781
653223467106125312,279936,277330,373859
653223467113563648,279997,277441,373758
653223467121001984,279999,277462,373873
653223467128440320,280145,277504,374015
653223467135878656,280119,277278,373840
653223467143316992,280084,277501,374006
653223467150755328,280215,277519,374226
653223467158193664,280277,277669,374319
6.53223E+17,280334,277743,374414
653223467173070336,280392,277832,374492
653223467180508672,280406,277792,374425
653223467187947008,280471,277923,374547
653223467195385344,280507,277802,374639
653223467202823680,280530,277846,374757
653223467210262016,280440,277841,374860
653223467217700352,280576,277950,374860
653223467225138688,280509,277973,374784
653223467232577024,280548,277996,374876
653223467240015360,280460,277921,374768
653223467247453696,280730,277936,374796
653223467254892032,280678,278008,374823
653223467262330368,280577,277870,374814
653223467269706824,280853,277678,374878
653223467277148800,280605,277671,374727
653223467284590776,280611,277751,374692
653223467292032752,280606,277756,374634
653223467299474728,280445,277830,374695
653223467306916704,280512,277794,374509
653223467314358680,280520,277893,374405
653223467321800656,280469,277868,374380
653223467329242632,280504,277786,374480
653223467336684608,280410,277843,374541
653223467344126584,280444,277698,374483
653223467351568560,280470,277841,374355
653223467359010536,280465,277773,374424
653223467366452512,280462,277757,374322
653223467373894488,280343,277762,374405
653223467381336464,280409,277774,374433
653223467388778440,280344,277689,374348
653223467396220416,280374,277833,374372
653223467403848082,280465,277628,374536
653223467411279136,280424,277784,374404
653223467418710190,280312,277616,374438
653223467426141244,280155,277694,374349
653223467433572298,280146,277758,374310
653223467441003352,280273,277783,374433
653223467448434406,280289,277828,374477
653223467455865460,280324,277815,374420
653223467463296514,280413,277818,374338
653223467470727568,280422,277825,374471
653223467478158622,280466,277918,374603
653223467485589676,280546,277779,374502
653223467493020730,280563,277817,374647
653223467500451784,280491,277975,374754
653223467507882838,280572,277788,374579
653223467515313892,280612,277917,374762
653223467522744946,280645,277875,374616
6.53223E+17,280648,278027,374823
653223467537483264,280971,278110,374590
653223467544921600,280773,278038,374807
653223467552359936,280730,277967,374817
653223467559798272,280749,278078,374958
653223467567236608,280785,278154,374979
653223467574674944,280709,278077,374978
653223467582113280,280657,278128,375031
653223467589551616,280793,278116,375048
653223467596989952,280776,278127,375150
653223467604428288,280710,277986,375052
653223467611866624,280820,278108,375216
653223467619304960,280874,278130,375157
653223467626743296,280860,278173,375181
653223467634181632,280949,278192,375368
653223467641619968,280923,278199,375253
653223467649058304,280964,278178,375317
653223467656496640,281144,278269,375454
653223467663934976,280972,278268,375537
653223467671435209,280724,278363,375412
653223467678869904,280948,278360,375610
653223467686304599,280998,278395,375641
653223467693739294,281157,278417,375767
653223467701173989,281337,278620,375887
653223467708608684,281458,278581,375883
653223467716043379,281345,278643,375952
653223467723478074,281390,278471,375967
653223467730912769,281365,278653,376105
653223467738347464,281463,278570,375921
653223467745782159,281567,278613,376181
653223467753216854,281515,278582,376189
653223467760651549,281505,278599,376117
653223467768086244,281670,278781,376252
653223467775520939,281553,278912,376468
653223467782955634,281622,278881,376521
653223467790390329,281640,278775,376572
653223467797825024,281849,278785,376579
653223467805197824,281810,278969,376763
653223467812636160,281818,278901,376681
653223467820074496,281851,278904,376693
653223467827512832,281823,278912,376883
653223467834951168,281835,279075,376832
653223467842389504,281873,279166,376968
653223467849827840,281893,279222,377034
653223467857266176,282037,279283,377248
653223467864704512,282157,279294,377245
653223467872142848,282070,279212,377448
653223467879581184,282166,279364,377377
653223467887019520,282311,279254,377525
653223467894457856,282290,279421,377468
653223467901896192,282344,279470,377687
653223467909334528,282323,279496,377707
653223467916772864,282388,279416,377746
653223467924211200,282322,279500,377816
653223467931649536,282455,279474,377966
653223467939025992,282523,279307,378167
653223467946467968,282611,279528,378144
653223467953909944,282568,279629,378177
653223467961351920,282628,279639,378160
653223467968793896,282630,279696,378288
653223467976235872,282587,279862,378392
653223467983677848,282644,279912,378387
653223467991119824,282612,279763,378421
653223467998561800,282857,279742,378393
653223468006003776,282781,279853,378505
653223468013445752,282862,279930,378510
653223468020887728,282801,279871,378465
653223468028329704,282875,279905,378593
653223468035771680,282915,279811,378468
653223468043213656,282924,279860,378427
653223468050655632,282970,279813,378309
653223468058097608,282798,279783,378247
653223468065539584,282766,279800,378396
653223468073043456,283129,279545,378485
653223468080481792,282972,279605,378322
653223468087920128,282717,279546,378296
653223468095358464,282719,279727,378195
653223468102796800,282733,279591,378100
653223468110235136,282617,279481,378041
653223468117673472,282727,279637,377994
653223468125111808,282739,279693,378175
653223468132550144,282684,279641,378174
653223468139988480,282750,279452,378041
653223468147426816,282597,279476,377978
653223468154865152,282610,279556,378047
653223468162303488,282674,279559,378000
653223468169741824,282718,279530,378094
653223468177180160,282686,279548,377996
653223468184618496,282561,279404,377963
653223468192056832,282633,279496,377914
653223468199495168,282584,279485,377799
653223468206995401,282611,279160,377768
653223468214430096,282480,279370,377954
653223468221864791,282597,279541,378015
653223468229299486,282604,279559,377975
653223468236734181,282677,279604,377888
653223468244168876,282637,279464,377809
653223468251603571,282501,279417,377981
653223468259038266,282527,279333,377977
653223468266472961,282586,279375,378014
653223468273907656,282660,279361,377971
653223468281342351,282678,279385,378092
653223468288777046,282679,279400,378046
653223468296211741,282669,279484,378153
653223468303646436,282722,279434,378090
653223468311081131,282675,279628,378177
653223468318515826,282796,279442,378271
653223468325950521,282771,279459,378272
653223468333385216,282793,279605,378361
653223468340758016,283016,279629,378088
653223468348196352,282981,279622,378234
653223468355634688,282877,279604,378356
653223468363073024,282886,279661,378306
653223468370511360,282947,279662,378316
653223468377949696,282969,279686,378316
653223468385388032,282914,279677,378447
653223468392826368,282931,279574,378519
653223468400264704,282968,279577,378645
653223468407703040,282843,279615,378824
653223468415141376,282841,279642,378691
653223468422579712,282839,279645,378736
653223468430018048,282988,279669,378656
653223468437456384,283109,279716,378680
653223468444894720,283051,279735,378811
653223468452333056,283144,279750,378831
653223468459771392,283125,279760,378895
653223468467209728,283175,279838,378834
653223468474648064,283201,279682,378662
653223468482086400,283218,279732,378694
653223468489524736,283246,279770,378789
653223468496963072,283281,279844,378947
653223468504401408,283215,279927,378966
653223468511839744,283215,279995,379020
653223468519278080,283240,279973,379165
653223468526716416,283379,279879,379123
653223468534154752,283409,279964,379052
653223468541593088,283446,280108,379172
653223468549031424,283539,280071,379193
653223468556469760,283578,280145,379192
653223468563908096,283664,280248,379306
653223468571346432,283812,280279,379326
653223468578784768,283715,280336,379350
653223468586223104,283737,280328,379529
653223468593661440,283767,280410,379675
653223468601099776,283907,280447,379514
653223468608538112,284237,280477,379744
653223468615976448,283961,280380,379797
653223468623414784,283923,280425,379797
653223468630853120,283852,280510,379852
653223468638291456,283852,280388,379899
653223468645729792,283921,280457,379937
653223468653168128,283882,280512,379885
653223468660606464,284111,280439,380052
653223468668044800,284054,280548,380182
653223468675483136,284127,280648,380246
653223468682921472,284177,280650,380265
653223468690359808,284293,280732,380466
653223468697798144,284263,280696,380249
653223468705236480,284348,280776,380333
653223468712674816,284357,280841,380474
653223468720113152,284378,280827,380553
653223468727551488,284355,280795,380544
653223468734989824,284350,280773,380567
653223468742428160,284329,280473,380574
653223468749866496,284326,280766,380725
653223468757304832,284437,280901,380859
653223468764743168,284502,280900,381041
653223468772181504,284583,281119,380960
653223468779619840,284596,280996,380873
653223468787058176,284634,280979,381084
653223468794496512,284532,281034,381213
653223468801934848,284782,281045,381151
653223468809373184,284766,281135,381207
653223468816811520,284788,281169,381156
653223468824249856,284777,281250,381264
653223468831688192,284688,281142,381334
653223468839126528,284790,281144,381289
653223468846564864,284731,280966,381165
653223468854003200,284821,281021,381105
653223468861441536,284705,281029,381078
653223468868879872,284642,280999,381147
653223468876380105,284483,281135,381081
653223468883814800,284667,281072,381117
653223468891249495,284666,281113,381108
653223468898684190,284694,281062,381085
653223468906118885,284570,280861,381005
653223468913553580,284612,280824,380946
653223468920988275,284497,280820,380843
653223468928422970,284423,280795,380856
653223468935857665,284479,280742,380721
653223468943292360,284119,280706,380393
653223468950727055,284321,280718,380574
653223468958161750,284446,280773,380593
653223468965596445,284471,280679,380591
653223468973031140,284438,280596,380579
653223468980465835,284381,280620,380580
653223468987900530,284326,280524,380585
653223468995335225,284338,280488,380502
653223469002769920,284280,280395,380391
653223469010142720,284404,280384,380261
653223469017581056,284224,280393,380261
653223469025019392,284132,280286,380291
653223469032457728,284297,280325,380361
653223469039896064,284363,280345,380438
653223469047334400,284244,280339,380285
653223469054772736,284258,280304,380242
653223469062211072,284332,280398,380218
653223469069649408,284278,280355,380262
653223469077087744,284254,280304,380224
653223469084526080,284334,280373,380119
653223469091964416,284168,280348,380174
653223469099402752,284279,280280,380227
653223469106841088,284090,280239,380314
653223469114279424,284217,280203,380265
653223469121717760,284266,280115,380353
653223469129156096,284151,280162,380312
653223469136594432,284147,280344,380332
653223469144032768,283921,280035,380108
653223469151471104,284040,279970,380229
653223469158909440,284167,280116,380272
653223469166347776,284056,280078,380252
653223469173786112,284197,280169,380315
653223469181224448,284268,280204,380285
653223469188662784,284246,280171,380379
653223469196101120,284087,280180,380448
653223469203539456,284270,280184,380366
653223469210977792,284308,280265,380382
653223469218416128,284238,280266,380404
653223469225854464,284248,280359,380493
653223469233292800,284171,280360,380361
653223469240731136,284252,280380,380436
653223469248169472,284321,280321,380483
653223469255607808,284195,280324,380515
653223469263046144,284318,280298,380516
653223469270484480,284321,280319,380489
653223469277922816,284287,280156,380286
653223469285361152,284287,280176,380505
653223469292799488,284286,280192,380645
653223469300237824,284422,280389,380813
653223469307676160,284438,280293,380800
653223469315114496,284335,280270,380742
653223469322552832,284366,280308,380693
653223469329991168,284525,280434,380841
653223469337429504,284486,280502,380866
653223469344867840,284590,280391,380810
653223469352306176,284628,280443,380941
653223469359744512,284490,280450,381027
653223469367182848,284472,280397,380924
653223469374621184,284538,280491,381120
653223469382059520,284514,280444,381104
653223469389497856,284609,280391,381120
653223469396936192,284807,280508,381166
653223469404374528,284779,280580,381149
653223469411874761,284684,280430,381428
653223469419309456,284671,280602,381298
653223469426744151,284673,280572,381239
653223469434178846,284827,280699,381410
653223469441613541,284854,280740,381422
653223469449048236,284940,280750,381531
653223469456482931,284915,280879,381534
653223469463917626,284851,280794,381492
653223469471352321,284922,280731,381615
653223469478787016,284984,280735,381681
653223469486221711,285019,280815,381692
653223469493656406,284954,280770,381765
653223469501091101,285003,280938,381856
653223469508525796,285060,280789,381830
653223469515960491,285083,280834,381851
653223469523395186,285091,280874,381830
653223469530829881,285184,280791,381775
653223469538264576,285218,280845,381966
653223469545575496,285453,280896,381829
653223469553017472,285234,280894,381985
653223469560459448,285170,280974,382102
653223469567901424,285226,280989,382205
653223469575343400,285364,281165,382314
653223469582785376,285434,281149,382405
653223469590227352,285493,281100,382365
653223469597669328,285323,281207,382407
653223469605111304,285509,281186,382313
653223469612553280,285554,281264,382329
653223469619995256,285569,281300,382448
653223469627437232,285665,281259,382546
653223469634879208,285524,281299,382561
653223469642321184,285648,281383,382629
653223469649763160,285647,281226,382589
653223469657205136,285562,281261,382647
653223469664647112,285500,281284,382627
653223469672089088,285540,281283,382587
653223469679716754,285639,280942,382529
653223469687147808,285613,281149,382461
653223469694578862,285600,281210,382509
653223469702009916,285491,281122,382450
653223469709440970,285514,281076,382338
653223469716872024,285479,281068,382226
653223469724303078,285508,281112,382201
653223469731734132,285319,281036,382190
653223469739165186,285354,280877,382110
653223469746596240,285330,280922,382015
653223469754027294,285305,280987,381873
653223469761458348,285210,280978,381879
653223469768889402,285189,280723,381719
653223469776320456,285083,280842,381794
653223469783751510,285030,280732,381761
653223469791182564,285059,280664,381534
653223469798613618,285187,280641,381435
653223469806044672,284996,280561,381313
653223469813290056,285157,280709,381043
653223469820732032,284967,280507,381188
653223469828174008,284828,280447,381290
653223469835615984,284786,280480,381275
653223469843057960,284704,280468,381131
653223469850499936,284605,280402,381183
653223469857941912,284667,280219,380950
653223469865383888,284522,280249,380972
653223469872825864,284597,280152,380749
653223469880267840,284532,280150,380787
653223469887709816,284579,280142,380707
653223469895151792,284509,280005,380817
653223469902593768,284388,279969,380699
653223469910035744,284476,279945,380744
653223469917477720,284417,279882,380606
653223469924919696,284486,279931,380562
653223469932361672,284479,280016,380634
653223469939803648,284421,280029,380708
653223469947307520,284495,280430,380768
653223469954745856,284434,280193,380607
653223469962184192,284462,279992,380491
653223469969622528,284370,279905,380459
653223469977060864,284235,279723,380468
653223469984499200,284255,279770,380489
653223469991937536,284331,279695,380357
653223469999375872,284410,279795,380523
653223470006814208,284232,279753,380508
653223470014252544,284304,279741,380503
653223470021690880,284179,279801,380536
653223470029129216,284332,279648,380442
653223470036567552,284302,279785,380384
653223470044005888,284214,279748,380467
653223470051444224,284264,279840,380536
653223470058882560,284283,279799,380531
653223470066320896,284383,279728,380462
653223470073759232,284411,279711,380401
653223470081197568,284540,279877,380403
653223470088635904,284439,279805,380438
653223470096074240,284344,279840,380550
653223470103512576,284426,279767,380569
653223470110950912,284263,279741,380577
653223470118389248,284241,279855,380633
653223470125827584,284278,279763,380716
653223470133265920,284232,279881,380776
653223470140704256,284346,279845,380777
653223470148142592,284374,279862,380741
653223470155580928,284130,279736,380709
653223470163019264,284213,279751,380709
653223470170457600,284176,279733,380715
653223470177895936,284229,279768,380787
653223470185334272,284344,279747,380738
653223470192772608,284301,279771,380876
653223470200210944,284325,279785,380823
653223470207649280,284258,279869,380879
653223470215087616,284425,280037,380792
653223470222525952,284410,279836,380835
653223470229964288,284310,279942,380975
653223470237402624,284232,279866,381024
653223470244840960,284391,279801,380950
653223470252279296,284460,279853,380983
653223470259717632,284526,279936,381103
653223470267155968,284462,279974,381147
653223470274594304,284511,280108,381241
653223470282032640,284493,280055,381306
653223470289470976,284446,280040,381290
653223470296909312,284502,279941,381255
653223470304347648,284605,280039,381309
653223470311785984,284553,279991,381334
653223470319224320,284510,280081,381454
653223470326662656,284454,280084,381430
653223470334100992,284560,280054,381428
653223470341539328,284636,280091,381449
653223470349039561,284615,280085,381408
653223470356474256,284725,280120,381543
653223470363908951,284699,280240,381616
653223470371343646,284623,280275,381572
653223470378778341,284705,280289,381726
653223470386213036,284759,280330,381683
653223470393647731,284852,280307,381633
653223470401082426,284926,280280,381812
653223470408517121,284856,280263,381752
653223470415951816,284922,280320,381859
653223470423386511,284969,280381,381821
653223470430821206,285004,280338,381935
653223470438255901,285080,280356,382041
653223470445690596,285009,280240,381873
653223470453125291,285136,280504,382078
653223470460559986,285032,280354,382061
653223470467994681,285146,280383,382166
653223470475429376,285209,280509,382074
653223470482802176,285395,280350,381861
653223470490240512,285142,280494,382212
653223470497678848,285270,280615,382307
653223470505117184,285303,280723,382426
653223470512555520,285174,280674,382409
653223470519993856,285237,280722,382525
653223470527432192,285180,280678,382342
653223470534870528,285229,280689,382401
653223470542308864,285161,280553,382446
653223470549747200,285081,280482,382366
653223470557185536,285174,280551,382307
653223470564623872,285066,280401,382075
653223470572062208,285032,280411,382190
653223470579500544,284986,280307,382024
653223470586938880,284941,280311,381915
653223470594377216,284915,280219,381774
653223470601815552,284954,280009,381666
653223470609253888,284860,280048,381664
653223470616754121,284667,279952,381674
653223470624188816,284527,279971,381508
653223470631623511,284471,279708,381347
653223470639058206,284421,279793,381285
653223470646492901,284443,279814,381178
653223470653927596,284434,279667,381014
653223470661362291,284387,279655,380954
653223470668796986,284315,279641,380935
653223470676231681,284213,279606,380874
653223470683666376,284228,279411,380732
653223470691101071,284131,279456,380641
653223470698535766,283933,279410,380651
653223470705970461,283964,279321,380321
653223470713405156,283941,279291,380129
653223470720839851,283863,279235,380232
653223470728274546,283703,279169,380190
653223470735709241,283793,279017,380018
653223470743143936,283761,279018,379931
653223470750454856,283796,278844,380059
653223470757896832,283685,278955,379975
653223470765338808,283501,278995,379815
653223470772780784,283464,278913,379774
653223470780222760,283530,278696,379805
653223470787664736,283463,278742,379864
653223470795106712,283496,278856,379809
653223470802548688,283545,278845,379731
653223470809990664,283388,278847,379654
653223470817432640,283358,278825,379699
653223470824874616,283377,278688,379513
653223470832316592,283377,278782,379538
653223470839758568,283332,278728,379627
653223470847200544,283425,278752,379560
653223470854642520,283303,278733,379549
653223470862084496,283160,278685,379597
653223470869526472,283159,278691,379536
653223470876968448,283111,278685,379526
653223470884534217,283298,278701,379477
653223470891968912,283301,278686,379256
653223470899403607,283181,278533,379208
653223470906838302,283161,278560,379373
653223470914272997,283153,278575,379382
653223470921707692,283264,278581,379321
653223470929142387,283131,278521,379292
653223470936577082,283007,278454,379321
653223470944011777,282989,278420,379224
653223470951446472,283019,278452,379323
653223470958881167,282966,278417,379245
653223470966315862,283120,278350,379210
653223470973750557,283165,278505,379215
653223470981185252,283091,278498,379228
653223470988619947,283097,278386,379265
653223470996054642,283114,278426,379308
653223471003489337,283086,278342,379220
653223471010924032,283045,278429,379226
653223471018296832,283173,278219,379096
653223471025735168,283197,278361,379361
653223471033173504,283190,278487,379388
653223471040611840,283180,278562,379381
653223471048050176,283128,278549,379360
653223471055488512,283125,278560,379398
653223471062926848,283118,278541,379423
653223471070365184,283057,278584,379418
653223471077803520,283234,278454,379388
653223471085241856,283120,278545,379504
653223471092680192,283196,278465,379471
653223471100118528,283301,278540,379564
653223471107556864,283281,278515,379592
653223471114995200,283325,278558,379529
653223471122433536,283401,278516,379579
653223471129871872,283431,278601,379695
653223471137310208,283322,278490,379624
653223471144748544,283182,278524,379628
653223471152186880,283199,278415,379705
653223471159625216,283283,278402,379721
653223471167063552,283308,278539,379557
653223471174501888,283315,278520,379700
653223471181940224,283482,278676,379811
653223471189378560,283332,278685,379749
653223471196816896,283405,278608,379745
653223471204255232,283371,278638,379804
653223471211693568,283502,278771,379896
653223471219131904,283417,278814,379948
653223471226570240,283397,278810,379985
653223471234008576,283349,278804,379961
653223471241446912,283490,278730,379909
653223471248885248,283490,278840,380026
653223471256323584,283357,278849,380031
653223471263761920,283393,278755,380009
653223471271200256,283534,278798,380072
653223471278638592,283545,278904,380257
653223471286076928,283514,278782,380096
653223471293515264,283605,278797,380224
653223471300953600,283489,278852,380211
653223471308391936,283528,278845,380181
653223471315830272,283687,278929,380228
653223471323268608,283541,278859,380375
653223471330706944,283612,278859,380375
653223471338145280,283625,278984,380381
653223471345583616,283582,278959,380307
653223471353021952,283617,278873,380324
653223471360460288,283448,278909,380273
653223471367898624,283544,278790,380125
653223471375336960,283488,278822,380101
653223471382775296,283436,278726,380008
653223471390213632,283410,278754,379864
653223471397651968,283345,278584,379752
653223471405090304,283200,278482,379604
653223471412528640,283186,278422,379550
653223471419966976,283383,278244,379506
653223471427405312,283208,278325,379310
653223471434843648,283070,278315,379129
653223471442281984,282817,278102,379066
653223471449720320,282654,277993,378969
653223471457158656,282736,277990,378838
653223471464596992,282748,278022,378784
653223471472035328,282630,277918,378663
653223471479473664,282532,277804,378529
6.53223E+17,282578,277880,378506
653223471494350336,282379,277727,378263
653223471501788672,282261,277575,378171
653223471509227008,282150,277613,378176
653223471516665344,282249,277609,377953
653223471524103680,282216,277542,377887
653223471531542016,282126,277536,377873
653223471538980352,281978,277424,377806
653223471546418688,282058,277255,377736
653223471553857024,282208,277562,377784
653223471561295360,282184,277393,377552
653223471568733696,282030,277228,377396
653223471576172032,281849,277234,377445
653223471583610368,281812,277126,377445
653223471591048704,281858,277023,377477
653223471598487040,281776,277054,377351
653223471605925376,281810,277109,377341
653223471613363712,281754,277155,377293
653223471620802048,281645,277137,377318
653223471628240384,281631,277225,377269
653223471635678720,281586,277188,377236
653223471643117056,281552,277184,377159
653223471650555392,281583,277091,377180
653223471657993728,281586,276954,377049
653223471665432064,281587,276963,377089
653223471672870400,281573,276968,377108
653223471680308736,281603,276902,377017
653223471687808969,281593,277238,376698
653223471695243664,281507,276968,376789
653223471702678359,281420,276900,376887
653223471710113054,281381,276980,376938
653223471717547749,281371,276988,377058
653223471724982444,281340,276963,376971
653223471732417139,281405,276989,376970
653223471739851834,281243,276917,376910
653223471747286529,281365,276776,376757
653223471754721224,281367,276764,376784
653223471762155919,281267,276816,376852
653223471769590614,281293,276716,376717
653223471777025309,281435,276833,376874
653223471784460004,281377,276812,376732
653223471791894699,281439,276736,376833
653223471799329394,281435,276740,376835
653223471806764089,281317,276766,376659
653223471814198784,281354,276775,376748
653223471821571584,281254,276753,376459
653223471829009920,281380,276870,376740
653223471836448256,281323,276922,376823
653223471843886592,281265,276847,376834
653223471851324928,281304,276854,376839
653223471858763264,281391,276913,376899
653223471866201600,281354,276651,376856
653223471873639936,281344,276763,376922
653223471881078272,281261,276771,376869
653223471888516608,281371,276979,377021
653223471895954944,281221,276907,376968
653223471903393280,281282,276841,376931
653223471910831616,281341,276918,376910
653223471918269952,281416,276959,376950
653223471925708288,281329,276840,377025
653223471933146624,281541,276922,376951
653223471940584960,281533,277005,377051
653223471948023296,281349,276971,377166
653223471955461632,281715,276975,377292
653223471962899968,281568,276877,377283
653223471970338304,281484,276920,377251
653223471977776640,281465,277021,377278
653223471985214976,281446,277057,377324
653223471992653312,281630,276967,377275
653223472000091648,281524,277037,377401
653223472007529984,281644,276936,377330
653223472014968320,281692,277170,377312
653223472022406656,281661,277149,377403
653223472029844992,281767,277207,377452
653223472037283328,281822,277240,377469
653223472044721664,281814,277226,377518
6.53223E+17,281751,277286,377635
653223472059598336,281877,277413,377658
653223472067036672,281947,277370,377579
653223472074475008,281845,277453,377635
653223472081913344,281970,277261,377613
653223472089413577,281714,277192,377896
653223472096848272,281794,277304,377744
653223472104282967,281867,277337,377808
653223472111717662,281978,277411,377909
653223472119152357,281923,277361,377780
653223472126587052,281891,277312,377666
653223472134021747,281770,277277,377493
653223472141456442,281772,277358,377590
653223472148891137,281696,277268,377569
653223472156325832,281697,277150,377493
653223472163760527,281621,277051,377430
653223472171195222,281448,277017,377373
653223472178629917,281606,277041,377203
653223472186064612,281454,277048,377059
653223472193499307,281302,276874,376934
653223472200934002,281371,276773,376788
653223472208368697,281228,276743,376688
653223472215803392,281230,276576,376454
653223472223114312,281128,276346,376232
653223472230556288,281099,276376,376225
653223472237998264,280897,276284,376030
653223472245440240,280899,276266,376041
653223472252882216,280814,276201,375797
653223472260324192,280770,276261,375743
653223472267766168,280564,276153,375574
653223472275208144,280478,276095,375513
653223472282650120,280407,276080,375437
653223472290092096,280407,275942,375285
653223472297534072,280173,275888,375196
653223472304976048,280286,275846,374948
653223472312418024,280123,275607,374753
6.53223E+17,280130,275693,374716
653223472327301976,280090,275622,374756
653223472334743952,279944,275625,374735
653223472342185928,279921,275649,374611
653223472349627904,279971,275623,374421
653223472357193673,279626,275247,374601
653223472364628368,279710,275342,374511
653223472372063063,279688,275443,374414
653223472379497758,279732,275462,374232
653223472386932453,279728,275304,374106
653223472394367148,279677,275220,374013
653223472401801843,279737,275413,373990
653223472409236538,279521,275263,374084
653223472416671233,279650,275249,373965
653223472424105928,279502,275279,373962
653223472431540623,279492,275290,373897
653223472438975318,279382,275222,373937
653223472446410013,279561,275119,373715
653223472453844708,279538,275173,373720
653223472461279403,279555,275222,373845
653223472468714098,279505,274989,373566
653223472476148793,279403,275073,373556
653223472483583488,279441,275081,373547
653223472490894408,279324,275362,373298
653223472498336384,279340,275064,373526
653223472505778360,279374,274990,373562
653223472513220336,279307,275022,373509
653223472520662312,279257,275039,373592
653223472528104288,279381,275119,373502
653223472535546264,279191,275034,373455
653223472542988240,279211,275039,373467
653223472550430216,279238,275036,373472
653223472557872192,279294,275053,373474
653223472565314168,279197,274934,373414
653223472572756144,279313,275024,373304
653223472580198120,279206,275059,373483
653223472587640096,279241,274876,373383
653223472595082072,279225,275072,373479
653223472602524048,279174,275041,373499
653223472609966024,279122,274992,373448
6.53223E+17,279147,274957,373427
653223472624973769,279316,274864,373847
653223472632408464,279432,274828,373660
653223472639843159,279318,275003,373644
653223472647277854,279398,275006,373607
653223472654712549,279412,275039,373453
653223472662147244,279341,274947,373491
653223472669581939,279432,275014,373516
653223472677016634,279200,275070,373546
653223472684451329,279351,275081,373419
653223472691886024,279353,275119,373536
653223472699320719,279462,275152,373682
653223472706755414,279365,275128,373542
653223472714190109,279459,275101,373686
653223472721624804,279404,275133,373747
653223472729059499,279436,275086,373615
653223472736494194,279468,275170,373709
653223472743928889,279554,275237,373799
653223472751363584,279618,275133,373799
653223472758798281,279049,275262,373919
653223472766232976,279285,275309,373865
653223472773667671,279522,275262,373984
653223472781102366,279654,275402,374011
653223472788537061,279630,275396,374059
653223472795971756,279689,275420,374033
653223472803406451,279627,275480,374130
653223472810841146,279618,275386,374149
653223472818275841,279614,275311,374021
653223472825710536,279711,275384,374091
653223472833145231,279660,275515,374218
653223472840579926,279852,275468,374221
653223472848014621,279754,275502,374215
653223472855449316,279829,275614,374337
653223472862884011,279828,275675,374344
653223472870318706,279898,275720,374422
653223472877753401,279856,275579,374298
653223472885188096,279902,275605,374389
653223472892499016,280055,275390,374276
653223472899940992,279833,275491,374386
653223472907382968,279847,275460,374436
653223472914824944,279822,275504,374433
653223472922266920,279758,275497,374382
653223472929708896,279784,275481,374256
653223472937150872,279762,275417,374131
653223472944592848,279680,275418,374062
653223472952034824,279504,275391,373980
653223472959476800,279393,275254,373801
653223472966918776,279349,275119,373577
653223472974360752,279331,275017,373538
653223472981802728,279396,275015,373511
653223472989244704,279364,275027,373328
653223472996686680,279173,274996,373180
653223473004128656,279070,274819,372954
653223473011570632,279002,274803,372843
653223473019012608,278929,274701,372795
653223473026578377,278694,274472,372404
653223473034013072,278604,274387,372289
653223473041447767,278536,274388,372389
653223473048882462,278491,274461,372293
653223473056317157,278514,274358,372174
653223473063751852,278456,274318,372045
653223473071186547,278266,274358,371838
653223473078621242,278389,274340,371763
653223473086055937,278318,274216,371667
653223473093490632,278278,274158,371691
653223473100925327,278190,274117,371496
653223473108360022,278096,274026,371479
653223473115794717,278013,273899,371258
653223473123229412,278040,273890,371134
653223473130664107,278011,273927,371133
653223473138098802,277965,273880,371073
653223473145533497,277734,273844,370933
653223473152968192,277659,273808,370832
653223473160340992,277501,273771,370665
653223473167779328,277572,273706,370602
653223473175217664,277659,273678,370761
6.53223E+17,277825,273729,370814
653223473190094336,277821,273717,370814
653223473197532672,277745,273745,370793
653223473204971008,277755,273725,370686
653223473212409344,277608,273727,370752
653223473219847680,277662,273737,370667
653223473227286016,277578,273607,370650
653223473234724352,277686,273761,370728
653223473242162688,277636,273672,370584
653223473249601024,277676,273585,370387
653223473257039360,277601,273609,370431
653223473264477696,277593,273585,370539
653223473271916032,277531,273589,370463
653223473279354368,277400,273605,370427
653223473286792704,277444,273537,370437
653223473294231040,277316,273222,370711
653223473301669376,277488,273333,370549
653223473309107712,277483,273415,370469
653223473316546048,277523,273520,370522
653223473323984384,277551,273566,370463
653223473331422720,277508,273611,370461
653223473338861056,277445,273523,370413
653223473346299392,277410,273491,370435
653223473353737728,277409,273494,370407
653223473361176064,277555,273569,370482
653223473368614400,277564,273585,370564
653223473376052736,277522,273525,370456
653223473383491072,277408,273491,370453
653223473390929408,277477,273414,370339
653223473398367744,277566,273472,370492
653223473405806080,277519,273548,370557
653223473413244416,277448,273610,370557
653223473420682752,277538,273528,370529
653223473428121088,277726,273380,370409
653223473435559424,277552,273558,370557
653223473442997760,277539,273586,370672
653223473450436096,277580,273740,370677
653223473457874432,277566,273672,370629
653223473465312768,277660,273724,370728
653223473472751104,277643,273701,370742
653223473480189440,277690,273592,370723
653223473487627776,277671,273701,370803
653223473495066112,277655,273665,370755
653223473502504448,277772,273722,370845
653223473509942784,277654,273702,370857
653223473517381120,277685,273819,371016
653223473524819456,277760,273744,370996
653223473532257792,277848,273779,370936
653223473539696128,277931,273813,370944
653223473547134464,277934,273881,371106
653223473554572800,277794,273926,371146
653223473561949256,278216,273677,371289
653223473569391232,278011,273815,371182
653223473576833208,278036,273880,371195
653223473584275184,277907,273921,371271
653223473591717160,277968,273955,371216
653223473599159136,277937,274027,371207
653223473606601112,278120,274105,371259
653223473614043088,278088,274089,371218
653223473621485064,278025,274140,371304
653223473628927040,278207,274126,371412
653223473636369016,278170,274222,371549
653223473643810992,278284,274305,371646
653223473651252968,278334,274332,371608
653223473658694944,278273,274389,371718
653223473666136920,278342,274303,371738
653223473673578896,278228,274338,371728
653223473681020872,278105,274318,371758
653223473688462848,278227,274293,371743
653223473696090514,278163,274463,371404
653223473703521568,278231,274286,371365
653223473710952622,278262,274185,371446
653223473718383676,278120,274037,371346
653223473725814730,278014,274103,371380
653223473733245784,278022,274013,371325
653223473740676838,277926,273973,371118
653223473748107892,277900,273955,371066
653223473755538946,277845,273914,370985
6.53223E+17,277789,273829,370928
653223473770401054,277685,273798,370632
653223473777832108,277561,273736,370607
653223473785263162,277513,273637,370467
653223473792694216,277467,273555,370371
653223473800125270,277278,273445,370271
653223473807556324,277316,273445,370103
653223473814987378,277172,273456,370080
653223473822418432,277098,273404,369996
653223473829725696,277080,273457,369710
653223473837164032,277109,273309,369652
653223473844602368,277034,273137,369541
653223473852040704,276909,272973,369425
653223473859479040,276884,272988,369536
653223473866917376,276715,272887,369380
653223473874355712,276791,272939,369320
653223473881794048,276688,272944,369325
653223473889232384,276703,272948,369152
653223473896670720,276693,272821,369071
653223473904109056,276629,272870,369092
653223473911547392,276595,272805,368944
653223473918985728,276535,272767,368987
653223473926424064,276598,272669,368955
653223473933862400,276550,272712,368954
653223473941300736,276475,272751,369056
653223473948739072,276495,272695,368912
653223473956177408,276395,272576,368863
653223473963553864,276458,272408,368723
653223473970995840,276555,272596,368764
653223473978437816,276491,272723,368783
653223473985879792,276481,272707,368666
653223473993321768,276501,272620,368691
653223474000763744,276536,272731,368646
653223474008205720,276463,272723,368710
653223474015647696,276451,272790,368694
653223474023089672,276371,272719,368686
653223474030531648,276364,272754,368671
653223474037973624,276328,272768,368713
653223474045415600,276438,272746,368618
653223474052857576,276455,272835,368717
653223474060299552,276416,272803,368687
653223474067741528,276454,272693,368650
653223474075183504,276288,272631,368665
653223474082625480,276393,272677,368655
653223474090067456,276554,272762,368562
653223474097695122,276545,272432,368611
653223474105126176,276441,272618,368638
653223474112557230,276427,272735,368738
653223474119988284,276350,272736,368740
653223474127419338,276448,272776,368756
653223474134850392,276527,272706,368748
653223474142281446,276470,272797,368606
653223474149712500,276417,272792,368748
653223474157143554,276551,272827,368792
653223474164574608,276404,272870,368916
653223474172005662,276596,272903,368866
653223474179436716,276611,272858,368832
653223474186867770,276470,272854,368926
653223474194298824,276531,272925,368922
653223474201729878,276644,272903,368917
653223474209160932,276505,272988,369119
653223474216591986,276562,273068,369174
653223474224023040,276722,272926,369056
653223474231330304,276448,272886,368783
653223474238768640,276440,272857,369063
653223474246206976,276467,272835,369208
653223474253645312,276539,272851,369213
653223474261083648,276552,273058,369284
653223474268521984,276674,272990,369429
653223474275960320,276732,272995,369485
653223474283398656,276811,273028,369456
653223474290836992,276826,273111,369486
653223474298275328,276831,273177,369600
653223474305713664,276866,273126,369426
6.53223E+17,277021,273258,369616
653223474320590336,277015,273250,369600
653223474328028672,277097,273258,369661
653223474335467008,277105,273276,369816
653223474342905344,277048,273304,369895
653223474350343680,276989,273463,369863
653223474357782016,276987,273433,370003
653223474365158472,276938,273127,370048
653223474372600448,277049,273308,370093
653223474380042424,277236,273401,370125
653223474387484400,277246,273463,370052
653223474394926376,277256,273536,370177
653223474402368352,277282,273597,370246
653223474409810328,277428,273533,370222
653223474417252304,277409,273683,370453
653223474424694280,277514,273622,370303
653223474432136256,277547,273726,370385
653223474439578232,277532,273753,370597
653223474447020208,277446,273578,370595
653223474454462184,277372,273829,370547
653223474461904160,277470,273810,370593
653223474469346136,277531,273694,370688
653223474476788112,277516,273666,370577
653223474484230088,277539,273746,370691
653223474491672064,277533,273781,370623
653223474499237833,277325,273900,370551
653223474506672528,277370,273720,370390
653223474514107223,277336,273568,370368
653223474521541918,277262,273445,370274
653223474528976613,277294,273413,370091
653223474536411308,277311,273430,370026
653223474543846003,277112,273473,369911
653223474551280698,277078,273292,369651
653223474558715393,277031,273394,369748
653223474566150088,276879,273288,369732
653223474573584783,276790,273262,369625
653223474581019478,276879,273136,369571
653223474588454173,276749,273036,369499
653223474595888868,276753,273020,369423
653223474603323563,276791,273072,369203
653223474610758258,276723,273062,369131
653223474618192953,276678,272941,369081
653223474625627648,276698,272959,369065
653223474633000448,276405,272878,369148
653223474640438784,276483,272765,368935
653223474647877120,276510,272817,368801
653223474655315456,276438,272890,368865
653223474662753792,276354,272917,368675
653223474670192128,276370,272886,368734
653223474677630464,276374,272863,368744
653223474685068800,276355,272892,368674
653223474692507136,276331,272740,368562
653223474699945472,276271,272712,368440
653223474707383808,276243,272770,368538
653223474714822144,276282,272745,368491
653223474722260480,276165,272693,368488
653223474729698816,276271,272681,368567
653223474737137152,276096,272629,368585
653223474744575488,276247,272682,368595
653223474752013824,276213,272697,368511
653223474759452160,276264,272770,368524
653223474766890496,276365,272778,368545
653223474774328832,276355,272762,368425
653223474781767168,276260,272719,368341
653223474789205504,276284,272668,368443
653223474796643840,276375,272764,368485
653223474804082176,276228,272774,368471
653223474811520512,276209,272709,368541
653223474818958848,276322,272782,368574
653223474826397184,276279,272781,368578
653223474833835520,276294,272671,368561
653223474841273856,276145,272597,368553
653223474848712192,276118,272556,368494
653223474856150528,276185,272573,368551
653223474863588864,276230,272721,368589
653223474871027200,276253,272830,368609
653223474878465536,276287,272779,368575
653223474885903872,276283,272823,368730
653223474893342208,276349,272753,368674
653223474900780544,276194,272540,368655
653223474908218880,276312,272571,368560
653223474915657216,276359,272754,368805
653223474923095552,276472,272820,368765
653223474930533888,276419,272772,368708
653223474937972224,276475,272826,368803
653223474945410560,276575,272827,368728
653223474952848896,276541,272848,368779
653223474960287232,276451,272945,368886
653223474967725568,276454,272903,368960
653223474975163904,276368,272910,368900
653223474982602240,276439,272982,368977
653223474990040576,276477,272868,369065
653223474997478912,276485,272901,369010
653223475004917248,276629,273017,369171
653223475012355584,276648,273031,369223
653223475019793920,276715,273131,369257
653223475027232256,276585,273063,369261
653223475034732489,276635,273196,369179
653223475042167184,276699,273215,369209
653223475049601879,276843,273146,369408
653223475057036574,276844,273180,369515
653223475064471269,276712,273265,369499
653223475071905964,276687,273170,369532
653223475079340659,276778,273228,369601
653223475086775354,276797,273257,369702
653223475094210049,276958,273307,369753
653223475101644744,277003,273446,369763
653223475109079439,277011,273460,370004
653223475116514134,277061,273414,369957
653223475123948829,277088,273432,370025
653223475131383524,277067,273504,369958
653223475138818219,277087,273554,370091
653223475146252914,277149,273491,370149
653223475153687609,277136,273520,370128
653223475161122304,277275,273620,370242
653223475168495104,277202,273877,370037
653223475175933440,277253,273663,370156
653223475183371776,277440,273711,370439
653223475190810112,277510,273790,370478
653223475198248448,277485,273706,370517
653223475205686784,277508,273787,370673
653223475213125120,277329,273874,370654
653223475220563456,277453,273922,370606
653223475228001792,277490,274008,370790
653223475235440128,277514,274042,371019
653223475242878464,277576,273887,370980
653223475250316800,277548,273932,371069
653223475257755136,277720,273998,371101
653223475265193472,277702,274127,371136
653223475272631808,277783,274100,370979
653223475280070144,277737,274106,371079
653223475287508480,277699,273859,371068
653223475294946816,277740,273924,370934
653223475302447049,277471,274186,370718
653223475309881744,277590,274080,370756
653223475317316439,277424,273832,370553
653223475324751134,277376,273661,370493
653223475332185829,277379,273752,370356
653223475339620524,277311,273677,370421
653223475347055219,277228,273645,370397
653223475354489914,277373,273568,370297
653223475361924609,277400,273639,370348
653223475369359304,277208,273631,370244
653223475376793999,277288,273599,370096
653223475384228694,277290,273535,370122
653223475391663389,277190,273593,370058
653223475399098084,277033,273451,369959
653223475406532779,277051,273532,369932
653223475413967474,276952,273478,369951
653223475421402169,277023,273438,369846
653223475428836864,277020,273455,369819
653223475436085887,277129,273229,369593
653223475443531504,276983,273268,369605
653223475450977121,276990,273219,369516
653223475458422738,276874,273327,369543
653223475465868355,276848,273232,369397
653223475473313972,276847,273011,369388
653223475480759589,276846,273142,369327
653223475488205206,276808,273184,369460
653223475495650823,276768,273193,369356
653223475503096440,276739,273278,369291
653223475510542057,276790,273092,369380
653223475517987674,276745,273258,369431
653223475525433291,276762,273250,369549
653223475532878908,276727,273162,369531
653223475540324525,276753,273120,369489
653223475547770142,276788,273190,369567
653223475555215759,276675,273131,369482
653223475562661376,276677,273149,369536
653223475570354578,276749,272895,369456
653223475577785632,276790,273113,369426
653223475585216686,276763,273228,369571
653223475592647740,276767,273239,369559
653223475600078794,276741,273140,369579
653223475607509848,276796,273264,369581
653223475614940902,276801,273194,369584
653223475622371956,276744,273252,369614
653223475629803010,276740,273232,369616
653223475637234064,276744,273212,369601
653223475644665118,276728,273286,369695
653223475652096172,276703,273327,369677
653223475659527226,276768,273284,369676
653223475666958280,276880,273198,369568
653223475674389334,276852,273331,369800
653223475681820388,276802,273234,369780
653223475689251442,276919,273287,369792
653223475696682496,276927,273322,369880
653223475703989760,276831,273490,369888
653223475711428096,276823,273344,369984
653223475718866432,276891,273385,369946
653223475726304768,276998,273412,369981
653223475733743104,277118,273475,370022
653223475741181440,277100,273448,370062
653223475748619776,276985,273492,370080
653223475756058112,277069,273541,370021
653223475763496448,277168,273569,370071
653223475770934784,277157,273521,370180
653223475778373120,277353,273478,370170
653223475785811456,277286,273638,370332
653223475793249792,277351,273653,370234
653223475800688128,277414,273637,370330
653223475808126464,277318,273773,370433
653223475815564800,277216,273724,370448
653223475823003136,277307,273528,370449
653223475830441472,277307,273722,370517
653223475837817928,277697,273977,370411
653223475845259904,277485,273773,370572
653223475852701880,277529,273863,370724
653223475860143856,277525,273931,370863
653223475867585832,277542,273862,370786
653223475875027808,277604,273970,370828
653223475882469784,277654,273945,370876
653223475889911760,277629,274007,371027
653223475897353736,277526,273990,371094
653223475904795712,277603,274061,371164
653223475912237688,277664,274013,371174
653223475919679664,277676,274014,371225
653223475927121640,277767,274013,371211
653223475934563616,277905,274105,371325
653223475942005592,277942,274229,371346
653223475949447568,277994,274070,371358
653223475956889544,277989,274161,371487
653223475964331520,278029,274270,371484
653223475971897289,278110,274023,371528
653223475979331984,278059,274235,371622
653223475986766679,278092,274301,371646
653223475994201374,278055,274349,371799
653223476001636069,278067,274333,371898
653223476009070764,278106,274355,371937
653223476016505459,278243,274407,371888
653223476023940154,278145,274503,372085
653223476031374849,278193,274527,372084
653223476038809544,278243,274489,371900
653223476046244239,278295,274526,371891
653223476053678934,278199,274494,372008
653223476061113629,278105,274464,371955
653223476068548324,278219,274442,371882
653223476075983019,278118,274335,371729
653223476083417714,278207,274175,371809
653223476090852409,278249,274320,371803
653223476098287104,278103,274279,371755
653223476105721801,278137,274451,371532
653223476113156496,278046,274368,371604
653223476120591191,277992,274362,371441
653223476128025886,277859,274140,371389
653223476135460581,277948,274221,371527
653223476142895276,277874,274119,371314
653223476150329971,277847,274112,371268
653223476157764666,277842,274014,371097
653223476165199361,277750,274018,371251
653223476172634056,277734,273986,371163
653223476180068751,277746,274055,371170
653223476187503446,277689,274047,371131
653223476194938141,277598,274003,371144
653223476202372836,277689,273842,371054
653223476209807531,277684,273863,370966
653223476217242226,277597,273894,370982
653223476224676921,277652,273843,370791
653223476232111616,277584,273878,370912
653223476239422536,277621,273631,370783
653223476246864512,277648,273755,370798
653223476254306488,277642,273722,370845
653223476261748464,277585,273657,370738
653223476269190440,277459,273706,370817
653223476276632416,277533,273787,370846
653223476284074392,277573,273853,370911
653223476291516368,277496,274000,370555
653223476298958344,277579,274028,370842
653223476306400320,277572,273857,370844
653223476313842296,277646,273895,370955
653223476321284272,277637,274015,370976
653223476328726248,277477,273907,370926
653223476336168224,277504,273856,371072
653223476343610200,277570,273887,371021
653223476351052176,277753,273804,370917
653223476358494152,277590,273874,371004
653223476365936128,277579,273910,370913
653223476373563794,277968,273691,371045
653223476380994848,277860,273845,371167
653223476388425902,277812,273890,371128
653223476395856956,277801,273931,371134
653223476403288010,277805,273972,371106
653223476410719064,277876,273951,371090
653223476418150118,277850,274048,371247
653223476425581172,277782,273982,371263
653223476433012226,277862,274054,371375
653223476440443280,277871,274085,371402
653223476447874334,277811,274123,371360
653223476455305388,277846,273997,371372
653223476462736442,277707,274127,371465
653223476470167496,277856,274114,371258
653223476477598550,277940,273961,371388
653223476485029604,277997,274128,371481
653223476492460658,277850,274126,371473
653223476499891712,277854,273989,371486
653223476507137096,277743,274342,371754
653223476514579072,277839,274238,371677
653223476522021048,277933,274257,371734
653223476529463024,278082,274287,371827
6.53223E+17,278173,274330,371801
653223476544346976,278135,274389,371889
653223476551788952,278171,274353,371960
653223476559230928,278240,274456,371992
653223476566672904,278146,274369,371921
653223476574114880,278361,274372,372104
653223476581556856,278266,274311,372086
653223476588998832,278357,274473,372184
653223476596440808,278230,274427,372170
653223476603882784,278372,274315,372180
653223476611324760,278393,274434,372250
653223476618766736,278509,274556,372256
653223476626208712,278519,274593,372442
653223476633650688,278408,274562,372449
653223476641154560,278238,274356,372256
653223476648592896,278332,274581,372446
653223476656031232,278415,274741,372544
653223476663469568,278661,274794,372654
653223476670907904,278797,274730,372766
653223476678346240,278789,274759,372826
653223476685784576,278649,274874,372841
653223476693222912,278700,274852,372816
653223476700661248,278858,274939,372928
653223476708099584,278925,274814,372952
653223476715537920,278950,274999,373117
653223476722976256,278849,274977,373044
653223476730414592,278794,275016,373142
653223476737852928,279013,275096,373233
653223476745291264,278878,275214,373301
653223476752729600,278942,275172,373417
653223476760167936,279031,275170,373396
653223476767606272,279092,275156,373489
653223476775168402,279429,275076,373751
653223476782599456,279326,275232,373678
653223476790030510,279223,275232,373759
653223476797461564,279249,275288,373832
653223476804892618,279156,275306,373759
653223476812323672,279301,275303,373771
653223476819754726,279269,275296,373686
653223476827185780,279190,275310,373665
653223476834616834,279183,275170,373509
653223476842047888,279148,275207,373523
653223476849478942,279223,275179,373557
653223476856909996,279177,274994,373375
653223476864341050,279068,274946,373235
653223476871772104,278989,275038,373318
653223476879203158,279001,274977,373280
653223476886634212,278838,274861,373171
653223476894065266,278917,274818,373117
653223476901496320,278852,274769,373108
653223476908741704,278567,274421,373182
653223476916183680,278620,274665,373191
653223476923625656,278537,274754,372975
653223476931067632,278632,274642,372888
653223476938509608,278673,274672,372680
653223476945951584,278683,274679,372692
653223476953393560,278669,274622,372737
653223476960835536,278572,274672,372685
653223476968277512,278427,274723,372622
653223476975719488,278409,274657,372566
653223476983161464,278505,274593,372525
653223476990603440,278392,274728,372549
653223476998045416,278432,274443,372365
653223477005487392,278430,274593,372402
653223477012929368,278436,274491,372449
653223477020371344,278395,274542,372501
653223477027813320,278273,274419,372417
653223477035255296,278382,274289,372220
653223477042882962,278498,274579,372050
653223477050314016,278515,274455,372203
653223477057745070,278586,274458,372284
653223477065176124,278471,274503,372387
653223477072607178,278464,274549,372240
653223477080038232,278487,274474,372281
653223477087469286,278532,274469,372427
653223477094900340,278596,274485,372489
653223477102331394,278617,274510,372423
653223477109762448,278565,274437,372515
653223477117193502,278574,274438,372493
653223477124624556,278559,274374,372543
653223477132055610,278581,274385,372503
653223477139486664,278387,274445,372500
653223477146917718,278394,274507,372402
653223477154348772,278456,274610,372404
653223477161779826,278481,274564,372529
653223477169210880,278553,274477,372453
653223477176518144,278472,274330,372555
653223477183956480,278619,274499,372642
653223477191394816,278637,274481,372655
653223477198833152,278599,274514,372650
653223477206271488,278624,274614,372656
653223477213709824,278577,274554,372612
653223477221148160,278616,274505,372549
653223477228586496,278630,274566,372612
653223477236024832,278738,274656,372807
653223477243463168,278752,274549,372617
653223477250901504,278789,274518,372622
653223477258339840,278619,274537,372854
653223477265778176,278655,274615,372982
653223477273216512,278674,274709,373021
653223477280654848,278653,274707,372966
653223477288093184,278571,274659,373001
653223477295531520,278792,274663,373026
653223477302969856,278830,274686,373026
653223477310346312,279025,274745,373171
653223477317788288,279046,274780,373221
653223477325230264,278957,274870,373182
653223477332672240,278940,274868,373181
653223477340114216,278854,274849,373174
653223477347556192,278984,274766,373232
653223477354998168,278915,274861,373363
653223477362440144,278996,274801,373321
653223477369882120,278922,274843,373368
653223477377324096,279002,274914,373488
653223477384766072,279092,274842,373494
653223477392208048,279139,275006,373685
653223477399650024,279189,275160,373614
6.53223E+17,279172,275110,373749
653223477414533976,279253,274915,373653
653223477421975952,279248,275117,373833
653223477429417928,279296,275000,373808
653223477436859904,279298,275132,373933
653223477444425673,279425,275210,374119
653223477451860368,279406,275348,374079
653223477459295063,279266,275342,374104
653223477466729758,279342,275327,374086
653223477474164453,279337,275344,374194
653223477481599148,279343,275300,374235
653223477489033843,279521,275462,374262
653223477496468538,279488,275523,374375
653223477503903233,279552,275382,374379
653223477511337928,279571,275471,374531
653223477518772623,279654,275385,374416
653223477526207318,279757,275450,374580
653223477533642013,279765,275613,374666
653223477541076708,279821,275693,374780
653223477548511403,279813,275684,374769
653223477555946098,279874,275656,374868
653223477563380793,279954,275820,374815
653223477570815488,279978,275559,374816
653223477578188288,280153,275925,374642
653223477585626624,280116,275755,374744
653223477593064960,279950,275650,374821
653223477600503296,279888,275556,374874
653223477607941632,279827,275652,374954
653223477615379968,279885,275644,374889
653223477622818304,279903,275690,374943
653223477630256640,279802,275618,374872
653223477637694976,279845,275534,374664
653223477645133312,279771,275544,374656
653223477652571648,279730,275491,374700
653223477660009984,279711,275495,374548
653223477667448320,279707,275489,374587
653223477674886656,279710,275451,374380
653223477682324992,279697,275379,374332
653223477689763328,279627,275457,374347
653223477697201664,279639,275375,374173
6.53223E+17,279523,275357,374256
653223477712140233,279539,275264,374012
653223477719574928,279571,275271,374004
653223477727009623,279358,275162,373887
653223477734444318,279370,275124,373812
653223477741879013,279389,275160,373719
653223477749313708,279382,275104,373737
653223477756748403,279314,275039,373556
653223477764183098,279317,275040,373830
653223477771617793,279360,274991,373811
653223477779052488,279319,274982,373776
653223477786487183,279218,274971,373759
653223477793921878,279205,274957,373610
653223477801356573,279171,274908,373651
653223477808791268,279138,274832,373452
653223477816225963,279013,274896,373575
653223477823660658,279143,274781,373493
653223477831095353,279194,274915,373605
653223477838530048,279240,274920,373513
653223477845902848,279139,274853,373137
653223477853341184,279135,274963,373386
653223477860779520,279228,274891,373314
653223477868217856,279222,274865,373323
653223477875656192,279247,274862,373358
653223477883094528,279103,274832,373469
653223477890532864,279139,274754,373466
653223477897971200,279077,274876,373592
653223477905409536,279157,274895,373550
653223477912847872,279026,274782,373530
653223477920286208,279177,274822,373534
653223477927724544,279075,274855,373598
653223477935162880,279135,274785,373442
653223477942601216,279023,274774,373543
653223477950039552,279114,274802,373530
653223477957477888,279137,274776,373619
653223477964916224,279044,274696,373568
653223477972354560,279070,274727,373604
653223477979792896,279117,274600,373844
653223477987231232,279058,274691,373786
653223477994669568,279199,274817,373648
653223478002107904,279203,274817,373645
653223478009546240,279212,274793,373710
653223478016984576,279045,274774,373610
653223478024422912,279186,274793,373657
653223478031861248,279099,274709,373690
653223478039299584,279240,274804,373651
653223478046737920,279160,274782,373675
653223478054176256,279292,274891,373835
653223478061614592,279309,274932,373841
653223478069052928,279424,274849,373828
653223478076491264,279301,274941,373852
653223478083929600,279417,274911,373964
653223478091367936,279282,274943,374010
653223478098806272,279453,275002,373951
653223478106244608,279379,275082,374037
653223478113682944,279720,275085,373917
653223478121121280,279607,275149,373996
653223478128559616,279522,275079,374021
653223478135997952,279358,275016,374027
653223478143436288,279406,275091,374238
653223478150874624,279450,275215,374283
653223478158312960,279608,275185,374226
653223478165751296,279626,275290,374349
653223478173189632,279691,275211,374421
653223478180627968,279640,275255,374447
653223478188066304,279771,275274,374396
653223478195504640,279750,275118,374320
653223478202942976,279775,275275,374427
653223478210381312,279783,275396,374592
653223478217819648,279792,275261,374576
653223478225257984,279777,275361,374658
653223478232696320,279815,275399,374689
653223478240134656,279931,275467,374762
653223478247696786,280048,275608,374918
653223478255127840,280052,275499,374938
653223478262558894,279969,275429,375025
653223478269989948,279970,275570,375048
653223478277421002,280023,275622,375115
653223478284852056,280099,275654,375211
653223478292283110,280015,275670,375269
653223478299714164,280177,275750,375240
653223478307145218,280127,275758,375328
653223478314576272,280177,275698,375308
653223478322007326,280209,275887,375537
653223478329438380,280273,275775,375385
653223478336869434,280175,275870,375474
653223478344300488,280312,275767,375406
653223478351731542,280333,275907,375500
653223478359162596,280264,275859,375570
653223478366593650,280317,275888,375434
653223478374024704,280414,275927,375623
653223478381270088,280750,276145,375436
653223478388712064,280491,276187,375735
653223478396154040,280542,276035,375836
653223478403596016,280510,276136,375893
653223478411037992,280470,276238,376083
653223478418479968,280499,276208,376058
653223478425921944,280593,276060,376045
653223478433363920,280519,275894,375985
653223478440805896,280471,276075,375899
653223478448247872,280567,276034,375833
653223478455689848,280379,276110,375858
653223478463131824,280451,275908,375729
653223478470573800,280457,275999,375621
653223478478015776,280359,275912,375614
653223478485457752,280326,275869,375444
653223478492899728,280299,275852,375501
653223478500341704,280322,275842,375403
653223478507783680,280128,275662,375330
653223478515349449,280324,275432,375604
653223478522784144,280048,275544,375364
653223478530218839,280034,275491,375212
653223478537653534,280042,275525,374910
653223478545088229,280026,275515,374871
653223478552522924,279959,275401,374797
653223478559957619,279969,275452,374699
653223478567392314,279864,275501,374818
653223478574827009,279962,275322,374599
653223478582261704,279923,275430,374582
653223478589696399,279837,275374,374642
653223478597131094,279873,275400,374556
653223478604565789,279720,275333,374466
653223478612000484,279634,275295,374523
653223478619435179,279673,275167,374390
653223478626869874,279719,275247,374471
653223478634304569,279684,275194,374466
653223478641739264,279744,275044,374322
653223478649112064,279606,275334,374058
653223478656550400,279635,275213,374098
653223478663988736,279634,275249,374159
653223478671427072,279469,275086,374260
653223478678865408,279501,275071,374232
653223478686303744,279502,275104,374257
653223478693742080,279588,275112,374273
653223478701180416,279581,275184,374279
653223478708618752,279387,275158,374271
653223478716057088,279511,275156,374252
653223478723495424,279567,275084,374257
653223478730933760,279481,274994,374147
653223478738372096,279548,274953,374019
653223478745810432,279489,275144,374255
653223478753248768,279296,275089,374288
653223478760687104,279460,275137,374310
653223478768125440,279546,275188,374327
653223478775563776,279609,275143,374189
653223478783002112,279497,274707,374420
653223478790440448,279630,274971,374232
653223478797878784,279543,274979,374218
653223478805317120,279603,274982,374259
653223478812755456,279647,275158,374305
653223478820193792,279553,275171,374269
653223478827632128,279504,275071,374306
653223478835070464,279577,275098,374273
653223478842508800,279607,275112,374275
653223478849947136,279621,275262,374306
653223478857385472,279673,275267,374376
653223478864823808,279658,275149,374396
653223478872262144,279701,275203,374250
653223478879700480,279674,275233,374298
653223478887138816,279762,275224,374419
653223478894577152,279599,275175,374293
653223478902015488,279668,275307,374404
653223478909453824,279671,275130,374363
653223478916892160,279955,274942,374428
653223478924330496,279812,275224,374375
653223478931768832,279773,275324,374444
653223478939207168,279769,275327,374635
653223478946645504,279835,275334,374557
653223478954083840,279753,275333,374578
653223478961522176,279769,275325,374699
653223478968960512,279795,275440,374743
653223478976398848,279916,275439,374830
653223478983837184,279968,275454,374892
653223478991275520,279954,275450,374728
653223478998713856,280087,275523,374738
653223479006152192,279961,275426,374749
653223479013590528,280104,275466,374756
653223479021028864,280043,275474,374831
653223479028467200,280078,275485,374928
653223479035905536,280166,275545,375007
653223479043343872,280221,275645,374997
653223479050844105,280410,275837,375091
653223479058278800,280463,275809,375163
653223479065713495,280242,275700,375158
653223479073148190,280229,275811,375286
653223479080582885,280248,275840,375395
653223479088017580,280219,275871,375462
653223479095452275,280427,275929,375368
653223479102886970,280356,275774,375401
653223479110321665,280516,275866,375450
653223479117756360,280467,275892,375535
653223479125191055,280375,275977,375538
653223479132625750,280423,276005,375486
653223479140060445,280499,276003,375632
653223479147495140,280532,276020,375771
653223479154929835,280465,275938,375690
653223479162364530,280612,276025,375683
653223479169799225,280698,276198,375839
653223479177233920,280686,276139,375976
653223479184606720,280975,276376,375966
653223479192045056,280683,276066,375965
653223479199483392,280681,276261,375945
653223479206921728,280903,276365,376173
653223479214360064,280640,276224,376078
653223479221798400,280742,276273,376267
653223479229236736,280920,276296,376299
653223479236675072,280902,276280,376249
653223479244113408,280807,276357,376284
653223479251551744,280849,276483,376422
653223479258990080,280914,276564,376581
653223479266428416,281017,276469,376508
653223479273866752,280952,276488,376478
653223479281305088,281046,276475,376472
653223479288743424,280999,276483,376427
653223479296181760,280901,276509,376265
653223479303620096,280938,276451,376405
653223479311058432,280838,276399,376398
653223479318496768,280761,276143,376010
653223479325935104,280795,276074,376008
653223479333373440,280738,276177,375949
653223479340811776,280627,276112,375927
653223479348250112,280560,276063,375983
653223479355688448,280552,276203,375872
653223479363126784,280522,276191,375918
653223479370565120,280583,276094,375744
653223479378003456,280588,276040,375605
653223479385441792,280419,276071,375632
653223479392880128,280416,275976,375349
653223479400318464,280345,275900,375319
653223479407756800,280323,275659,375263
653223479415195136,280294,275695,375314
653223479422633472,280324,275709,375131
653223479430071808,280247,275783,375085
653223479437510144,280200,275721,375080
653223479444948480,280118,275757,375078
653223479452448713,280069,275587,375065
653223479459883408,280144,275489,374905
653223479467318103,280092,275574,374805
653223479474752798,279934,275603,374746
653223479482187493,279987,275607,374700
653223479489622188,279915,275632,374733
653223479497056883,279990,275588,374669
653223479504491578,280017,275516,374541
653223479511926273,280031,275489,374607
653223479519360968,279929,275441,374530
653223479526795663,279970,275351,374475
653223479534230358,279945,275399,374505
653223479541665053,279966,275454,374392
653223479549099748,279713,275467,374480
653223479556534443,279786,275469,374311
653223479563969138,279839,275410,374380
653223479571403833,279786,275403,374427
653223479578838528,279786,275525,374551
653223479586211328,279735,275487,374241
653223479593649664,279821,275413,374271
6.53223E+17,279903,275452,374351
653223479608526336,279910,275447,374430
653223479615964672,279827,275485,374430
653223479623403008,279863,275443,374188
653223479630841344,279830,275400,374304
653223479638279680,279727,275414,374323
653223479645718016,279942,275330,374269
653223479653156352,279850,275411,374301
653223479660594688,279825,275439,374425
653223479668033024,279785,275423,374406
653223479675471360,279854,275259,374297
653223479682909696,279676,275331,374309
653223479690348032,279845,275446,374375
653223479697786368,279798,275551,374379
653223479705224704,279737,275485,374385
653223479712663040,279673,275557,374385
653223479720163273,279898,275399,374675
653223479727597968,280002,275555,374635
653223479735032663,279988,275485,374496
653223479742467358,279906,275379,374585
653223479749902053,279932,275529,374514
653223479757336748,279976,275523,374552
653223479764771443,279975,275582,374588
653223479772206138,279931,275637,374540
653223479779640833,279897,275603,374576
653223479787075528,279997,275567,374584
653223479794510223,279947,275511,374456
653223479801944918,280017,275567,374621
653223479809379613,280037,275612,374656
653223479816814308,279897,275659,374715
653223479824249003,279927,275617,374659
653223479831683698,280008,275590,374675
653223479839118393,280087,275621,374695
653223479846553088,280106,275776,374798
653223479853925888,279882,275756,374686
653223479861364224,280100,275771,374811
653223479868802560,280162,275837,374770
653223479876240896,280225,275754,374875
653223479883679232,280281,275837,374920
653223479891117568,280174,275901,375102
653223479898555904,280302,275927,375026
653223479905994240,280277,275756,374838
653223479913432576,280201,276012,374978
653223479920870912,280218,276029,375084
653223479928309248,280264,276058,375134
653223479935747584,280315,275942,375084
653223479943185920,280212,276029,375176
653223479950624256,280326,276000,375148
653223479958062592,280414,276119,375218
653223479965500928,280323,276169,375168
653223479972939264,280332,276100,375304
653223479980377600,280359,276226,375264
653223479987815936,280647,276388,375594
653223479995254272,280529,276196,375439
653223480002692608,280569,276241,375377
653223480010130944,280653,276193,375380
653223480017569280,280732,276384,375559
653223480025007616,280691,276259,375543
653223480032445952,280691,276310,375575
653223480039884288,280701,276410,375639
653223480047322624,280612,276514,375679
653223480054760960,280781,276370,375693
653223480062199296,280729,276484,375748
653223480069637632,280803,276414,375666
653223480077075968,280770,276585,375744
653223480084514304,280910,276526,375661
653223480091952640,280891,276564,375784
653223480099390976,280944,276647,375904
653223480106829312,281125,276723,375785
653223480114267648,281173,276722,375805
653223480121705984,281024,276477,375598
653223480129144320,280997,276537,375853
653223480136582656,281123,276675,375790
653223480144020992,281068,276571,375789
653223480151459328,281156,276736,375733
653223480158897664,281235,276691,375797
6.53223E+17,281059,276704,375788
653223480173774336,281094,276693,375746
653223480181212672,280997,276634,375579
653223480188651008,280860,276607,375563
653223480196089344,280857,276519,375492
653223480203527680,280793,276469,375306
653223480210966016,280749,276419,375369
653223480218404352,280811,276487,375307
653223480225842688,280610,276455,375174
653223480233281024,280589,276414,375108
653223480240719360,280509,276338,375018
653223480248157696,280430,276346,375004
653223480255657929,280459,276031,375067
653223480263092624,280434,276067,374915
653223480270527319,280501,276163,374752
653223480277962014,280522,276182,374709
653223480285396709,280476,276159,374496
653223480292831404,280315,276110,374351
653223480300266099,280274,276140,374419
653223480307700794,280239,276093,374338
653223480315135489,280120,276035,374330
653223480322570184,280203,275864,374148
653223480330004879,280082,275949,374201
653223480337439574,279958,275953,374167
653223480344874269,279989,275894,373993
653223480352308964,280008,275884,374034
653223480359743659,279978,275885,374095
653223480367178354,280064,275901,373843
653223480374613049,280021,275833,373842
653223480382047744,279964,275842,373826
653223480389420544,279869,275499,373870
653223480396858880,279881,275774,373928
653223480404297216,279940,275839,373905
653223480411735552,279956,275905,373887
653223480419173888,279924,275942,373762
653223480426612224,280004,275920,373894
653223480434050560,279948,275928,373798
653223480441488896,279975,275898,373715
653223480448927232,279988,275855,373898
653223480456365568,280017,275817,373708
653223480463803904,279802,275833,373711
653223480471242240,279934,275868,373562
653223480478680576,279924,275909,373628
653223480486118912,279983,275902,373694
653223480493557248,279932,275976,373571
653223480500995584,279797,275858,373495
653223480508433920,279728,275718,373412
653223480515872256,279832,275798,373344
653223480523248712,279786,275615,373554
653223480530690688,279741,275688,373523
653223480538132664,279852,275739,373600
653223480545574640,279757,275901,373704
653223480553016616,279765,275951,373711
653223480560458592,279818,275934,373622
653223480567900568,279814,275875,373648
653223480575342544,279799,275794,373511
653223480582784520,279776,275824,373573
653223480590226496,279788,275940,373637
653223480597668472,279887,275906,373583
653223480605110448,279883,275877,373568
653223480612552424,279788,275872,373547
653223480619994400,279953,275906,373709
653223480627436376,279925,275974,373675
653223480634878352,279825,275981,373795
653223480642320328,280003,275883,373647
653223480649762304,280019,276011,373634
653223480657389970,279702,275841,373500
653223480664821024,279773,275935,373631
653223480672252078,279798,275983,373719
653223480679683132,279828,275891,373807
653223480687114186,279852,275901,373866
653223480694545240,279873,276038,373898
653223480701976294,279966,276114,373928
653223480709407348,279998,276060,374030
653223480716838402,280098,276113,373864
653223480724269456,280111,276156,373828
653223480731700510,280144,276188,373892
653223480739131564,280122,276091,373932
653223480746562618,280183,276266,374021
653223480753993672,280162,276267,374032
653223480761424726,280203,276273,374113
653223480768855780,280205,276286,374124
653223480776286834,280228,276299,374240
653223480783717888,280277,276195,374034
653223480791025152,280464,276506,373943
653223480798463488,280419,276533,374116
653223480805901824,280405,276567,374133
653223480813340160,280397,276523,374139
653223480820778496,280476,276352,374183
653223480828216832,280492,276473,374344
653223480835655168,280503,276552,374427
653223480843093504,280601,276588,374528
653223480850531840,280499,276549,374497
653223480857970176,280656,276572,374542
653223480865408512,280452,276613,374654
653223480872846848,280564,276554,374590
653223480880285184,280640,276677,374675
653223480887723520,280583,276657,374769
653223480895161856,280753,276584,374740
653223480902600192,280717,276712,374809
653223480910038528,280743,276764,374898
653223480917476864,280816,276656,374899
653223480924853320,280666,276799,375057
653223480932295296,280649,276839,375052
653223480939737272,280842,276960,375160
653223480947179248,280695,276893,374971
653223480954621224,280799,276804,375004
653223480962063200,280708,276875,375006
653223480969505176,280806,276871,374834
653223480976947152,280605,276743,374762
653223480984389128,280659,276761,374877
653223480991831104,280700,276784,374745
653223480999273080,280581,276700,374616
653223481006715056,280471,276689,374558
653223481014157032,280452,276561,374439
653223481021599008,280571,276571,374396
653223481029040984,280449,276558,374212
653223481036482960,280283,276454,374325
653223481043924936,280333,276475,374164
653223481051366912,280221,276350,374045
653223481058994578,280295,276397,374086
653223481066425632,280141,276285,373951
653223481073856686,280014,276254,373824
653223481081287740,280144,276267,373806
653223481088718794,280021,276284,373509
653223481096149848,279959,276197,373474
653223481103580902,279974,276255,373504
653223481111011956,279924,276083,373473
653223481118443010,279664,276083,373286
653223481125874064,279618,276110,373255
653223481133305118,279732,276202,373267
653223481140736172,279695,275979,373253
653223481148167226,279621,276035,373184
653223481155598280,279700,276014,373151
653223481163029334,279647,275897,373116
653223481170460388,279481,275944,373007
653223481177891442,279553,275982,373066
653223481185322496,279461,275954,372990
653223481192629760,279766,275869,373188
653223481200068096,279543,275759,373007
653223481207506432,279452,275743,372918
653223481214944768,279485,275760,372913
653223481222383104,279530,275787,372805
653223481229821440,279410,275796,372886
653223481237259776,279326,275974,372830
653223481244698112,279415,275870,372743
653223481252136448,279302,275887,372756
653223481259574784,279318,275942,372714
653223481267013120,279240,275709,372694
653223481274451456,279326,275805,372823
653223481281889792,279511,275803,372785
653223481289328128,279394,275900,372809
653223481296766464,279377,275896,372832
653223481304204800,279384,275930,372792
653223481311643136,279362,275870,372742
653223481319081472,279358,275786,372737
653223481326457928,279505,276088,372406
653223481333899904,279372,276052,372526
653223481341341880,279415,275943,372657
653223481348783856,279467,275897,372638
653223481356225832,279374,275849,372704
653223481363667808,279352,275961,372654
653223481371109784,279376,275928,372752
653223481378551760,279365,275805,372658
653223481385993736,279348,275843,372638
653223481393435712,279420,275750,372641
653223481400877688,279324,275837,372701
653223481408319664,279303,275766,372635
653223481415761640,279336,275936,372754
653223481423203616,279365,275815,372740
653223481430645592,279403,275880,372774
653223481438087568,279409,275937,372685
653223481445529544,279276,275971,372808
653223481452971520,279418,275991,372781
653223481460599186,279368,276235,372554
653223481468030240,279367,276024,372733
653223481475461294,279563,276069,372922
653223481482892348,279549,276044,372928
653223481490323402,279561,276017,372776
653223481497754456,279412,275920,372947
653223481505185510,279421,276013,372926
653223481512616564,279578,276023,372861
653223481520047618,279536,276094,372965
653223481527478672,279622,276011,373012
653223481534909726,279590,276143,373085
653223481542340780,279525,276080,373157
653223481549771834,279524,276168,373264
653223481557202888,279678,276147,373137
653223481564633942,279758,276258,373242
653223481572064996,279663,276263,373305
653223481579496050,279814,276300,373331
653223481586927104,279679,276306,373338
653223481594172488,279965,276063,373453
653223481601614464,279896,276277,373550
653223481609056440,279793,276369,373472
653223481616498416,279816,276413,373544
653223481623940392,279837,276410,373600
653223481631382368,279957,276481,373690
653223481638824344,279871,276482,373646
653223481646266320,279996,276466,373663
653223481653708296,279935,276476,373563
653223481661150272,279888,276508,373643
653223481668592248,279989,276589,373710
653223481676034224,280078,276651,373783
653223481683476200,280074,276622,373849
653223481690918176,280064,276640,373922
653223481698360152,280140,276571,373860
653223481705802128,280137,276578,373905
653223481713244104,280195,276643,373825
653223481720686080,280271,276550,374006
653223481728189952,280243,276847,374049
653223481735628288,280440,276790,374031
653223481743066624,280368,276734,374051
653223481750504960,280324,276570,374032
653223481757943296,280437,276827,374174
653223481765381632,280414,276953,374231
653223481772819968,280309,276871,374242
653223481780258304,280505,277015,374153
653223481787696640,280461,276954,374182
653223481795134976,280394,276990,374208
653223481802573312,280322,276902,374159
653223481810011648,280358,276740,373980
653223481817449984,280367,276841,373950
653223481824888320,280313,276765,373883
653223481832326656,280247,276627,373757
653223481839764992,280207,276663,373706
653223481847203328,280083,276648,373597
653223481854641664,279927,276602,373506
653223481862141897,279746,276278,373282
653223481869576592,279756,276337,373164
653223481877011287,279859,276361,373022
653223481884445982,279750,276267,372952
653223481891880677,279660,276192,372737
653223481899315372,279584,276229,372663
653223481906750067,279545,276268,372670
653223481914184762,279486,276078,372641
653223481921619457,279367,276096,372515
653223481929054152,279379,275975,372248
653223481936488847,279389,276049,372342
653223481943923542,279340,275974,372171
653223481951358237,279259,275874,372192
653223481958792932,279198,275832,372143
653223481966227627,279163,275813,372047
653223481973662322,279087,275833,371929
653223481981097017,279093,275823,371906
653223481988531712,278889,275739,371832
653223481995904512,279104,275517,371724
653223482003342848,278931,275652,371678
653223482010781184,278923,275676,371575
653223482018219520,278881,275621,371528
653223482025657856,278874,275652,371237
653223482033096192,278672,275697,371273
653223482040534528,278739,275653,371259
653223482047972864,278709,275525,371263
653223482055411200,278654,275546,371224
653223482062849536,278689,275528,371224
653223482070287872,278609,275511,371153
653223482077726208,278662,275376,371140
653223482085164544,278761,275506,371183
653223482092602880,278531,275400,371097
653223482100041216,278596,275407,371058
653223482107479552,278518,275525,371094
653223482114917888,278531,275360,370802
653223482122356224,278481,275410,370865
653223482129794560,278726,275523,371026
653223482137232896,278559,275521,371047
653223482144671232,278366,275373,370879
653223482152109568,278403,275448,370986
653223482159547904,278285,275452,370905
653223482166986240,278325,275310,370906
653223482174424576,278406,275233,370871
653223482181862912,278420,275175,370744
653223482189301248,278309,275239,370718
653223482196739584,278333,275266,370796
653223482204177920,278270,275388,370765
653223482211616256,278382,275398,370857
653223482219054592,278358,275392,370867
653223482226492928,278534,275368,370876
653223482233931264,278471,275381,370925
653223482241369600,278433,275426,370938
653223482248807936,278389,275313,370841
653223482256246272,278267,275254,370832
653223482263746505,278366,275410,370922
653223482271181200,278447,275389,370884
653223482278615895,278432,275389,370974
653223482286050590,278470,275369,370866
653223482293485285,278431,275363,370848
653223482300919980,278405,275313,370892
653223482308354675,278318,275445,370913
653223482315789370,278514,275390,370887
653223482323224065,278571,275385,370827
653223482330658760,278395,275444,370970
653223482338093455,278482,275243,370844
653223482345528150,278507,275305,371003
653223482352962845,278513,275402,371016
653223482360397540,278440,275391,371140
653223482367832235,278546,275346,371161
653223482375266930,278580,275373,371288
653223482382701625,278573,275475,371300
653223482390136320,278573,275587,371282
653223482397509120,278841,275586,371489
653223482404947456,278735,275525,371394
653223482412385792,278715,275484,371373
653223482419824128,278698,275453,371426
653223482427262464,278645,275519,371344
653223482434700800,278702,275582,371397
653223482442139136,278602,275567,371419
653223482449577472,278662,275526,371521
653223482457015808,278707,275518,371508
653223482464454144,278637,275548,371598
653223482471892480,278706,275556,371652
653223482479330816,278743,275577,371738
653223482486769152,278751,275740,371723
653223482494207488,278787,275691,371763
653223482501645824,278744,275799,371813
653223482509084160,278859,275606,371649
653223482516522496,278830,275707,371763
653223482523960832,278893,275730,371687
653223482531399168,278710,276190,371590
653223482538837504,278818,275959,371748
653223482546275840,279013,275997,371891
653223482553714176,278956,275922,371916
653223482561152512,278898,275942,372116
653223482568590848,278958,275997,372105
653223482576029184,279028,275988,372078
653223482583467520,279118,275913,372167
653223482590905856,279136,275966,372297
653223482598344192,279212,276000,372265
653223482605782528,279285,276106,372515
653223482613220864,279323,276054,372467
653223482620659200,279351,276123,372357
653223482628097536,279228,276152,372345
653223482635535872,279264,276023,372418
653223482642974208,279348,275962,372383
653223482650412544,279315,275993,372444
653223482657850880,279067,275958,372343
653223482665351113,278990,276074,371860
653223482672785808,278986,275964,371854
653223482680220503,278938,275905,371827
653223482687655198,278820,275833,371804
653223482695089893,278901,275833,371706
653223482702524588,278918,275767,371618
653223482709959283,278843,275745,371582
653223482717393978,278782,275623,371382
653223482724828673,278620,275515,371282
653223482732263368,278508,275420,371262
653223482739698063,278427,275552,371286
653223482747132758,278426,275364,370924
653223482754567453,278215,275308,370770
653223482762002148,278258,275249,370589
653223482769436843,278204,275314,370685
653223482776871538,278022,275249,370594
653223482784306233,278019,275120,370470
653223482791740928,278022,275043,370350
653223482799113728,278189,275252,370329
653223482806552064,277994,275048,370277
653223482813990400,277794,275022,370206
653223482821428736,277736,274891,370041
653223482828867072,277694,274873,369991
653223482836305408,277698,274731,369933
653223482843743744,277662,274686,369812
653223482851182080,277668,274662,369599
653223482858620416,277467,274774,369676
653223482866058752,277490,274599,369501
653223482873497088,277410,274598,369432
653223482880935424,277421,274395,369313
653223482888373760,277302,274496,369421
653223482895812096,277370,274452,369373
653223482903250432,277239,274481,369334
653223482910688768,277364,274464,369322
653223482918127104,277338,274469,369304
653223482925565440,277191,274426,369312
653223482933003776,277364,274580,369130
653223482940442112,277205,274435,369139
653223482947880448,277157,274444,369179
653223482955318784,277237,274444,369236
653223482962757120,277202,274343,369085
653223482970195456,277212,274359,369039
653223482977633792,277139,274340,369088
653223482985072128,277127,274206,369152
653223482992510464,277071,274251,369107
653223482999948800,277010,274169,369079
653223483007387136,276933,274149,369074
653223483014825472,276869,274168,368967
653223483022263808,276988,274253,368951
653223483029702144,276946,274196,368927
653223483037140480,277092,274128,368898
653223483044578816,277024,274144,368814
653223483052017152,276949,274114,368966
653223483059455488,277002,274115,368823
653223483066831944,277304,273854,368989
653223483074273920,277102,274006,368935
653223483081715896,277104,274082,369013
653223483089157872,276992,274006,368893
653223483096599848,277005,274045,369006
653223483104041824,276899,274093,368940
653223483111483800,277003,274132,368970
653223483118925776,277141,274076,369063
653223483126367752,277112,274020,369065
653223483133809728,276956,274072,368967
653223483141251704,276995,274162,369015
653223483148693680,276954,274101,369042
653223483156135656,276993,274191,369081
653223483163577632,276973,274185,369178
653223483171019608,277021,274127,369021
653223483178461584,277138,274083,369048
653223483185903560,277163,274151,369114
653223483193345536,277046,274190,369128
653223483200973202,276767,274076,369076
653223483208404256,276970,274165,369141
653223483215835310,277103,274293,369243
653223483223266364,277190,274292,369362
653223483230697418,277157,274213,369322
653223483238128472,277060,274171,369253
653223483245559526,277021,274311,369349
653223483252990580,277110,274331,369344
653223483260421634,277244,274370,369370
653223483267852688,277112,274281,369422
653223483275283742,277339,274304,369539
653223483282714796,277205,274293,369482
653223483290145850,277392,274423,369549
653223483297576904,277449,274461,369556
653223483305007958,277348,274418,369621
653223483312439012,277416,274325,369607
653223483319870066,277354,274428,369577
653223483327301120,277322,274414,369682
653223483334608384,277424,274600,369543
653223483342046720,277415,274604,369748
653223483349485056,277510,274481,369870
653223483356923392,277460,274384,369878
653223483364361728,277460,274620,369977
653223483371800064,277511,274583,369967
653223483379238400,277540,274541,370002
653223483386676736,277633,274550,370089
653223483394115072,277728,274586,370121
653223483401553408,277655,274519,370154
653223483408991744,277734,274652,370078
653223483416430080,277738,274721,370214
653223483423868416,277829,274640,370185
653223483431306752,277887,274723,370379
653223483438745088,277951,274850,370466
653223483446183424,277932,274851,370558
653223483453621760,277958,274901,370568
653223483461060096,277940,275001,370632
653223483468436552,278060,274640,370555
653223483475878528,277928,274804,370623
653223483483320504,278030,274901,370683
653223483490762480,277990,274947,370652
653223483498204456,277888,274986,370563
653223483505646432,277885,274975,370491
653223483513088408,277889,274925,370566
653223483520530384,277799,274747,370457
653223483527972360,277809,274725,370155
653223483535414336,277625,274644,370130
653223483542856312,277653,274647,370015
653223483550298288,277652,274665,369903
653223483557740264,277522,274560,369809
653223483565182240,277440,274484,369661
653223483572624216,277351,274374,369545
653223483580066192,277277,274297,369326
653223483587508168,277205,274202,369274
653223483594950144,277176,274077,369172
653223483602515913,276963,274245,369039
653223483609950608,277020,274079,369035
653223483617385303,277078,274143,368993
653223483624819998,276908,273951,368928
653223483632254693,277010,274052,368929
653223483639689388,276910,273832,368802
653223483647124083,276802,273822,368765
653223483654558778,276849,273806,368652
653223483661993473,276658,273790,368627
653223483669428168,276600,273600,368372
653223483676862863,276711,273656,368342
653223483684297558,276603,273672,368289
653223483691732253,276569,273566,368237
653223483699166948,276568,273551,368229
653223483706601643,276404,273539,368093
653223483714036338,276436,273516,368047
653223483721471033,276322,273514,367931
653223483728905728,276356,273417,367932
653223483736340425,276613,273557,367953
653223483743775120,276514,273528,367783
653223483751209815,276423,273458,367664
653223483758644510,276402,273331,367770
653223483766079205,276307,273379,367829
653223483773513900,276194,273347,367765
653223483780948595,276094,273315,367813
653223483788383290,276106,273232,367876
653223483795817985,276137,273216,367852
653223483803252680,276175,273147,367825
653223483810687375,276183,273233,367732
653223483818122070,276165,273217,367735
653223483825556765,276093,273091,367758
653223483832991460,276077,273113,367682
653223483840426155,276145,273183,367770
653223483847860850,276038,273201,367634
653223483855295545,276124,273108,367544
653223483862730240,276137,273111,367589
653223483870041160,276220,272916,367341
653223483877483136,276227,273107,367594
653223483884925112,276089,273109,367583
653223483892367088,276137,273154,367618
653223483899809064,276160,273119,367664
653223483907251040,276144,272940,367613
653223483914693016,275951,273115,367558
653223483922134992,276003,273060,367575
653223483929576968,276078,272943,367573
653223483937018944,275939,272940,367556
653223483944460920,276141,272979,367615
653223483951902896,276058,273102,367584
653223483959344872,276130,273029,367614
653223483966786848,276149,273001,367628
653223483974228824,276084,272956,367554
653223483981670800,276096,272996,367714
653223483989112776,276088,272955,367648
653223483996554752,276081,273090,367756
653223484004058624,276137,273222,367631
653223484011496960,276235,273223,367687
653223484018935296,276256,273242,367814
653223484026373632,276265,273140,367822
653223484033811968,276238,273198,367890
653223484041250304,276301,273250,367909
653223484048688640,276364,273183,367954
653223484056126976,276348,273238,368179
653223484063565312,276315,273236,368029
653223484071003648,276409,273290,368056
653223484078441984,276402,273278,368177
653223484085880320,276417,273328,368185
653223484093318656,276459,273252,368244
653223484100756992,276456,273222,368100
653223484108195328,276405,273288,368337
653223484115633664,276413,273332,368379
6.53223E+17,276492,273424,368416
653223484130510336,276482,273433,368408
653223484138010569,276595,273342,368585
653223484145445264,276522,273355,368637
653223484152879959,276567,273528,368604
653223484160314654,276528,273538,368688
653223484167749349,276621,273633,368784
653223484175184044,276680,273592,368610
653223484182618739,276666,273655,368638
653223484190053434,276830,273645,368727
653223484197488129,276815,273637,368812
653223484204922824,276895,273636,368842
653223484212357519,276914,273674,368998
653223484219792214,276972,273670,368947
653223484227226909,277044,273747,369075
653223484234661604,276832,273809,369071
653223484242096299,277099,273870,369264
653223484249530994,277013,273929,369233
653223484256965689,277051,273802,369300
653223484264400384,277095,273873,369325
653223484271773184,277047,273876,369545
653223484279211520,277100,273888,369511
653223484286649856,277215,273875,369490
653223484294088192,277245,273875,369522
653223484301526528,277274,273968,369507
653223484308964864,277262,273978,369587
653223484316403200,277277,273996,369481
653223484323841536,277198,273909,369338
653223484331279872,277241,273880,369396
653223484338718208,277168,273854,369427
653223484346156544,277135,273885,369431
653223484353594880,277112,273796,369210
653223484361033216,277069,273810,369157
653223484368471552,276891,273729,369182
653223484375909888,276916,273503,368902
653223484383348224,276815,273546,368946
653223484390786560,276810,273472,368902
653223484398224896,276755,273479,368773
653223484405725129,276922,273269,368630
653223484413159824,276794,273410,368610
653223484420594519,276604,273465,368573
653223484428029214,276618,273415,368547
653223484435463909,276596,273334,368405
653223484442898604,276561,273287,368278
653223484450333299,276575,273188,368306
653223484457767994,276532,273211,368221
653223484465202689,276359,273181,368184
653223484472637384,276286,272993,367990
653223484480072079,276405,273022,367857
653223484487506774,276224,272934,367774
653223484494941469,276280,273035,367821
653223484502376164,276291,273011,367842
653223484509810859,276151,273002,367824
