timestamp,ch1,ch2,ch3
653223005280945664,287816,282845,377218
6.53223E+17,287750,282729,377172
653223005295822336,287650,282678,377039
653223005303260672,287582,282549,376991
653223005310699008,287543,282551,376958
653223005318137344,287574,282544,376876
653223005325575680,287521,282464,376906
653223005333014016,287532,282378,376793
653223005340452352,287484,282390,376630
653223005347890688,287483,282394,376694
653223005355329024,287378,282406,376628
653223005362767360,287405,282337,376613
653223005370205696,287391,282317,376587
653223005377644032,287275,282244,376549
653223005385082368,287350,282184,376520
653223005392520704,287281,282256,376510
653223005399959040,287378,282199,376507
653223005407397376,287318,282179,376499
653223005414897609,287347,281810,376057
653223005422332304,287264,282035,376218
653223005429766999,287183,282070,376302
653223005437201694,287258,281991,376450
653223005444636389,287158,282017,376428
653223005452071084,287166,282105,376392
653223005459505779,287093,282057,376318
653223005466940474,287057,281947,376378
653223005474375169,286996,281996,376305
653223005481809864,286964,282016,376361
653223005489244559,287051,282096,376296
653223005496679254,287098,282029,376337
653223005504113949,286933,281986,376310
653223005511548644,286977,281965,376313
653223005518983339,287083,282069,376332
653223005526418034,287046,281951,376305
653223005533852729,287003,282036,376402
653223005541287424,287033,282079,376326
653223005548629284,287022,281902,376086
653223005556069440,286864,281916,376058
653223005563509596,287002,282001,376277
653223005570949752,287074,282021,376257
653223005578389908,287098,282055,376352
653223005585830064,287118,282002,376190
653223005593270220,287191,282070,376232
653223005600710376,287135,282129,376217
653223005608150532,287180,282112,376383
653223005615590688,287125,282021,376382
653223005623030844,287189,282129,376504
6.53223E+17,287184,281931,376327
653223005637911156,287275,282078,376421
653223005645351312,287222,282070,376481
653223005652791468,287169,282038,376477
653223005660231624,287210,282098,376532
653223005667671780,287187,282166,376570
653223005675111936,287215,282085,376522
653223005682644937,287285,281868,376854
653223005690079632,287288,282016,376724
653223005697514327,287308,282151,376802
653223005704949022,287349,282141,376586
653223005712383717,287426,282081,376598
653223005719818412,287421,282100,376604
653223005727253107,287431,282214,376702
653223005734687802,287431,282163,376796
653223005742122497,287395,282167,376651
653223005749557192,287378,282139,376724
653223005756991887,287404,282078,376686
653223005764426582,287327,282086,376675
653223005771861277,287296,282031,376552
653223005779295972,287161,282047,376586
653223005786730667,287136,281900,376484
653223005794165362,287106,281792,376400
653223005801600057,286959,281796,376257
653223005809034752,286893,281817,376036
653223005816407552,287039,281788,375790
653223005823845888,286788,281582,375590
653223005831284224,286795,281483,375581
653223005838722560,286533,281336,375355
653223005846160896,286503,281300,375159
653223005853599232,286348,281055,375052
653223005861037568,286142,280999,375059
653223005868475904,286129,281041,374822
653223005875914240,286012,280951,374801
653223005883352576,286008,280894,374718
653223005890790912,285920,280835,374596
653223005898229248,285917,280700,374490
653223005905667584,285700,280580,374256
653223005913105920,285605,280584,374221
653223005920544256,285620,280535,373910
653223005927982592,285500,280416,373926
653223005935420928,285536,280417,373878
653223005942859264,285461,280222,373727
653223005950328557,285394,280064,373469
653223005957765072,285376,280129,373458
653223005965201587,285380,280117,373584
653223005972638102,285262,280185,373499
653223005980074617,285196,279995,373338
653223005987511132,285163,279942,373334
653223005994947647,285102,279901,373353
653223006002384162,285091,279937,373233
653223006009820677,285046,279919,373181
653223006017257192,285034,279869,372943
653223006024693707,285034,279902,372970
653223006032130222,284980,279885,372937
653223006039566737,284979,279792,372949
653223006047003252,284929,279737,372730
653223006054439767,284882,279750,372849
653223006061876282,284739,279641,372825
653223006069312797,284837,279724,372815
653223006076749312,284807,279584,372728
653223006084154880,285036,279401,372918
653223006091593216,284880,279481,372843
653223006099031552,284770,279506,372764
653223006106469888,284679,279569,372711
653223006113908224,284641,279581,372608
653223006121346560,284552,279600,372616
653223006128784896,284560,279560,372634
653223006136223232,284713,279513,372683
653223006143661568,284587,279390,372702
653223006151099904,284573,279454,372604
653223006158538240,284549,279457,372557
653223006165976576,284428,279385,372554
653223006173414912,284604,279440,372574
653223006180853248,284543,279393,372585
653223006188291584,284653,279493,372605
653223006195729920,284624,279530,372756
653223006203168256,284617,279522,372610
653223006210606592,284621,279452,372481
653223006218106825,284829,279315,372621
653223006225541520,284709,279362,372612
653223006232976215,284568,279413,372612
653223006240410910,284579,279340,372615
653223006247845605,284511,279511,372728
653223006255280300,284607,279470,372737
653223006262714995,284529,279427,372623
653223006270149690,284626,279490,372733
653223006277584385,284632,279485,372615
653223006285019080,284680,279442,372673
653223006292453775,284621,279490,372791
653223006299888470,284743,279426,372824
653223006307323165,284757,279515,372720
653223006314757860,284688,279547,372783
653223006322192555,284810,279590,372697
653223006329627250,284791,279702,372975
653223006337061945,284816,279623,372956
653223006344496640,284870,279649,373038
653223006351869440,285037,279456,373178
653223006359307776,284833,279467,373068
653223006366746112,284921,279483,372971
653223006374184448,284848,279508,373006
653223006381622784,284730,279474,373029
653223006389061120,284774,279629,373148
653223006396499456,284898,279724,373154
653223006403937792,284801,279539,373103
653223006411376128,284834,279625,373233
653223006418814464,284903,279696,373233
653223006426252800,285036,279559,373118
653223006433691136,284972,279747,373282
653223006441129472,285049,279869,373333
653223006448567808,285106,279850,373456
653223006456006144,285085,279843,373303
653223006463444480,285153,279769,373391
653223006470882816,285055,279899,373432
653223006478321152,285144,279790,373568
653223006485790445,284889,279634,373345
653223006493226960,284977,279611,373576
653223006500663475,285061,279866,373671
653223006508099990,284964,279796,373614
653223006515536505,284984,279917,373572
653223006522973020,285162,279839,373570
653223006530409535,285123,279788,373524
653223006537846050,285123,279693,373417
653223006545282565,284997,279747,373199
653223006552719080,284910,279739,373244
653223006560155595,284917,279611,373107
653223006567592110,284756,279583,373011
653223006575028625,284727,279515,372832
653223006582465140,284512,279325,372792
653223006589901655,284627,279391,372810
653223006597338170,284455,279288,372530
653223006604774685,284363,279251,372258
653223006612211200,284316,279206,372254
653223006619616768,284282,279303,372258
653223006627055104,284259,279135,372187
653223006634493440,284251,279021,372102
653223006641931776,284131,278984,371915
653223006649370112,284117,278866,371751
653223006656808448,284023,278779,371755
653223006664246784,283838,278750,371652
653223006671685120,283824,278630,371576
653223006679123456,283889,278707,371371
653223006686561792,283752,278627,371327
653223006694000128,283752,278727,371389
653223006701438464,283685,278523,371341
653223006708876800,283757,278445,371287
653223006716315136,283658,278411,371137
653223006723753472,283608,278392,370974
653223006731191808,283545,278417,370916
653223006738630144,283515,278318,370791
653223006746068480,283518,278266,370798
653223006753568713,283325,278281,370894
653223006761003408,283401,278213,370805
653223006768438103,283446,278169,370853
653223006775872798,283330,278200,370838
653223006783307493,283389,278135,370731
653223006790742188,283371,278176,370680
653223006798176883,283326,278162,370676
653223006805611578,283312,278005,370675
653223006813046273,283350,278079,370723
653223006820480968,283312,278194,370663
653223006827915663,283292,277977,370553
653223006835350358,283309,278021,370603
653223006842785053,283244,277956,370574
653223006850219748,283281,278057,370572
653223006857654443,283265,278023,370570
653223006865089138,283196,278052,370535
653223006872523833,283262,278034,370574
653223006879958528,283175,278014,370435
653223006887362285,283127,278524,370407
653223006894798800,283157,278112,370549
653223006902235315,283103,278058,370467
653223006909671830,283160,278021,370539
653223006917108345,283194,278047,370570
653223006924544860,283217,278050,370541
653223006931981375,283237,278017,370542
653223006939417890,283194,278045,370604
653223006946854405,283154,277993,370550
653223006954290920,283308,277929,370512
653223006961727435,283386,277924,370574
653223006969163950,283327,277839,370519
653223006976600465,283360,278012,370711
653223006984036980,283356,278050,370665
653223006991473495,283410,278091,370724
653223006998910010,283216,278076,370711
653223007006346525,283322,278104,370768
653223007013783040,283259,278053,370691
653223007021219565,283353,277871,370649
653223007028656080,283351,277933,370695
653223007036092595,283442,278051,370736
653223007043529110,283339,277974,370819
653223007050965625,283438,278044,370913
653223007058402140,283386,278084,370942
653223007065838655,283559,278176,370922
653223007073275170,283535,278234,371008
653223007080711685,283469,278164,371043
653223007088148200,283469,278260,371045
653223007095584715,283463,278208,371180
653223007103021230,283561,278234,371143
653223007110457745,283507,278301,371151
653223007117894260,283568,278504,370987
653223007125330775,283597,278440,371067
653223007132767290,283541,278344,371148
653223007140203805,283724,278376,371260
653223007147640320,283641,278378,371379
653223007155045888,283815,278180,371221
653223007162484224,283806,278310,371386
653223007169922560,283710,278267,371518
653223007177360896,283854,278266,371502
653223007184799232,283882,278273,371505
653223007192237568,283947,278416,371626
653223007199675904,283902,278481,371707
653223007207114240,283978,278396,371791
653223007214552576,284041,278576,371940
653223007221990912,284017,278628,371897
653223007229429248,284070,278415,371915
653223007236867584,284112,278418,371990
653223007244305920,284128,278694,372020
653223007251744256,284104,278728,371888
653223007259182592,284056,278671,372005
653223007266620928,284006,278678,371872
653223007274059264,283891,278794,371968
653223007281497600,283941,278589,371804
653223007288935936,283827,278294,371587
653223007296374272,283865,278463,371514
653223007303812608,283800,278466,371636
653223007311250944,283812,278340,371516
653223007318689280,283621,278279,371310
653223007326127616,283677,278191,371216
653223007333565952,283488,278150,371144
653223007341004288,283500,278121,371184
653223007348442624,283514,277972,371027
653223007355880960,283438,277962,370870
653223007363319296,283340,277796,370798
653223007370757632,283300,277789,370703
653223007378195968,283327,277796,370541
653223007385634304,283262,277741,370403
653223007393072640,283200,277637,370403
653223007400510976,283111,277706,370450
653223007407949312,283059,277743,370411
653223007415387648,283120,277574,370331
653223007422887881,283319,277374,370219
653223007430322576,283084,277473,370233
653223007437757271,282988,277473,370252
653223007445191966,282891,277468,370278
653223007452626661,282819,277514,370172
653223007460061356,282865,277451,370195
653223007467496051,282831,277476,370090
653223007474930746,282717,277334,370082
653223007482365441,282783,277388,370131
653223007489800136,282779,277431,370228
653223007497234831,282695,277295,370207
653223007504669526,282609,277311,370223
653223007512104221,282527,277326,370105
653223007519538916,282592,277285,370130
653223007526973611,282522,277279,370181
653223007534408306,282490,277305,370115
653223007541843001,282504,277397,370184
653223007549277696,282537,277473,370155
653223007556619556,282416,277490,370283
653223007564059712,282482,277459,370378
653223007571499868,282352,277333,370316
653223007578940024,282481,277352,370397
653223007586380180,282450,277287,370312
653223007593820336,282531,277275,370393
653223007601260492,282452,277285,370404
653223007608700648,282487,277199,370334
653223007616140804,282475,277235,370368
653223007623580960,282512,277223,370383
653223007631021116,282459,277207,370325
653223007638461272,282504,277252,370290
653223007645901428,282388,277175,370301
653223007653341584,282424,277291,370440
653223007660781740,282422,277233,370384
653223007668221896,282348,277134,370339
653223007675662052,282352,277154,370244
653223007683102208,282512,277336,370454
653223007690604269,282286,277096,370184
653223007698040784,282442,277249,370297
653223007705477299,282565,277197,370228
653223007712913814,282647,277277,370311
653223007720350329,282674,277269,370403
653223007727786844,282717,277252,370375
653223007735223359,282624,277180,370481
653223007742659874,282778,277290,370468
653223007750096389,282761,277326,370709
653223007757532904,282807,277383,370769
653223007764969419,282677,277409,370703
653223007772405934,282759,277459,370740
653223007779842449,282747,277431,370874
653223007787278964,282746,277421,370887
653223007794715479,282762,277450,370936
653223007802151994,282837,277462,371036
653223007809588509,282795,277422,371250
653223007817025024,282858,277535,371206
653223007824430592,282675,277238,371454
653223007831868928,282755,277462,371400
653223007839307264,282796,277488,371325
653223007846745600,282965,277529,371325
653223007854183936,283039,277633,371394
653223007861622272,283019,277641,371341
653223007869060608,283045,277616,371535
653223007876498944,283081,277582,371481
653223007883937280,283110,277548,371512
653223007891375616,283189,277643,371572
653223007898813952,283132,277566,371685
653223007906252288,283105,277655,371862
653223007913690624,283076,277643,371919
653223007921128960,283156,277733,371872
653223007928567296,283142,277766,372075
653223007936005632,283139,277881,372056
653223007943443968,283188,277839,372255
653223007950882304,283291,277866,372254
653223007958351597,283418,278126,372356
653223007965788112,283294,277902,372262
653223007973224627,283191,277965,372238
653223007980661142,283238,277898,372306
653223007988097657,283269,277891,372303
653223007995534172,283215,277828,372196
653223008002970687,283246,277839,372071
653223008010407202,283209,277754,372001
653223008017843717,283087,277705,371896
653223008025280232,283028,277710,371853
653223008032716747,282964,277763,371759
653223008040153262,282961,277604,371721
653223008047589777,282925,277635,371589
653223008055026292,282736,277481,371401
653223008062462807,282765,277467,371333
653223008069899322,282676,277444,371276
653223008077335837,282584,277233,371144
653223008084772352,282587,277348,371080
653223008092177920,282845,277405,370982
653223008099616256,282606,277293,370984
653223008107054592,282477,277259,370986
653223008114492928,282396,277217,370899
653223008121931264,282573,277000,370509
653223008129369600,282416,277049,370621
653223008136807936,282336,276914,370552
653223008144246272,282260,277041,370598
653223008151684608,282151,277034,370542
653223008159122944,282266,276912,370593
653223008166561280,282309,277032,370721
653223008173999616,282190,276983,370569
653223008181437952,282128,276810,370569
653223008188876288,282104,276945,370392
653223008196314624,282125,276861,370395
653223008203752960,282188,276907,370505
653223008211191296,282142,276871,370491
653223008218629632,282034,276743,370500
653223008226129865,281864,276488,370435
653223008233564560,281988,276716,370365
653223008240999255,282063,276785,370564
653223008248433950,282049,276828,370585
653223008255868645,282118,276759,370471
653223008263303340,282011,276795,370512
653223008270738035,282081,276811,370617
653223008278172730,282118,276895,370629
653223008285607425,282199,276831,370389
653223008293042120,282080,276805,370475
653223008300476815,282094,276836,370441
653223008307911510,281997,276809,370461
653223008315346205,282031,276887,370557
653223008322780900,282074,276927,370585
653223008330215595,282098,276874,370603
653223008337650290,282000,276860,370552
653223008345084985,282037,276788,370621
653223008352519680,282049,276787,370598
653223008359954377,282453,277142,370429
653223008367389072,282338,277096,370514
653223008374823767,282074,276938,370594
653223008382258462,282033,276939,370595
653223008389693157,282026,276910,370709
653223008397127852,282085,276848,370651
653223008404562547,282138,276951,370608
653223008411997242,282219,276882,370524
653223008419431937,282211,276878,370720
653223008426866632,282230,277015,370846
653223008434301327,282253,276977,370794
653223008441736022,282303,276964,370908
653223008449170717,282146,276992,370936
653223008456605412,282228,276993,370843
653223008464040107,282141,277007,370876
653223008471474802,282131,277102,370907
653223008478909497,282183,277043,371073
653223008486344192,282449,277038,370997
653223008493686052,282386,277170,371349
653223008501126208,282461,277208,371380
653223008508566364,282469,277191,371361
653223008516006520,282507,277266,371445
653223008523446676,282543,277204,371446
653223008530886832,282558,277285,371462
653223008538326988,282486,277311,371460
653223008545767144,282555,277336,371572
653223008553207300,282579,277280,371582
653223008560647456,282556,277307,371441
653223008568087612,282585,277354,371641
653223008575527768,282700,277391,371784
653223008582967924,282737,277370,371728
653223008590408080,282723,277466,371930
653223008597848236,282706,277492,371949
653223008605288392,282764,277423,372018
653223008612728548,282845,277497,371937
653223008620168704,282905,277484,372020
653223008627670765,282930,277358,372314
653223008635107280,282939,277382,372294
653223008642543795,282891,277522,372416
653223008649980310,282905,277672,372343
653223008657416825,282995,277573,372311
653223008664853340,283064,277737,372358
653223008672289855,283113,277698,372387
653223008679726370,283051,277716,372543
653223008687162885,282949,277690,372619
653223008694599400,282983,277798,372505
653223008702035915,283118,277807,372677
653223008709472430,283169,277795,372691
653223008716908945,283130,277765,372519
653223008724345460,283055,277738,372501
653223008731781975,283154,277842,372500
653223008739218490,282909,277713,372309
653223008746655005,283070,277673,372308
653223008754091520,283007,277642,372291
653223008761528045,283112,277754,371977
653223008768964560,282979,277712,372038
653223008776401075,282865,277595,371866
653223008783837590,282802,277467,371890
653223008791274105,282676,277499,371803
653223008798710620,282698,277335,371629
653223008806147135,282582,277370,371644
653223008813583650,282528,277397,371707
653223008821020165,282420,277304,371446
653223008828456680,282443,277289,371446
653223008835893195,282393,277260,371475
653223008843329710,282415,277130,371320
653223008850766225,282457,277251,371386
653223008858202740,282402,277172,371274
653223008865639255,282341,277143,371270
653223008873075770,282210,277241,371141
653223008880512285,282307,277212,371126
653223008887948800,282196,277082,371049
653223008895416265,282409,276973,371220
653223008902850960,282217,276997,371015
653223008910285655,282162,277024,370979
653223008917720350,282101,276990,370921
653223008925155045,282159,276983,370924
653223008932589740,282158,277000,370861
653223008940024435,282156,276912,370724
653223008947459130,282139,276921,370787
653223008954893825,282184,276825,370904
653223008962328520,282117,276888,370896
653223008969763215,282142,276994,370941
653223008977197910,282046,276920,370880
653223008984632605,282040,276886,370899
653223008992067300,281942,276932,370838
653223008999501995,282043,276945,370904
653223009006936690,282181,276922,370965
653223009014371385,282130,276999,370891
653223009021806080,282154,277010,370910
653223009029178880,282336,277018,370588
653223009036617216,282218,276952,370656
653223009044055552,282188,276918,370747
653223009051493888,282216,276925,370934
653223009058932224,282202,277034,370959
653223009066370560,282226,276976,370872
653223009073808896,282106,277032,370950
653223009081247232,282085,276898,370948
653223009088685568,281974,276980,370927
653223009096123904,282066,276972,370881
653223009103562240,282034,277037,370918
653223009111000576,282060,277092,370926
653223009118438912,282210,277122,371157
653223009125877248,282217,277142,371036
653223009133315584,282171,277060,370967
653223009140753920,282309,277032,371012
653223009148192256,282340,277115,371122
653223009155630592,282327,277223,371171
653223009163037988,282457,276985,371351
653223009170478144,282413,277167,371390
653223009177918300,282333,277097,371229
653223009185358456,282476,277259,371221
653223009192798612,282491,277177,371183
653223009200238768,282471,277148,371335
653223009207678924,282452,277138,371289
653223009215119080,282484,277235,371490
653223009222559236,282476,277291,371509
653223009229999392,282380,277348,371461
653223009237439548,282617,277364,371447
653223009244879704,282658,277301,371538
653223009252319860,282612,277373,371636
653223009259760016,282562,277411,371792
653223009267200172,282479,277465,371912
653223009274640328,282475,277412,371931
653223009282080484,282674,277225,372159
653223009289520640,282562,277400,372040
653223009297022701,282274,277336,372257
653223009304459216,282607,277523,372191
653223009311895731,282795,277387,372148
653223009319332246,282875,277610,372218
653223009326768761,282855,277771,372180
653223009334205276,282890,277798,372347
653223009341641791,282883,277801,372366
653223009349078306,282981,277726,372411
653223009356514821,282952,277669,372397
653223009363951336,283025,277685,372391
653223009371387851,283026,277846,372466
653223009378824366,283028,277911,372615
653223009386260881,283121,277919,372671
653223009393697396,283105,277960,372740
653223009401133911,283211,278000,372842
653223009408570426,283111,277920,372788
653223009416006941,283162,278078,372979
653223009423443456,283223,278081,372943
653223009430879981,283537,277876,372637
653223009438316496,283393,277986,372852
653223009445753011,283350,278048,372876
653223009453189526,283370,278094,372877
653223009460626041,283332,278088,372961
653223009468062556,283421,278200,373051
653223009475499071,283330,278120,372825
653223009482935586,283260,278068,372812
653223009490372101,283261,278010,372606
653223009497808616,283195,278008,372613
653223009505245131,283196,277876,372728
653223009512681646,283074,277866,372511
653223009520118161,283094,277846,372393
653223009527554676,283028,277817,372315
653223009534991191,282915,277751,372346
653223009542427706,282785,277699,372047
653223009549864221,282823,277745,372020
653223009557300736,282876,277767,372169
653223009564706304,283008,277402,372212
653223009572144640,282886,277557,372049
653223009579582976,282871,277624,371943
653223009587021312,282824,277596,371964
653223009594459648,282650,277567,371869
653223009601897984,282699,277522,371761
653223009609336320,282686,277570,371741
653223009616774656,282694,277547,371677
653223009624212992,282676,277638,371692
653223009631651328,282592,277541,371621
653223009639089664,282465,277513,371646
6.53223E+17,282513,277488,371491
653223009653966336,282566,277499,371595
653223009661404672,282489,277409,371532
653223009668843008,282466,277403,371492
653223009676281344,282458,277338,371497
653223009683719680,282614,277516,371614
653223009691158016,282548,277555,371522
653223009698627309,282510,277354,371808
653223009706063824,282546,277352,371578
653223009713500339,282498,277552,371649
653223009720936854,282448,277553,371605
653223009728373369,282572,277569,371600
653223009735809884,282462,277631,371710
653223009743246399,282474,277527,371694
653223009750682914,282491,277568,371519
653223009758119429,282574,277531,371467
653223009765555944,282517,277557,371531
653223009772992459,282449,277516,371528
653223009780428974,282590,277509,371566
653223009787865489,282685,277612,371758
653223009795302004,282651,277545,371709
653223009802738519,282680,277683,371712
653223009810175034,282663,277604,371767
653223009817611549,282654,277635,371772
653223009825048064,282590,277693,371804
653223009832546486,282834,277760,371487
653223009839979360,282745,277799,371726
653223009847412234,282781,277745,371691
653223009854845108,282743,277704,371682
653223009862277982,282820,277665,371851
653223009869710856,282744,277703,371874
653223009877143730,282734,277706,371854
653223009884576604,282751,277690,371916
653223009892009478,282659,277676,371809
653223009899442352,282737,277665,371908
653223009906875226,282817,277787,372093
653223009914308100,282904,277791,372062
653223009921740974,282931,277788,372140
653223009929173848,282910,277727,372066
653223009936606722,282924,277788,372109
653223009944039596,282927,277841,372184
653223009951472470,283020,277953,372324
653223009958905344,282921,277999,372283
653223009966214436,282747,277802,372493
653223009973654592,283009,277925,372530
653223009981094748,283022,277957,372525
653223009988534904,283112,278102,372428
653223009995975060,283190,278159,372588
653223010003415216,283230,278143,372594
653223010010855372,283312,278150,372684
653223010018295528,283229,278105,372718
653223010025735684,283242,278120,372852
653223010033175840,283351,278204,372846
653223010040615996,283227,278196,372747
653223010048056152,283263,278260,372821
653223010055496308,283320,278259,372881
653223010062936464,283433,278307,373032
653223010070376620,283460,278426,373144
653223010077816776,283488,278411,373117
653223010085256932,283575,278358,373267
653223010092697088,283582,278507,373272
653223010100199149,283857,278684,373097
653223010107635664,283669,278602,373299
653223010115072179,283648,278585,373406
653223010122508694,283681,278627,373526
653223010129945209,283729,278621,373625
653223010137381724,283742,278723,373550
653223010144818239,283750,278703,373528
653223010152254754,283721,278627,373561
653223010159691269,283747,278692,373655
653223010167127784,283732,278760,373774
653223010174564299,283766,278747,373742
653223010182000814,283767,278754,373619
653223010189437329,283795,278719,373621
653223010196873844,283739,278720,373635
653223010204310359,283669,278651,373504
653223010211746874,283667,278633,373503
653223010219183389,283610,278635,373407
653223010226619904,283671,278557,373537
653223010233994532,283498,278212,373520
653223010241434688,283466,278416,373341
653223010248874844,283516,278445,373301
6.53223E+17,283552,278448,373230
653223010263755156,283483,278468,373088
653223010271195312,283465,278478,372987
653223010278635468,283367,278366,373020
653223010286075624,283345,278379,372957
653223010293515780,283357,278289,372777
653223010300955936,283259,278327,372880
653223010308396092,283239,278367,372815
653223010315836248,283242,278307,372743
653223010323276404,283162,278315,372724
653223010330716560,283061,278246,372633
653223010338156716,283190,278329,372679
653223010345596872,283020,278126,372658
653223010353037028,283081,278163,372731
653223010360477184,283108,278276,372654
653223010368010185,283092,277894,372533
653223010375444880,283240,278071,372459
653223010382879575,283175,278089,372532
653223010390314270,283190,278157,372531
653223010397748965,283140,278182,372583
653223010405183660,282984,278354,372588
653223010412618355,283007,278267,372530
653223010420053050,283108,278245,372598
653223010427487745,283001,278295,372619
653223010434922440,283063,278211,372476
653223010442357135,283077,278219,372469
653223010449791830,283148,278292,372783
653223010457226525,283182,278291,372632
653223010464661220,283052,278145,372691
653223010472095915,283105,278287,372680
653223010479530610,283110,278319,372731
653223010486965305,283179,278376,372757
6.53223E+17,283178,278227,372756
653223010501772800,283462,278308,372904
653223010509211136,283336,278293,372914
653223010516649472,283157,278315,372788
653223010524087808,283136,278223,372805
653223010531526144,283164,278340,372768
653223010538964480,283230,278239,372768
653223010546402816,283267,278286,372799
653223010553841152,283139,278285,372821
653223010561279488,283216,278364,372844
653223010568717824,283239,278386,372895
653223010576156160,283199,278368,372877
653223010583594496,283280,278334,372838
653223010591032832,283405,278338,372965
653223010598471168,283312,278411,372945
653223010605909504,283400,278427,373060
653223010613347840,283289,278383,373027
653223010620786176,283435,278482,373054
653223010628224512,283450,278530,373191
653223010635693805,283433,278291,373246
653223010643130320,283377,278468,373308
653223010650566835,283310,278600,373398
653223010658003350,283450,278605,373324
653223010665439865,283401,278681,373376
653223010672876380,283415,278713,373469
653223010680312895,283477,278693,373517
653223010687749410,283510,278742,373441
653223010695185925,283589,278706,373494
653223010702622440,283462,278761,373661
653223010710058955,283684,278717,373631
653223010717495470,283770,278857,373590
653223010724931985,283767,278895,373711
653223010732368500,283710,278756,373741
653223010739805015,283769,278770,373795
653223010747241530,283777,278887,373797
653223010754678045,283775,278898,373834
653223010762114560,283752,278957,373845
653223010769520128,284173,279091,374116
653223010776958464,283943,279092,374070
653223010784396800,284039,279086,374029
653223010791835136,284013,279114,374172
653223010799273472,284080,279219,374323
653223010806711808,284069,279263,374368
653223010814150144,284078,279219,374430
653223010821588480,284100,279177,374334
653223010829026816,284128,279130,374460
653223010836465152,284146,279285,374495
653223010843903488,284141,279270,374515
653223010851341824,284163,279358,374598
653223010858780160,284301,279274,374590
653223010866218496,284253,279406,374694
653223010873656832,284291,279417,374651
653223010881095168,284252,279543,374741
653223010888533504,284371,279443,374780
653223010895971840,284334,279429,374832
653223010903441133,284443,279438,374601
653223010910877648,284360,279412,374666
653223010918314163,284177,279367,374638
653223010925750678,284252,279401,374618
653223010933187193,284170,279399,374709
653223010940623708,284061,279237,374552
653223010948060223,284115,279263,374493
653223010955496738,284077,279270,374349
653223010962933253,283950,279236,374337
653223010970369768,283906,279182,374174
653223010977806283,283939,279272,374117
653223010985242798,283844,279202,374010
653223010992679313,283820,279170,374048
653223011000115828,283760,279149,373932
653223011007552343,283815,279081,373775
653223011014988858,283699,279132,373798
653223011022425373,283649,279007,373693
653223011029861888,283654,278933,373573
653223011037329353,283937,278704,373710
653223011044764048,283792,278859,373690
653223011052198743,283717,278905,373595
653223011059633438,283617,278928,373349
653223011067068133,283627,278896,373247
653223011074502828,283578,278950,373289
653223011081937523,283550,278894,373289
653223011089372218,283486,278890,373239
653223011096806913,283476,278900,373314
653223011104241608,283395,278848,373261
653223011111676303,283329,278798,373245
653223011119110998,283695,278440,373554
653223011126545693,283452,278709,373406
653223011133980388,283449,278764,373291
653223011141415083,283348,278848,373194
653223011148849778,283499,278825,373129
653223011156284473,283414,278877,373220
653223011163719168,283461,278873,373236
653223011171061028,283280,279108,372939
653223011178501184,283394,278972,373045
653223011185941340,283422,278963,373130
653223011193381496,283432,278942,372961
653223011200821652,283524,278900,373037
653223011208261808,283484,278920,373085
653223011215701964,283420,278916,373143
653223011223142120,283237,278787,373088
653223011230582276,283294,278864,373262
653223011238022432,283386,278909,373161
653223011245462588,283515,278979,373178
653223011252902744,283411,278947,373252
653223011260342900,283414,278968,373268
653223011267783056,283515,278972,373198
653223011275223212,283378,278967,373406
653223011282663368,283371,278955,373327
653223011290103524,283551,278952,373342
653223011297543680,283496,279051,373291
653223011305076681,283317,278824,373302
653223011312511376,283469,278938,373338
653223011319946071,283376,278930,373429
653223011327380766,283341,279011,373355
653223011334815461,283510,279047,373443
653223011342250156,283545,279047,373364
653223011349684851,283606,279054,373384
653223011357119546,283515,279130,373409
653223011364554241,283604,279099,373455
653223011371988936,283549,279092,373545
653223011379423631,283562,279161,373696
653223011386858326,283557,279163,373670
653223011394293021,283550,279171,373750
653223011401727716,283600,279244,373709
653223011409162411,283571,279215,373729
653223011416597106,283573,279210,373853
653223011424031801,283654,279253,373891
653223011431466496,283703,279317,373893
653223011438839296,283836,279502,373713
653223011446277632,283639,279255,373874
653223011453715968,283691,279291,374004
653223011461154304,283790,279288,374004
653223011468592640,283777,279296,373992
653223011476030976,283847,279351,374051
653223011483469312,283902,279340,374114
653223011490907648,283904,279435,374206
653223011498345984,283969,279461,374149
653223011505784320,283993,279531,374220
653223011513222656,284029,279590,374291
653223011520660992,283843,279555,374256
653223011528099328,283866,279573,374329
653223011535537664,283893,279644,374328
6.53223E+17,283967,279648,374376
653223011550414336,283976,279718,374530
653223011557852672,284158,279813,374686
653223011565291008,284111,279758,374730
653223011572791241,284415,280115,374736
653223011580225936,284302,279831,374835
653223011587660631,284197,279822,374841
653223011595095326,284337,279707,374732
653223011602530021,284204,279660,374782
653223011609964716,284222,279749,374850
653223011617399411,284199,279682,374880
653223011624834106,284195,279776,374901
653223011632268801,284299,279931,374831
653223011639703496,284236,279846,374718
653223011647138191,284117,279899,374567
653223011654572886,284143,279815,374527
653223011662007581,284068,279795,374586
653223011669442276,284006,279741,374440
653223011676876971,283960,279708,374408
653223011684311666,283967,279689,374265
653223011691746361,283911,279611,374157
653223011699181056,283921,279561,373997
653223011706522916,283699,279495,373777
653223011713963072,283553,279501,373709
653223011721403228,283608,279523,373699
653223011728843384,283555,279589,373683
653223011736283540,283602,279599,373481
653223011743723696,283547,279447,373403
653223011751163852,283359,279443,373328
653223011758604008,283467,279394,373347
653223011766044164,283307,279427,373310
653223011773484320,283207,279419,373203
653223011780924476,283271,279303,373143
653223011788364632,283293,279333,373154
653223011795804788,283206,279321,373075
653223011803244944,283114,279340,372956
653223011810685100,283056,279264,372927
653223011818125256,283143,279274,372976
653223011825565412,283089,279248,372800
653223011833005568,283093,279212,372784
653223011840538569,282987,278918,372835
653223011847973264,282944,279162,372733
653223011855407959,282981,279135,372760
653223011862842654,282945,279089,372783
653223011870277349,283007,279138,372757
653223011877712044,283062,279177,372668
653223011885146739,282798,278990,372594
653223011892581434,282985,279151,372652
653223011900016129,282832,279188,372553
653223011907450824,282832,279167,372484
653223011914885519,282877,279120,372594
653223011922320214,282921,279098,372577
653223011929754909,282965,279133,372545
653223011937189604,282920,279140,372568
653223011944624299,282953,279144,372672
653223011952058994,282843,279112,372629
653223011959493689,282828,279029,372537
653223011966928384,282904,279017,372566
653223011974301184,282977,278873,372798
653223011981739520,282905,279038,372722
653223011989177856,282925,279143,372631
653223011996616192,282970,279225,372517
653223012004054528,282892,279113,372488
653223012011492864,282934,279134,372567
653223012018931200,282970,279203,372632
653223012026369536,282803,279154,372614
653223012033807872,282833,279140,372601
653223012041246208,282877,279177,372691
653223012048684544,282864,279228,372587
653223012056122880,282919,279272,372551
653223012063561216,282887,279267,372684
653223012070999552,282867,279252,372601
653223012078437888,282926,279208,372646
653223012085876224,282923,279136,372640
653223012093314560,282992,279177,372717
653223012100752896,282981,279237,372727
653223012108222189,282907,279409,372774
653223012115658704,282983,279367,372854
653223012123095219,282947,279332,372933
653223012130531734,282953,279325,372860
653223012137968249,282994,279336,372887
653223012145404764,283122,279390,372935
653223012152841279,283196,279381,373000
653223012160277794,283075,279553,373026
653223012167714309,283049,279409,373030
653223012175150824,283029,279461,373016
653223012182587339,283160,279573,373162
653223012190023854,283233,279510,373215
653223012197460369,283207,279538,373282
653223012204896884,283240,279526,373318
653223012212333399,283281,279641,373408
653223012219769914,283356,279660,373510
653223012227206429,283382,279656,373410
653223012234642944,283454,279578,373496
653223012242079469,283437,279889,373342
653223012249515984,283323,279752,373414
653223012256952499,283357,279763,373622
653223012264389014,283497,279821,373692
653223012271825529,283367,279715,373749
653223012279262044,283521,279793,373826
653223012286698559,283494,279835,373817
653223012294135074,283506,279825,373808
653223012301571589,283481,279846,373756
653223012309008104,283610,279836,373989
653223012316444619,283688,279835,373953
653223012323881134,283667,279906,373894
653223012331317649,283717,279944,374061
653223012338754164,283732,280016,374095
653223012346190679,283755,280089,374124
653223012353627194,283711,280075,374175
653223012361063709,283730,280116,374146
653223012368500224,283713,280050,374033
653223012375936749,283759,279821,373754
653223012383373264,283742,279976,373769
653223012390809779,283670,279930,373681
653223012398246294,283598,279794,373490
653223012405682809,283564,279794,373594
653223012413119324,283540,279776,373482
653223012420555839,283483,279782,373441
653223012427992354,283408,279681,373367
653223012435428869,283251,279701,373264
653223012442865384,283214,279644,373186
653223012450301899,283190,279555,373055
653223012457738414,283162,279510,372973
653223012465174929,283088,279544,372897
653223012472611444,282948,279494,372838
653223012480047959,282882,279388,372752
653223012487484474,282925,279410,372686
653223012494920989,282846,279374,372537
653223012502357504,282928,279362,372469
653223012509794029,282674,279150,372528
653223012517230544,282562,279146,372350
653223012524667059,282548,279113,372328
653223012532103574,282419,279154,372220
653223012539540089,282442,279160,372204
653223012546976604,282432,279231,372117
653223012554413119,282342,279222,372052
653223012561849634,282271,279145,371971
653223012569286149,282319,279130,371988
653223012576722664,282287,279049,371979
653223012584159179,282197,279076,371922
653223012591595694,282341,279012,371868
653223012599032209,282334,279047,371906
653223012606468724,282374,278992,371715
653223012613905239,282271,279032,371741
653223012621341754,282326,279070,371797
653223012628778269,282295,279047,371837
653223012636214784,282337,278960,371704
653223012643620352,282239,279070,371467
653223012651058688,282204,278906,371587
653223012658497024,282191,278955,371716
653223012665935360,282163,278990,371708
653223012673373696,282182,278925,371752
653223012680812032,282252,278929,371641
653223012688250368,282296,278995,371625
653223012695688704,282261,278985,371679
653223012703127040,282150,278971,371698
653223012710565376,282155,278933,371582
653223012718003712,282175,278879,371643
653223012725442048,282228,278961,371763
653223012732880384,282141,278865,371560
653223012740318720,282113,278892,371606
653223012747757056,282085,278926,371548
653223012755195392,282160,278996,371597
653223012762633728,282151,278935,371528
653223012770072064,282193,278971,371747
653223012777541357,281907,278748,371753
653223012784977872,282069,278889,371687
653223012792414387,282258,279003,371841
653223012799850902,282062,278993,371765
653223012807287417,282079,279057,371906
653223012814723932,282145,279000,371894
653223012822160447,282198,279065,371934
653223012829596962,282273,279063,371921
653223012837033477,282207,279132,371879
653223012844469992,282218,279146,371933
653223012851906507,282333,279132,371950
653223012859343022,282351,279078,371984
653223012866779537,282338,279001,372039
653223012874216052,282370,279126,372054
653223012881652567,282310,279061,372104
653223012889089082,282378,279096,372042
653223012896525597,282337,279118,372016
653223012903962112,282361,279173,372186
653223012911398637,282135,279467,371967
653223012918835152,282292,279328,372131
653223012926271667,282439,279296,372151
653223012933708182,282362,279190,372283
653223012941144697,282313,279201,372432
653223012948581212,282520,279311,372526
653223012956017727,282559,279282,372511
653223012963454242,282563,279219,372437
653223012970890757,282482,279374,372488
653223012978327272,282579,279399,372620
653223012985763787,282623,279401,372608
653223012993200302,282558,279486,372471
653223013000636817,282697,279491,372615
653223013008073332,282654,279485,372869
653223013015509847,282670,279594,372958
653223013022946362,282729,279527,372975
653223013030382877,282780,279580,372849
653223013037819392,282825,279598,372849
653223013045286857,282876,279387,373000
653223013052721552,282940,279415,372974
653223013060156247,282948,279588,373037
653223013067590942,282855,279477,373152
653223013075025637,282832,279552,373173
653223013082460332,282886,279776,373186
653223013089895027,282931,279803,373249
653223013097329722,283002,279826,373367
653223013104764417,282851,279862,373312
653223013112199112,282972,279757,373337
653223013119633807,282540,279588,373389
653223013127068502,282665,279529,373095
653223013134503197,282785,279609,373107
653223013141937892,282886,279686,372997
653223013149372587,282779,279647,372822
653223013156807282,282714,279594,372806
653223013164241977,282698,279603,372730
653223013171676672,282433,279412,372566
653223013179018532,282429,279047,372313
653223013186458688,282339,279265,372244
653223013193898844,282236,279396,372238
6.53223E+17,282299,279317,372179
653223013208779156,282168,279221,372004
653223013216219312,282006,279336,372069
653223013223659468,282102,279202,371832
653223013231099624,282080,279217,371885
653223013238539780,281958,279133,371834
653223013245979936,281907,279036,371787
653223013253420092,281954,279062,371763
653223013260860248,281904,279117,371776
653223013268300404,281809,279093,371625
653223013275740560,281695,278878,371480
653223013283180716,281668,278973,371469
653223013290620872,281416,278857,371484
653223013298061028,281420,278764,371439
653223013305501184,281573,278852,371337
653223013312972288,281695,278716,371660
653223013320410624,281679,278809,371544
653223013327848960,281638,278808,371360
653223013335287296,281616,278858,371340
653223013342725632,281606,278888,371348
653223013350163968,281672,278840,371240
653223013357602304,281690,278878,371283
653223013365040640,281657,278855,371257
653223013372478976,281568,278754,371215
653223013379917312,281633,278672,371289
653223013387355648,281511,278813,371192
653223013394793984,281483,278736,371191
653223013402232320,281527,278743,371292
653223013409670656,281566,278756,371247
653223013417108992,281432,278720,371223
653223013424547328,281511,278790,371148
653223013431985664,281466,278809,371188
6.53223E+17,281451,278765,371273
653223013446924233,281697,278832,371446
653223013454358928,281575,278813,371475
653223013461793623,281541,278803,371376
653223013469228318,281588,278799,371434
653223013476663013,281541,278816,371333
653223013484097708,281529,278835,371260
653223013491532403,281491,278747,371403
653223013498967098,281603,278873,371426
653223013506401793,281616,278849,371400
653223013513836488,281529,278871,371451
653223013521271183,281509,278748,371410
653223013528705878,281495,278754,371286
653223013536140573,281515,278930,371363
653223013543575268,281490,278975,371459
653223013551009963,281595,278894,371598
653223013558444658,281539,278873,371659
653223013565879353,281577,278866,371495
653223013573314048,281511,278887,371504
653223013580686848,281702,278933,371542
653223013588125184,281593,279007,371689
653223013595563520,281699,278938,371726
653223013603001856,281755,279016,371849
653223013610440192,281590,278934,371951
653223013617878528,281535,279013,371921
653223013625316864,281754,279171,371988
653223013632755200,281774,279098,372006
653223013640193536,281827,278995,372025
653223013647631872,281873,279069,372039
653223013655070208,281841,279199,372178
653223013662508544,281851,278986,372153
653223013669946880,281870,279031,372122
653223013677385216,281829,279134,372235
653223013684823552,281810,279111,372298
653223013692261888,281970,279162,372391
653223013699700224,281953,279149,372432
653223013707138560,281992,279217,372390
653223013714607853,282014,279411,372435
653223013722044368,281978,279284,372279
653223013729480883,282197,279219,372365
653223013736917398,282107,279146,372494
653223013744353913,282011,279101,372522
653223013751790428,281974,279304,372659
653223013759226943,282100,279317,372642
653223013766663458,282192,279492,372806
653223013774099973,282141,279444,372792
653223013781536488,282128,279439,372941
653223013788973003,282337,279442,372987
653223013796409518,282321,279364,372935
653223013803846033,282173,279435,373042
653223013811282548,282341,279547,373092
653223013818719063,282294,279537,373158
653223013826155578,282318,279561,373134
653223013833592093,282394,279542,373117
653223013841028608,282408,279517,373008
653223013848434176,282214,279231,372891
653223013855872512,282271,279390,372952
653223013863310848,282259,279324,372778
653223013870749184,282265,279358,372757
653223013878187520,282142,279402,372637
653223013885625856,282103,279255,372601
653223013893064192,282145,279232,372394
653223013900502528,281874,279203,372326
653223013907940864,281836,279157,372179
653223013915379200,281766,279155,372163
653223013922817536,281743,279156,372043
653223013930255872,281716,279066,371860
653223013937694208,281650,278993,371815
653223013945132544,281560,278898,371585
653223013952570880,281439,278906,371561
653223013960009216,281400,278849,371476
653223013967447552,281296,278739,371361
653223013974885888,281220,278799,371342
653223013982386121,281591,278874,371118
653223013989820816,281313,278801,371268
653223013997255511,281136,278676,371171
653223014004690206,281072,278623,371149
653223014012124901,281042,278611,371133
653223014019559596,281055,278562,370893
653223014026994291,280707,278508,370808
653223014034428986,280876,278538,370810
653223014041863681,280841,278451,370702
653223014049298376,280838,278412,370682
653223014056733071,280780,278430,370768
653223014064167766,280683,278259,370736
653223014071602461,280632,278361,370749
653223014079037156,280730,278335,370758
653223014086471851,280667,278251,370634
653223014093906546,280651,278275,370559
653223014101341241,280662,278304,370526
653223014108775936,280602,278343,370632
653223014116148736,280846,278216,370397
653223014123587072,280709,278255,370447
653223014131025408,280587,278301,370348
653223014138463744,280586,278354,370480
653223014145902080,280567,278372,370443
653223014153340416,280452,278283,370544
653223014160778752,280521,278325,370513
653223014168217088,280535,278218,370497
653223014175655424,280545,278231,370470
653223014183093760,280457,278135,370513
653223014190532096,280495,278226,370446
653223014197970432,280554,278243,370440
653223014205408768,280478,278189,370350
653223014212847104,280525,278189,370310
653223014220285440,280544,278295,370449
653223014227723776,280521,278258,370469
653223014235162112,280512,278249,370492
653223014242600448,280343,278212,370512
653223014250069741,280365,277769,370281
653223014257506256,280445,278046,370456
653223014264942771,280451,278120,370552
653223014272379286,280334,278147,370529
653223014279815801,280398,278197,370605
653223014287252316,280513,278191,370614
653223014294688831,280492,278150,370648
653223014302125346,280547,278215,370726
653223014309561861,280528,278211,370746
653223014316998376,280507,278340,370656
653223014324434891,280518,278327,370763
653223014331871406,280657,278314,370754
653223014339307921,280638,278259,370793
653223014346744436,280586,278352,370844
653223014354180951,280655,278349,370785
653223014361617466,280674,278267,370858
653223014369053981,280707,278382,370901
653223014376490496,280756,278410,371049
653223014383896064,280744,278382,370942
653223014391334400,280671,278417,370976
653223014398772736,280640,278374,370997
653223014406211072,280582,278392,371054
653223014413649408,280729,278433,371183
653223014421087744,280826,278428,371328
653223014428526080,280890,278591,371275
653223014435964416,280824,278583,371335
653223014443402752,280816,278559,371304
653223014450841088,280860,278597,371292
653223014458279424,280983,278717,371395
653223014465717760,281004,278634,371406
653223014473156096,281048,278625,371524
653223014480594432,281126,278668,371543
653223014488032768,281047,278614,371499
653223014495471104,281057,278687,371673
653223014502909440,281098,278707,371693
653223014510347776,281027,278788,371700
653223014517878966,281290,278667,371455
653223014525311840,281174,278711,371701
653223014532744714,281071,278756,371782
653223014540177588,281209,278847,371956
653223014547610462,281265,278842,371856
653223014555043336,281369,278843,371894
653223014562476210,281319,278859,372061
653223014569909084,281313,278755,372035
653223014577341958,281300,278881,372192
653223014584774832,281375,278943,372161
653223014592207706,281374,279006,372034
653223014599640580,281381,278993,372173
653223014607073454,281333,278906,372074
653223014614506328,281289,278795,371990
653223014621939202,281315,278909,372005
653223014629372076,281156,278791,371797
653223014636804950,281101,278734,371741
653223014644237824,281116,278717,371597
653223014651546916,281294,278825,371303
653223014658987072,280958,278726,371236
653223014666427228,280874,278525,371129
653223014673867384,280759,278575,370999
653223014681307540,280691,278464,370799
653223014688747696,280601,278389,370839
653223014696187852,280564,278306,370670
653223014703628008,280460,278382,370458
653223014711068164,280356,278252,370535
653223014718508320,280202,278138,370332
653223014725948476,280133,278103,370276
653223014733388632,280136,278106,370177
653223014740828788,280075,278091,370219
653223014748268944,279990,277951,370102
653223014755709100,279978,277900,370001
653223014763149256,279970,277897,369807
653223014770589412,279912,277897,369823
653223014778029568,279829,277856,369807
653223014785531629,279849,277560,369805
653223014792968144,279678,277618,369669
653223014800404659,279584,277728,369526
653223014807841174,279691,277766,369569
653223014815277689,279798,277653,369496
653223014822714204,279552,277629,369281
653223014830150719,279589,277583,369228
653223014837587234,279453,277593,369302
653223014845023749,279452,277532,369286
653223014852460264,279357,277465,369139
653223014859896779,279344,277528,369176
653223014867333294,279364,277555,369242
653223014874769809,279264,277495,369050
653223014882206324,279334,277522,369139
653223014889642839,279266,277470,369211
653223014897079354,279390,277429,369174
653223014904515869,279357,277387,369102
653223014911952384,279319,277449,369137
653223014919327012,278955,277171,369176
653223014926767168,279092,277352,369151
653223014934207324,279157,277426,369097
653223014941647480,279185,277419,368956
653223014949087636,279227,277358,369055
653223014956527792,279049,277270,368997
653223014963967948,279082,277311,368947
653223014971408104,279054,277295,368910
653223014978848260,279210,277325,368937
653223014986288416,279086,277260,368899
653223014993728572,279253,277393,368919
653223015001168728,279151,277371,368980
653223015008608884,279294,277369,369030
653223015016049040,279251,277394,368936
653223015023489196,279173,277460,368982
653223015030929352,279221,277481,369074
653223015038369508,279181,277441,368951
653223015045809664,279240,277404,369038
653223015053342665,279618,277623,369254
653223015060777360,279361,277540,369174
653223015068212055,279368,277533,369213
653223015075646750,279362,277609,369150
653223015083081445,279276,277509,369166
653223015090516140,279371,277414,369205
653223015097950835,279328,277475,369159
653223015105385530,279257,277438,369080
653223015112820225,279269,277445,369205
653223015120254920,279333,277493,369341
653223015127689615,279337,277583,369456
653223015135124310,279317,277450,369381
653223015142559005,279426,277529,369475
653223015149993700,279456,277646,369517
653223015157428395,279484,277654,369532
653223015164863090,279366,277550,369550
653223015172297785,279475,277544,369632
653223015179732480,279386,277611,369634
653223015187105280,279529,277703,369872
653223015194543616,279572,277706,369874
653223015201981952,279629,277714,369816
653223015209420288,279701,277710,369877
653223015216858624,279647,277849,369908
653223015224296960,279596,277856,370073
653223015231735296,279685,277868,370061
653223015239173632,279787,277862,369992
653223015246611968,279881,277741,370137
653223015254050304,279887,277784,370168
653223015261488640,279700,277927,370351
653223015268926976,279809,277883,370297
653223015276365312,279907,277955,370304
653223015283803648,279857,277904,370286
653223015291241984,279931,278127,370304
653223015298680320,280092,277914,370367
653223015306118656,279969,278081,370356
653223015313556992,280021,278006,370349
653223015320995328,279788,277889,371049
653223015328433664,279950,277983,370790
6.53223E+17,280126,278105,370679
653223015343310336,280091,278208,370637
653223015350748672,280050,278109,370746
653223015358187008,280163,278123,370704
653223015365625344,280241,278127,370710
653223015373063680,280220,278264,370735
653223015380502016,280242,278313,370704
653223015387940352,280255,278257,370700
653223015395378688,280174,278277,370693
653223015402817024,280159,278320,370608
653223015410255360,280109,278226,370526
653223015417693696,280060,278222,370273
653223015425132032,280082,278159,370294
653223015432570368,280003,278031,370257
653223015440008704,279810,277887,370064
653223015447447040,279703,277866,369831
653223015454916333,279667,277893,370088
653223015462352848,279647,277850,369734
653223015469789363,279529,277839,369543
653223015477225878,279485,277733,369477
653223015484662393,279359,277678,369328
653223015492098908,279285,277587,369205
653223015499535423,279189,277604,369061
653223015506971938,279203,277527,369047
653223015514408453,279122,277344,368904
653223015521844968,279103,277438,368868
653223015529281483,278992,277394,368865
653223015536717998,278920,277326,368748
653223015544154513,278911,277287,368590
653223015551591028,278865,277219,368472
653223015559027543,278796,277209,368266
653223015566464058,278746,277158,368271
653223015573900573,278786,277260,368278
653223015581337088,278631,277084,368169
653223015588773613,278870,277147,367893
653223015596210128,278651,277092,368042
653223015603646643,278553,276981,368056
653223015611083158,278574,277067,368058
653223015618519673,278532,276934,367938
653223015625956188,278479,276964,368070
653223015633392703,278427,276913,367904
653223015640829218,278456,276963,367852
653223015648265733,278428,276896,367817
653223015655702248,278445,276884,367752
653223015663138763,278429,276947,367789
653223015670575278,278320,276894,367789
653223015678011793,278370,276877,367736
653223015685448308,278571,276836,367740
653223015692884823,278461,276746,367714
653223015700321338,278445,276812,367793
653223015707757853,278317,276920,367577
653223015715194368,278294,276812,367686
653223015722599936,278539,276522,367867
653223015730038272,278320,276842,367874
653223015737476608,278406,276809,367783
653223015744914944,278193,276691,367691
653223015752353280,278179,276737,367752
653223015759791616,278239,276632,367606
653223015767229952,278289,276724,367592
653223015774668288,278352,276814,367725
653223015782106624,278267,276777,367699
653223015789544960,278354,276878,367681
653223015796983296,278428,276938,367881
653223015804421632,278297,276876,367654
653223015811859968,278312,276885,367890
653223015819298304,278370,276873,367898
653223015826736640,278337,276720,367810
653223015834174976,278394,276758,367654
653223015841613312,278401,276895,367811
653223015849051648,278474,276844,367871
653223015856551881,278574,276933,367742
653223015863986576,278395,276892,367911
653223015871421271,278443,276824,367812
653223015878855966,278405,276817,367817
653223015886290661,278454,276760,367807
653223015893725356,278498,276900,367784
653223015901160051,278580,276874,368010
653223015908594746,278487,276868,367891
653223015916029441,278518,276924,368114
653223015923464136,278474,276891,368063
653223015930898831,278589,276960,368226
653223015938333526,278672,276877,368199
653223015945768221,278657,277125,368383
653223015953202916,278644,277085,368409
653223015960637611,278702,277165,368392
653223015968072306,278670,277139,368388
653223015975507001,278694,277147,368385
653223015982941696,278758,277148,368510
653223015990314496,279045,277357,368640
653223015997752832,278894,277250,368641
653223016005191168,278855,277339,368714
653223016012629504,278909,277375,368720
653223016020067840,278875,277343,368771
653223016027506176,278989,277368,368912
653223016034944512,279007,277322,368993
653223016042382848,278959,277258,368894
653223016049821184,279142,277325,369024
653223016057259520,279132,277470,368993
653223016064697856,279113,277440,369082
653223016072136192,279153,277396,369167
653223016079574528,279196,277387,369252
653223016087012864,279215,277326,369236
653223016094451200,279304,277484,369415
653223016101889536,279307,277539,369476
653223016109327872,279280,277531,369352
653223016116766208,279225,277552,369413
653223016124204544,279195,277251,369717
653223016131642880,279412,277433,369567
653223016139081216,279330,277570,369609
653223016146519552,279457,277694,369667
653223016153957888,279492,277609,369713
653223016161396224,279567,277729,369814
653223016168834560,279552,277687,369671
653223016176272896,279501,277647,369666
653223016183711232,279413,277678,369592
653223016191149568,279421,277684,369565
653223016198587904,279376,277625,369533
653223016206026240,279321,277561,369372
653223016213464576,279307,277505,369400
653223016220902912,279134,277490,369308
653223016228341248,279017,277482,369118
653223016235779584,279132,277431,369037
653223016243217920,278858,277378,368916
653223016250656256,278837,277285,368828
653223016258156489,278876,276980,368986
653223016265591184,278750,277091,368700
653223016273025879,278704,277167,368684
653223016280460574,278684,277061,368505
653223016287895269,278582,277019,368332
653223016295329964,278508,277095,368194
653223016302764659,278562,277052,368060
653223016310199354,278455,276961,367996
653223016317634049,278286,276912,367945
653223016325068744,278270,276846,367913
653223016332503439,278282,276757,367884
653223016339938134,278320,276734,367801
653223016347372829,278228,276714,367796
653223016354807524,278232,276642,367690
653223016362242219,278211,276617,367625
653223016369676914,278190,276589,367697
653223016377111609,278116,276557,367708
653223016384546304,278139,276670,367737
653223016391888164,278102,276807,367703
653223016399328320,278093,276741,367645
653223016406768476,278093,276736,367702
653223016414208632,278060,276657,367680
653223016421648788,277995,276714,367659
653223016429088944,278076,276687,367594
653223016436529100,278072,276676,367636
653223016443969256,278039,276673,367561
653223016451409412,278028,276652,367571
653223016458849568,278026,276486,367470
653223016466289724,278179,276501,367481
653223016473729880,278036,276459,367484
653223016481170036,277974,276595,367619
653223016488610192,278031,276600,367572
653223016496050348,277970,276541,367516
653223016503490504,277876,276594,367537
653223016510930660,278050,276576,367534
653223016518370816,278054,276588,367642
653223016525872877,277847,276325,367541
653223016533309392,277870,276477,367415
653223016540745907,277984,276585,367545
653223016548182422,278027,276539,367648
653223016555618937,278025,276521,367545
653223016563055452,278102,276545,367477
653223016570491967,277953,276567,367601
653223016577928482,277905,276431,367565
653223016585364997,277953,276545,367570
653223016592801512,278029,276649,367603
653223016600238027,278053,276660,367629
653223016607674542,277989,276609,367533
653223016615111057,278055,276572,367591
653223016622547572,278058,276628,367727
653223016629984087,278114,276677,367813
653223016637420602,278113,276764,367842
653223016644857117,278159,276655,367835
653223016652293632,278138,276630,367851
653223016659699200,278434,276828,367774
653223016667137536,278291,276800,367958
653223016674575872,278232,276777,368014
653223016682014208,278268,276796,368185
653223016689452544,278382,276785,368264
653223016696890880,278463,276802,368274
653223016704329216,278391,276873,368321
653223016711767552,278397,276857,368326
653223016719205888,278446,276823,368324
653223016726644224,278518,276816,368403
653223016734082560,278482,276861,368471
653223016741520896,278597,276931,368442
653223016748959232,278616,276980,368535
653223016756397568,278575,277012,368538
653223016763835904,278604,276941,368513
653223016771274240,278532,276952,368609
653223016778712576,278600,276990,368691
653223016786150912,278696,277052,368816
653223016793589248,278647,276965,369230
653223016801027584,278782,276972,369016
653223016808465920,278762,276983,368877
653223016815904256,278878,276993,368970
653223016823342592,278964,277082,368894
653223016830780928,278959,277029,368912
653223016838219264,279006,277164,369205
653223016845657600,278980,277205,369249
653223016853095936,278976,277343,369188
653223016860534272,279150,277352,369393
653223016867972608,279032,277369,369323
653223016875410944,279062,277347,369446
653223016882849280,279067,277420,369467
653223016890287616,279131,277462,369594
653223016897725952,279075,277392,369602
653223016905164288,279146,277512,369633
653223016912602624,279280,277540,369611
653223016920040960,279244,277585,369628
653223016927510253,279406,277722,369678
653223016934946768,279170,277646,369750
653223016942383283,279195,277556,369662
653223016949819798,279165,277580,369647
653223016957256313,279120,277441,369539
653223016964692828,279086,277491,369475
653223016972129343,279009,277395,369258
653223016979565858,279031,277434,369181
653223016987002373,278914,277300,369073
653223016994438888,278793,277236,368852
653223017001875403,278794,277189,368715
653223017009311918,278650,277149,368561
653223017016748433,278636,277191,368459
653223017024184948,278449,277067,368418
653223017031621463,278474,277030,368432
653223017039057978,278273,276942,368238
653223017046494493,278267,276933,368181
653223017053931008,278325,276809,368112
653223017061367533,278274,276755,367651
653223017068804048,278209,276608,367663
653223017076240563,278079,276653,367830
653223017083677078,278000,276702,367797
653223017091113593,277953,276707,367714
653223017098550108,277935,276587,367622
653223017105986623,277905,276643,367608
653223017113423138,277849,276455,367447
653223017120859653,277900,276568,367448
653223017128296168,277885,276520,367403
653223017135732683,277758,276587,367517
653223017143169198,277722,276478,367393
653223017150605713,277757,276516,367425
653223017158042228,277712,276579,367465
653223017165478743,277763,276497,367344
653223017172915258,277743,276446,367319
653223017180351773,277824,276472,367342
653223017187788288,277726,276469,367196
653223017195193856,277407,276111,367194
653223017202632192,277634,276233,367141
653223017210070528,277728,276321,366940
653223017217508864,277632,276434,367220
653223017224947200,277634,276477,367257
653223017232385536,277773,276457,367156
653223017239823872,277611,276370,367232
653223017247262208,277687,276417,367219
653223017254700544,277766,276396,367379
653223017262138880,277692,276417,367266
653223017269577216,277716,276380,367180
653223017277015552,277686,276204,367307
653223017284453888,277728,276391,367203
653223017291892224,277744,276391,367180
653223017299330560,277664,276262,367328
653223017306768896,277688,276281,367308
653223017314207232,277695,276356,367396
653223017321645568,277758,276317,367219
653223017329114861,277942,276202,367434
653223017336551376,277740,276335,367408
653223017343987891,277745,276357,367391
653223017351424406,277682,276348,367417
653223017358860921,277751,276363,367460
653223017366297436,277814,276484,367563
653223017373733951,277723,276390,367416
653223017381170466,277692,276398,367378
653223017388606981,277752,276426,367426
653223017396043496,277777,276492,367454
653223017403480011,277899,276392,367416
653223017410916526,277812,276504,367450
653223017418353041,277904,276556,367541
653223017425789556,277857,276553,367587
653223017433226071,277905,276645,367732
653223017440662586,277893,276523,367756
653223017448099101,278004,276587,367778
653223017455535616,278050,276561,367796
653223017462972141,278017,276809,367717
653223017470408656,278031,276772,367839
653223017477845171,278028,276592,367984
653223017485281686,278247,276694,368184
653223017492718201,278069,276712,368213
653223017500154716,278098,276739,368187
653223017507591231,278177,276797,368245
653223017515027746,278267,276824,368278
653223017522464261,278251,276895,368206
653223017529900776,278405,276897,368339
653223017537337291,278321,276815,368459
653223017544773806,278426,276814,368464
653223017552210321,278505,276860,368434
653223017559646836,278417,276793,368325
653223017567083351,278508,276949,368441
653223017574519866,278469,276973,368638
653223017581956381,278533,276988,368734
653223017589392896,278622,277063,368814
653223017596798464,278534,276899,368527
653223017604236800,278590,277109,368798
653223017611675136,278702,277035,368729
653223017619113472,278719,277144,368866
653223017626551808,278743,277156,369014
653223017633990144,278906,277107,368891
653223017641428480,278871,277176,369018
653223017648866816,278925,277115,369079
653223017656305152,278939,277256,369189
653223017663743488,278809,277176,369302
653223017671181824,278862,277275,369429
653223017678620160,278971,277376,369465
653223017686058496,278993,277405,369454
653223017693496832,279031,277386,369444
653223017700935168,279002,277357,369337
653223017708373504,279121,277410,369386
653223017715811840,279049,277263,369384
653223017723250176,278895,277545,369386
653223017730750409,279097,277447,369019
653223017738185104,278954,277358,369130
653223017745619799,278869,277342,369103
653223017753054494,278892,277220,368984
653223017760489189,278735,277088,368943
653223017767923884,278648,277096,368733
653223017775358579,278582,277089,368655
653223017782793274,278438,276996,368416
653223017790227969,278420,277026,368222
653223017797662664,278316,276865,368206
653223017805097359,278240,276888,368127
653223017812532054,278248,276918,367936
653223017819966749,278214,276842,367882
653223017827401444,278170,276702,367836
653223017834836139,278021,276672,367590
653223017842270834,277945,276642,367501
653223017849705529,277975,276526,367473
653223017857140224,277924,276486,367416
653223017864543981,277786,276451,367714
653223017871980496,277821,276473,367317
653223017879417011,277790,276516,367188
653223017886853526,277712,276470,367158
653223017894290041,277745,276315,366977
653223017901726556,277642,276235,366974
653223017909163071,277643,276242,366841
653223017916599586,277578,276210,366710
653223017924036101,277517,276265,366822
653223017931472616,277433,276272,366841
653223017938909131,277514,276276,366707
653223017946345646,277516,276254,366749
653223017953782161,277457,276197,366751
653223017961218676,277431,276168,366560
653223017968655191,277242,276162,366646
653223017976091706,277385,276117,366490
653223017983528221,277466,276116,366561
653223017990964736,277343,276171,366625
653223017998370304,277484,276374,366760
653223018005808640,277471,276301,366627
653223018013246976,277403,276241,366673
653223018020685312,277297,276160,366636
653223018028123648,277499,276203,366625
653223018035561984,277396,276133,366480
653223018043000320,277365,276088,366437
653223018050438656,277278,276059,366454
653223018057876992,277294,276113,366606
653223018065315328,277284,276152,366505
653223018072753664,277241,275979,366441
6.53223E+17,277321,276030,366472
653223018087630336,277303,275993,366388
653223018095068672,277316,276113,366381
653223018102507008,277257,276069,366405
653223018109945344,277267,276081,366431
653223018117383680,277344,276312,366607
653223018124822016,277411,276195,366679
653223018132260352,277509,276098,366646
653223018139698688,277479,275971,366465
653223018147137024,277338,275930,366479
653223018154575360,277290,276105,366625
653223018162013696,277385,276020,366496
653223018169452032,277347,275977,366673
653223018176890368,277465,276153,366678
653223018184328704,277494,276196,366767
653223018191767040,277489,276199,366836
653223018199205376,277516,276124,366727
653223018206643712,277521,276136,366804
653223018214082048,277397,276182,366883
653223018221520384,277521,276205,366995
653223018228958720,277518,276238,367033
653223018236397056,277600,276284,367086
653223018243835392,277546,276342,367066
653223018251273728,277631,276340,367105
653223018258712064,277690,276423,367194
653223018266150400,277890,276622,366938
653223018273588736,277838,276448,367134
653223018281027072,277740,276379,367289
653223018288465408,277736,276386,367407
653223018295903744,277819,276270,367204
653223018303342080,277764,276400,367357
653223018310780416,277952,276396,367494
653223018318218752,277932,276429,367486
653223018325657088,278011,276439,367425
653223018333095424,277974,276491,367669
653223018340533760,278023,276554,367744
653223018347972096,277933,276527,367720
653223018355410432,278018,276551,367694
653223018362848768,278011,276526,367755
653223018370287104,278110,276621,367855
653223018377725440,278087,276685,367828
653223018385163776,278146,276666,367810
653223018392602112,278106,276636,367957
653223018400071405,278242,276558,368239
653223018407507920,278211,276668,368167
653223018414944435,278353,276747,368176
653223018422380950,278377,276725,368364
653223018429817465,278393,276648,368305
653223018437253980,278490,276757,368321
653223018444690495,278473,276767,368264
653223018452127010,278470,276875,368239
653223018459563525,278497,276896,368520
653223018467000040,278564,276999,368609
653223018474436555,278602,277006,368623
653223018481873070,278656,277034,368642
653223018489309585,278659,277018,368574
653223018496746100,278633,277056,368489
653223018504182615,278655,277096,368530
653223018511619130,278566,276989,368439
653223018519055645,278581,277068,368521
653223018526492160,278479,276922,368409
653223018533928685,278687,276935,368425
653223018541365200,278532,276907,368248
653223018548801715,278369,276842,368216
653223018556238230,278284,276830,368097
653223018563674745,278106,276768,367984
653223018571111260,278061,276726,367875
653223018578547775,278042,276532,367657
653223018585984290,277932,276519,367502
653223018593420805,277859,276422,367263
653223018600857320,277893,276461,367275
653223018608293835,277863,276344,367026
653223018615730350,277724,276330,367044
653223018623166865,277676,276259,366986
653223018630603380,277508,276214,366778
653223018638039895,277455,276167,366738
653223018645476410,277529,276175,366712
653223018652912925,277371,276137,366538
653223018660349440,277421,276080,366417
653223018667755008,277068,275794,366494
653223018675193344,277188,275900,366350
653223018682631680,277184,275883,366273
653223018690070016,277216,275898,366248
653223018697508352,277091,275978,366198
653223018704946688,277016,275804,366148
653223018712385024,277049,275874,366128
653223018719823360,276959,275868,365998
653223018727261696,276937,275856,366124
653223018734700032,276967,275784,366018
653223018742138368,277061,275770,365947
653223018749576704,277027,275761,365916
653223018757015040,277080,275881,365925
653223018764453376,276984,275769,365812
653223018771891712,276931,275648,365740
653223018779330048,276977,275634,365806
653223018786768384,276982,275753,365882
653223018794206720,276910,275612,365824
653223018801645056,276907,275346,365740
653223018809083392,276847,275518,365763
653223018816521728,276879,275517,365787
653223018823960064,276847,275644,365722
653223018831398400,276928,275665,365746
653223018838836736,276973,275588,365655
653223018846275072,276966,275730,365808
653223018853713408,276901,275704,365678
653223018861151744,276999,275604,365812
653223018868590080,276913,275502,365617
653223018876028416,277014,275489,365664
653223018883466752,276895,275531,365601
653223018890905088,276996,275503,365698
653223018898343424,276989,275449,365663
653223018905781760,276898,275536,365752
653223018913220096,276885,275521,365805
653223018920658432,276931,275621,365920
653223018928096768,276989,275621,365929
653223018935597001,276833,275766,366077
653223018943031696,276879,275778,366043
653223018950466391,277064,275783,365970
653223018957901086,277024,275717,365882
653223018965335781,277054,275725,366033
653223018972770476,277081,275813,366049
653223018980205171,277040,275772,366056
653223018987639866,277075,275704,366050
653223018995074561,277165,275859,366207
653223019002509256,277017,275761,366047
653223019009943951,277038,275771,366085
653223019017378646,277174,275755,366291
653223019024813341,277232,275874,366308
653223019032248036,277242,275879,366344
653223019039682731,277288,275956,366309
653223019047117426,277249,275969,366301
653223019054552121,277327,275900,366443
653223019061986816,277404,275855,366507
653223019069359616,277558,276060,366461
653223019076797952,277316,275907,366517
653223019084236288,277443,275959,366550
653223019091674624,277487,276015,366587
653223019099112960,277482,275973,366614
653223019106551296,277649,276057,366744
653223019113989632,277668,276106,366868
653223019121427968,277655,276173,366865
653223019128866304,277641,276152,366938
653223019136304640,277668,276222,366997
653223019143742976,277699,276246,366989
653223019151181312,277739,276235,367071
653223019158619648,277662,276362,367140
653223019166057984,277734,276335,367177
653223019173496320,277823,276338,367107
653223019180934656,277770,276336,367266
653223019188372992,277918,276389,367346
653223019195811328,277955,276437,367379
653223019203280621,277608,276552,367271
653223019210717136,277868,276522,367454
653223019218153651,277991,276447,367427
653223019225590166,278125,276540,367545
653223019233026681,278157,276488,367487
653223019240463196,278005,276545,367622
653223019247899711,277991,276662,367779
653223019255336226,278148,276677,367738
653223019262772741,278126,276642,367830
653223019270209256,278091,276624,367923
653223019277645771,278075,276637,367986
653223019285082286,278298,276685,367872
653223019292518801,278308,276806,368050
653223019299955316,278228,276804,368092
653223019307391831,278332,276657,368137
653223019314828346,278296,276756,368032
653223019322264861,278291,276816,368040
653223019329701376,278314,276817,367990
653223019337076004,278617,276984,367853
653223019344516160,278369,276751,367731
653223019351956316,278255,276584,367527
653223019359396472,278240,276625,367520
653223019366836628,278187,276645,367482
653223019374276784,278087,276493,367362
653223019381716940,277945,276449,367299
653223019389157096,277887,276367,367017
653223019396597252,277815,276388,366995
653223019404037408,277732,276299,366773
653223019411477564,277685,276228,366837
653223019418917720,277650,276187,366545
653223019426357876,277581,276132,366605
653223019433798032,277483,275986,366446
653223019441238188,277311,276093,366326
653223019448678344,277229,275958,366260
653223019456118500,277203,275930,366291
653223019463558656,277150,275851,366190
653223019471091657,277296,275569,366097
653223019478526352,277271,275807,365962
653223019485961047,277219,275898,366022
653223019493395742,276996,275862,365965
653223019500830437,277054,275727,365799
653223019508265132,276938,275802,365754
653223019515699827,277016,275619,365863
653223019523134522,277027,275673,365879
653223019530569217,276963,275681,365765
653223019538003912,276993,275597,365664
653223019545438607,277002,275685,365793
653223019552873302,276928,275638,365755
653223019560307997,276964,275614,365712
653223019567742692,276898,275639,365709
653223019575177387,276960,275576,365790
653223019582612082,276891,275588,365560
653223019590046777,276911,275600,365732
653223019597481472,276920,275605,365617
653223019604854272,276909,275554,365858
653223019612292608,276961,275547,365871
653223019619730944,276823,275498,365706
653223019627169280,276840,275523,365671
653223019634607616,276879,275646,365709
653223019642045952,276902,275664,365647
653223019649484288,276967,275649,365589
653223019656922624,276839,275645,365508
653223019664360960,276874,275666,365611
653223019671799296,276880,275545,365586
653223019679237632,276812,275426,365591
653223019686675968,276916,275486,365541
653223019694114304,276934,275582,365462
653223019701552640,276928,275509,365578
653223019708990976,276874,275435,365617
653223019716429312,276945,275502,365518
653223019723867648,276854,275393,365578
653223019731305984,276702,275457,365610
653223019738744320,276885,275378,365408
653223019746182656,276770,275466,365605
653223019753620992,276860,275378,365732
653223019761059328,276925,275342,365709
653223019768497664,276920,275566,365790
6.53223E+17,276981,275653,365830
653223019783374336,277071,275559,365844
653223019790812672,276922,275528,365890
653223019798251008,277045,275672,365923
653223019805689344,277092,275689,365945
653223019813127680,276956,275646,366034
653223019820566016,277054,275771,365971
653223019828004352,277135,275629,366065
653223019835442688,277106,275732,366144
653223019842881024,277131,275715,366176
653223019850319360,277088,275751,366299
653223019857757696,277159,275715,366181
653223019865196032,277177,275757,366244
653223019872696265,277287,276014,366150
653223019880130960,277237,275951,366287
653223019887565655,277233,275948,366358
653223019895000350,277371,275947,366414
653223019902435045,277280,275919,366557
653223019909869740,277319,275903,366537
653223019917304435,277374,275779,366553
653223019924739130,277413,275881,366681
653223019932173825,277404,275903,366543
653223019939608520,277714,275994,366686
653223019947043215,277582,276014,366680
653223019954477910,277567,276061,366685
653223019961912605,277574,276084,366799
653223019969347300,277668,276089,366857
653223019976781995,277745,276169,366852
653223019984216690,277671,276115,367061
653223019991651385,277739,276258,367110
653223019999086080,277704,276232,367210
653223020006458880,278008,276353,367230
653223020013897216,278014,276289,367277
653223020021335552,277854,276256,367316
653223020028773888,277792,276233,367325
653223020036212224,277873,276224,367412
653223020043650560,277897,276306,367518
653223020051088896,277903,276339,367600
653223020058527232,277983,276345,367670
653223020065965568,277983,276403,367566
653223020073403904,277996,276352,367660
653223020080842240,278044,276381,367713
653223020088280576,278047,276437,367761
653223020095718912,278078,276391,367749
653223020103157248,278050,276437,367821
653223020110595584,278088,276414,367746
653223020118033920,278088,276265,367574
653223020125472256,277880,276291,367440
653223020132910592,277831,276320,367300
653223020140379885,277626,276072,367212
653223020147816400,277718,276068,367059
653223020155252915,277679,276090,366965
653223020162689430,277645,276166,366902
653223020170125945,277521,276089,366858
653223020177562460,277518,276083,366794
653223020184998975,277466,276009,366702
653223020192435490,277441,275940,366651
653223020199872005,277412,275887,366446
653223020207308520,277334,275867,366331
653223020214745035,277223,275922,366305
653223020222181550,277200,275774,366254
653223020229618065,277175,275704,366232
653223020237054580,277109,275749,366036
653223020244491095,277045,275754,366122
653223020251927610,277051,275670,365931
653223020259364125,277016,275603,366031
653223020266800640,276954,275607,365848
653223020274206208,276936,275872,365600
653223020281644544,276897,275617,365574
653223020289082880,276983,275497,365636
653223020296521216,276890,275619,365822
653223020303959552,276688,275497,365743
653223020311397888,276674,275483,365808
653223020318836224,276675,275579,365812
653223020326274560,276782,275539,365851
653223020333712896,276741,275487,365812
653223020341151232,276664,275513,365756
653223020348589568,276805,275486,365891
653223020356027904,276763,275542,365838
653223020363466240,276767,275502,365850
653223020370904576,276747,275480,365803
653223020378342912,276753,275418,365879
653223020385781248,276861,275452,365889
653223020393219584,276783,275485,365900
653223020400657920,276839,275379,365902
653223020408096256,276904,275627,365674
653223020415534592,276780,275529,365662
653223020422972928,276839,275548,365651
653223020430411264,276762,275472,365552
653223020437849600,276787,275392,365692
653223020445287936,276767,275427,365730
653223020452726272,276670,275423,365882
653223020460164608,276805,275304,365845
653223020467602944,276823,275276,365683
653223020475041280,276738,275351,365650
653223020482479616,276603,275307,365689
653223020489917952,276711,275401,365709
653223020497356288,276790,275487,365823
653223020504794624,276750,275381,365722
653223020512232960,276765,275359,365829
653223020519671296,276799,275413,365826
653223020527109632,276737,275407,365742
653223020534547968,276729,275377,365817
653223020542048201,276736,275506,366138
653223020549482896,276832,275514,366059
653223020556917591,276912,275499,366051
653223020564352286,276801,275633,366098
653223020571786981,276791,275639,366183
653223020579221676,276844,275591,366149
653223020586656371,276843,275601,366181
653223020594091066,276894,275583,366304
653223020601525761,276880,275629,366179
653223020608960456,276983,275679,366359
653223020616395151,276996,275663,366394
653223020623829846,277053,275713,366434
653223020631264541,277130,275667,366448
653223020638699236,277185,275625,366528
653223020646133931,277182,275680,366458
653223020653568626,277097,275722,366505
653223020661003321,277142,275738,366500
653223020668438016,277189,275841,366511
653223020675841773,277372,275733,366771
653223020683278288,277259,275809,366824
653223020690714803,277219,275737,366843
653223020698151318,277259,275817,366927
653223020705587833,277233,275834,366907
653223020713024348,277356,275874,366909
653223020720460863,277505,275927,367075
653223020727897378,277479,275949,367162
653223020735333893,277458,275861,367052
653223020742770408,277542,276031,367284
653223020750206923,277598,275979,367168
653223020757643438,277618,276026,367194
653223020765079953,277624,276029,367399
653223020772516468,277623,276058,367438
653223020779952983,277638,275999,367558
653223020787389498,277762,276162,367393
653223020794826013,277763,276170,367520
653223020802262528,277806,276272,367605
653223020809637156,277489,276400,367820
653223020817077312,277728,276264,367604
653223020824517468,277807,276260,367736
653223020831957624,277900,276307,367873
653223020839397780,277952,276276,367935
653223020846837936,277963,276306,367913
653223020854278092,277920,276193,367848
653223020861718248,277901,276209,367705
653223020869158404,277935,276224,367812
653223020876598560,277950,276226,367630
653223020884038716,277902,276149,367521
653223020891478872,277831,276225,367558
653223020898919028,277755,276119,367326
653223020906359184,277660,276100,367321
653223020913799340,277583,276109,367270
653223020921239496,277502,275884,367028
653223020928679652,277432,275885,367012
653223020936119808,277348,275919,366756
653223020943652809,277268,275690,366605
653223020951087504,277095,275703,366588
653223020958522199,277030,275682,366508
653223020965956894,277066,275686,366481
653223020973391589,276901,275594,366271
653223020980826284,277013,275587,366088
653223020988260979,276956,275487,366031
653223020995695674,276858,275290,365926
653223021003130369,276825,275320,365860
653223021010565064,276707,275397,365829
653223021017999759,276691,275351,365912
653223021025434454,276699,275368,365810
653223021032869149,276690,275419,365647
653223021040303844,276600,275350,365696
653223021047738539,276607,275322,365676
653223021055173234,276567,275312,365598
653223021062607929,276573,275173,365536
653223021070042624,276481,275220,365397
653223021077415424,276362,275412,365379
653223021084853760,276431,275297,365468
653223021092292096,276374,275243,365252
653223021099730432,276488,275168,365355
653223021107168768,276557,275196,365231
653223021114607104,276320,275168,365339
653223021122045440,276369,275027,365337
653223021129483776,276310,274988,365335
653223021136922112,276316,275016,365304
653223021144360448,276357,275052,365212
653223021151798784,276332,274976,365159
653223021159237120,276387,275059,365313
653223021166675456,276362,275098,365240
653223021174113792,276285,275134,365186
653223021181552128,276306,275064,365129
653223021188990464,276289,275044,365163
653223021196428800,276285,275021,365212
653223021203867136,276184,275089,365327
653223021211305472,276305,274785,365122
653223021218743808,276435,274857,365097
653223021226182144,276300,274898,365134
653223021233620480,276209,275081,365294
653223021241058816,276211,275112,365250
653223021248497152,276122,275086,365126
653223021255935488,276137,275095,365270
653223021263373824,276149,275020,365196
653223021270812160,276148,274969,365154
653223021278250496,276230,274942,365282
653223021285688832,276368,275028,365384
653223021293127168,276542,275072,365445
653223021300565504,276361,274975,365433
653223021308003840,276258,275049,365383
653223021315442176,276211,275053,365404
653223021322880512,276294,275047,365509
653223021330318848,276396,275110,365527
653223021337757184,276300,275158,365639
653223021345226477,276676,275191,365753
653223021352662992,276663,275093,365627
653223021360099507,276605,275109,365680
653223021367536022,276541,275237,365727
653223021374972537,276545,275326,365759
653223021382409052,276481,275100,365701
653223021389845567,276504,275231,365903
653223021397282082,276505,275221,365789
653223021404718597,276626,275300,365841
653223021412155112,276628,275296,365876
653223021419591627,276697,275338,365943
653223021427028142,276600,275460,365956
653223021434464657,276810,275397,365979
653223021441901172,276715,275304,366063
653223021449337687,276720,275298,366174
653223021456774202,276678,275287,366221
653223021464210717,276897,275393,366317
653223021471647232,276941,275502,366325
653223021479052800,276683,275521,366378
653223021486491136,276805,275550,366356
653223021493929472,276961,275441,366341
653223021501367808,277013,275515,366381
653223021508806144,277011,275590,366419
653223021516244480,276951,275603,366526
653223021523682816,277047,275630,366711
653223021531121152,277046,275654,366741
653223021538559488,277051,275699,366823
653223021545997824,277050,275664,366810
653223021553436160,277183,275704,367031
653223021560874496,277170,275721,366848
653223021568312832,277250,275787,367016
653223021575751168,277304,275758,367099
653223021583189504,277369,275877,367145
653223021590627840,277375,275913,367129
653223021598066176,277338,275878,367238
653223021605504512,277363,275889,367265
653223021612973805,277516,276128,367050
653223021620410320,277444,276003,366900
653223021627846835,277424,275863,366864
653223021635283350,277350,275850,366883
653223021642719865,277329,275753,366773
653223021650156380,277156,275750,366627
653223021657592895,277153,275605,366571
653223021665029410,277116,275454,366490
653223021672465925,277113,275469,366384
653223021679902440,276989,275501,366384
653223021687338955,276939,275517,366297
653223021694775470,276858,275349,366043
653223021702211985,276774,275297,365844
653223021709648500,276670,275154,365796
653223021717085015,276605,275178,365903
653223021724521530,276489,275159,365769
653223021731958045,276480,275124,365659
653223021739394560,276395,275140,365584
653223021746831085,276244,275250,365256
653223021754267600,276303,275017,365171
653223021761704115,276254,274992,365189
653223021769140630,276219,275018,365086
653223021776577145,276127,274832,364986
653223021784013660,276023,274746,364974
653223021791450175,275904,274758,364930
653223021798886690,275840,274656,364803
653223021806323205,275907,274612,364734
653223021813759720,275823,274617,364651
653223021821196235,275791,274543,364712
653223021828632750,275733,274497,364704
653223021836069265,275669,274565,364609
653223021843505780,275721,274503,364529
653223021850942295,275652,274545,364463
653223021858378810,275628,274467,364442
653223021865815325,275596,274397,364452
653223021873251840,275551,274427,364397
653223021880688365,275569,274687,364465
653223021888124880,275662,274482,364298
653223021895561395,275481,274478,364262
653223021902997910,275577,274347,364394
653223021910434425,275573,274465,364416
653223021917870940,275437,274431,364346
653223021925307455,275412,274464,364397
653223021932743970,275459,274404,364364
653223021940180485,275516,274361,364354
6.53223E+17,275424,274378,364429
653223021955053515,275484,274354,364341
653223021962490030,275406,274267,364237
653223021969926545,275502,274339,364226
653223021977363060,275484,274410,364363
653223021984799575,275512,274320,364286
653223021992236090,275459,274281,364150
653223021999672605,275467,274385,364263
653223022007109120,275442,274260,364275
653223022014514688,275422,274233,364130
653223022021953024,275523,274146,364248
653223022029391360,275555,274161,364164
653223022036829696,275536,274249,364366
653223022044268032,275413,274307,364388
653223022051706368,275467,274305,364367
653223022059144704,275538,274320,364463
653223022066583040,275501,274267,364392
653223022074021376,275543,274254,364449
653223022081459712,275582,274369,364462
653223022088898048,275417,274380,364404
653223022096336384,275530,274360,364526
653223022103774720,275651,274388,364565
653223022111213056,275668,274373,364498
653223022118651392,275649,274259,364544
653223022126089728,275582,274402,364644
653223022133528064,275613,274454,364767
653223022140966400,275645,274454,364824
653223022148466633,275777,274198,364841
653223022155901328,275663,274404,364865
653223022163336023,275762,274436,364813
653223022170770718,275789,274510,364971
653223022178205413,275684,274495,364973
653223022185640108,275719,274672,365002
653223022193074803,275757,274474,365029
653223022200509498,275657,274561,365045
653223022207944193,275791,274530,365099
653223022215378888,275692,274437,365084
653223022222813583,275945,274556,365202
653223022230248278,275969,274525,365208
653223022237682973,276012,274496,365314
653223022245117668,275947,274510,365180
653223022252552363,276068,274670,365303
653223022259987058,276021,274631,365362
653223022267421753,276079,274666,365454
653223022274856448,276064,274726,365348
653223022282198308,276073,274480,365507
653223022289638464,276167,274682,365587
653223022297078620,276216,274740,365599
653223022304518776,276233,274744,365655
653223022311958932,276280,274674,365692
653223022319399088,276268,274902,365813
653223022326839244,276278,274984,365944
653223022334279400,276214,274977,365865
653223022341719556,276346,274966,365896
653223022349159712,276351,275017,365999
653223022356599868,276506,275105,366105
653223022364040024,276520,275113,366136
653223022371480180,276520,275075,366232
653223022378920336,276570,275113,366175
653223022386360492,276522,275132,366148
653223022393800648,276504,275051,366200
653223022401240804,276454,275115,366188
653223022408680960,276340,275105,366226
653223022416213961,276689,275088,366107
653223022423648656,276549,275085,366036
653223022431083351,276375,275041,366043
653223022438518046,276337,274829,365765
653223022445952741,276295,274797,365561
653223022453387436,276143,274780,365498
653223022460822131,276177,274821,365371
653223022468256826,276034,274803,365401
653223022475691521,275839,274651,365191
653223022483126216,275895,274633,365033
653223022490560911,275651,274529,364934
653223022497995606,275720,274599,364984
653223022505430301,275765,274652,364838
653223022512864996,275667,274554,364647
653223022520299691,275548,274414,364685
653223022527734386,275502,274379,364622
653223022535169081,275417,274305,364501
653223022542603776,275276,274241,364252
653223022549976576,275297,274111,364096
653223022557414912,275321,274043,363923
653223022564853248,275241,274058,364045
653223022572291584,275230,274138,363973
653223022579729920,275248,274061,364056
653223022587168256,275116,274055,363970
653223022594606592,275094,274024,363883
653223022602044928,274981,274018,363793
653223022609483264,275021,273983,363759
653223022616921600,274837,273950,363767
653223022624359936,274933,273857,363593
653223022631798272,274850,273978,363711
653223022639236608,274888,273936,363589
653223022646674944,274879,273820,363591
653223022654113280,274941,273671,363496
653223022661551616,275045,273806,363429
653223022668989952,274830,273823,363488
653223022676428288,274725,273768,363434
653223022683897581,274860,273438,363484
653223022691334096,274819,273654,363468
653223022698770611,274831,273571,363367
653223022706207126,274855,273633,363314
653223022713643641,274800,273651,363341
653223022721080156,274701,273703,363382
653223022728516671,274753,273728,363401
653223022735953186,274796,273716,363322
653223022743389701,274820,273797,363324
653223022750826216,274747,273741,363433
653223022758262731,274709,273713,363411
653223022765699246,274718,273760,363477
653223022773135761,274631,273642,363427
653223022780572276,274684,273709,363311
653223022788008791,274800,273687,363458
653223022795445306,274826,273792,363383
653223022802881821,274796,273814,363397
653223022810318336,274770,273703,363453
653223022817723904,274732,274055,363219
653223022825162240,274866,273762,363336
653223022832600576,274920,273767,363408
653223022840038912,274791,273761,363486
653223022847477248,274669,273773,363579
653223022854915584,274775,273754,363724
653223022862353920,274800,273787,363691
653223022869792256,274976,273815,363666
653223022877230592,275003,273885,363688
653223022884668928,274984,274089,363846
653223022892107264,274862,273957,363904
653223022899545600,274923,273936,363918
653223022906983936,274889,273911,363939
653223022914422272,274934,273838,363951
653223022921860608,275003,273929,364056
653223022929298944,275039,273948,364041
653223022936737280,275076,273964,364054
653223022944175616,275184,274020,364016
653223022951675849,275283,274009,363979
653223022959110544,275303,274088,364126
653223022966545239,275166,273993,364167
653223022973979934,275254,273924,364038
653223022981414629,275233,274104,364248
653223022988849324,275269,274113,364287
653223022996284019,275374,274076,364209
653223023003718714,275318,274139,364329
653223023011153409,275464,274141,364247
653223023018588104,275430,274150,364411
653223023026022799,275489,274212,364510
653223023033457494,275508,274242,364636
653223023040892189,275565,274273,364739
653223023048326884,275415,274256,364775
653223023055761579,275422,274257,364916
653223023063196274,275580,274266,364894
653223023070630969,275571,274231,364791
653223023078065664,275539,274284,364923
653223023085438464,275593,274252,364803
653223023092876800,275686,274171,364828
653223023100315136,275822,274352,365043
653223023107753472,275787,274470,365138
653223023115191808,275731,274478,365130
653223023122630144,275799,274409,365295
653223023130068480,275799,274550,365323
653223023137506816,275908,274561,365282
653223023144945152,276028,274504,365469
653223023152383488,276066,274625,365607
653223023159821824,275931,274593,365656
653223023167260160,276025,274593,365486
653223023174698496,276029,274652,365514
653223023182136832,276028,274694,365451
653223023189575168,275982,274608,365472
653223023197013504,276018,274642,365442
653223023204451840,275895,274496,365266
653223023211890176,275880,274502,365337
653223023219359469,275703,274162,365159
653223023226795984,275753,274412,365180
653223023234232499,275756,274459,365038
653223023241669014,275709,274582,364973
653223023249105529,275576,274502,364698
653223023256542044,275415,274422,364714
653223023263978559,275450,274335,364645
653223023271415074,275377,274343,364578
653223023278851589,275405,274274,364359
653223023286288104,275374,274233,364316
653223023293724619,275284,274112,364253
653223023301161134,275133,274089,364260
653223023308597649,275185,274096,364114
653223023316034164,275030,274040,364076
653223023323470679,274977,273968,364077
653223023330907194,275018,273938,363796
653223023338343709,275036,273938,363909
653223023345780224,274856,273777,363820
653223023353185792,274853,273970,363871
653223023360624128,274898,273849,363633
653223023368062464,274804,273860,363674
653223023375500800,274862,273855,363647
653223023382939136,274810,273787,363564
653223023390377472,274699,273781,363699
653223023397815808,274935,273733,363696
653223023405254144,274900,273834,363630
653223023412692480,274809,273801,363732
653223023420130816,274877,273866,363714
653223023427569152,274834,273809,363619
653223023435007488,274833,273777,363613
653223023442445824,274810,273781,363557
653223023449884160,274776,273695,363473
653223023457322496,274729,273708,363578
653223023464760832,274733,273752,363474
653223023472199168,274803,273754,363665
653223023479637504,274819,273815,363717
653223023487106797,274742,273965,363845
653223023494543312,274731,273821,363697
653223023501979827,274752,273851,363546
653223023509416342,274743,273747,363584
653223023516852857,274736,273808,363616
653223023524289372,274698,273772,363658
653223023531725887,274706,273754,363671
653223023539162402,274831,273700,363739
653223023546598917,274784,273741,363611
653223023554035432,274726,273777,363590
653223023561471947,274714,273738,363507
653223023568908462,274746,273673,363621
653223023576344977,274833,273703,363628
653223023583781492,274834,273580,363639
653223023591218007,274929,273717,363734
653223023598654522,274838,273739,363792
653223023606091037,274794,273774,363802
653223023613527552,274897,273738,363807
653223023620995017,274750,273941,364066
653223023628429712,274854,273717,363928
653223023635864407,274943,273787,363949
653223023643299102,274952,273683,363973
653223023650733797,274956,273753,363985
653223023658168492,275070,273768,363883
653223023665603187,274974,273816,363924
653223023673037882,275023,273858,364118
653223023680472577,275105,273884,364177
653223023687907272,275083,273808,364195
653223023695341967,275108,273803,364126
653223023702776662,275139,273896,364349
653223023710211357,275177,273960,364359
653223023717646052,275091,274047,364231
653223023725080747,275125,273947,364257
653223023732515442,275211,274061,364485
653223023739950137,275292,274076,364563
653223023747384832,275282,273977,364538
653223023754757632,275222,273899,364387
653223023762195968,275290,274008,364602
653223023769634304,275351,274030,364717
653223023777072640,275444,274186,364849
653223023784510976,275380,274166,364632
653223023791949312,275459,274101,364825
653223023799387648,275440,274081,364887
653223023806825984,275617,274236,365040
653223023814264320,275535,274240,364952
653223023821702656,275540,274246,365053
653223023829140992,275613,274217,365035
653223023836579328,275611,274288,365179
653223023844017664,275596,274391,365159
6.53223E+17,275621,274405,365254
653223023858894336,275687,274426,365383
653223023866332672,275765,274288,365383
653223023873771008,275691,274473,365537
653223023881209344,275709,274530,365501
653223023888709577,275650,274656,365841
653223023896144272,275745,274573,365775
653223023903578967,275783,274543,365768
653223023911013662,275808,274607,365715
653223023918448357,275804,274542,365735
653223023925883052,275706,274613,365778
653223023933317747,275778,274523,365749
653223023940752442,275759,274564,365633
653223023948187137,275727,274426,365599
653223023955621832,275754,274477,365450
653223023963056527,275755,274443,365327
653223023970491222,275600,274259,365240
653223023977925917,275587,274291,365122
653223023985360612,275649,274325,365228
653223023992795307,275434,274238,364969
653223024000230002,275396,274284,365006
653223024007664697,275345,274267,364834
653223024015099392,275236,274053,364771
653223024022472192,275509,273924,364905
653223024029910528,275426,274037,364673
653223024037348864,275280,274061,364440
653223024044787200,275204,273967,364383
653223024052225536,275104,273979,364255
653223024059663872,275010,273977,364149
653223024067102208,274966,273947,364068
653223024074540544,274899,273860,364148
653223024081978880,274786,273813,364038
653223024089417216,274795,273872,364156
653223024096855552,274757,273742,363991
653223024104293888,274748,273739,363832
653223024111732224,274547,273711,363927
653223024119170560,274734,274008,363937
653223024126608896,274669,273880,363891
653223024134047232,274576,273791,363877
653223024141485568,274489,273671,363815
653223024148923904,274428,273762,363769
653223024156362240,274594,273474,363736
653223024163800576,274453,273534,363629
653223024171238912,274573,273670,363693
653223024178677248,274445,273625,363662
653223024186115584,274535,273546,363738
653223024193553920,274670,273604,363674
653223024200992256,274476,273576,363694
653223024208430592,274605,273631,363843
653223024215868928,274559,273644,363645
653223024223307264,274537,273627,363726
653223024230745600,274592,273691,363704
653223024238183936,274565,273512,363665
653223024245622272,274565,273575,363623
653223024253060608,274487,273626,363716
653223024260498944,274513,273694,363752
653223024267937280,274579,273663,363825
653223024275375616,274579,273600,363705
653223024282813952,274531,273617,363728
653223024290283245,274418,273825,363602
653223024297719760,274487,273652,363707
653223024305156275,274480,273653,363889
653223024312592790,274507,273603,363763
653223024320029305,274590,273525,363876
653223024327465820,274608,273555,363726
653223024334902335,274581,273507,363797
653223024342338850,274751,273690,363780
653223024349775365,274680,273693,363924
653223024357211880,274623,273634,363949
653223024364648395,274682,273697,363897
653223024372084910,274733,273704,364002
653223024379521425,274826,273819,364143
653223024386957940,274730,273797,364192
653223024394394455,274818,273819,364065
653223024401830970,274813,273769,364126
653223024409267485,274784,273815,364271
6.53223E+17,274935,273759,364239
653223024424140525,275132,273972,364437
653223024431577040,275082,273887,364463
653223024439013555,275059,273908,364345
653223024446450070,275054,273832,364274
653223024453886585,274963,273929,364489
653223024461323100,274959,273979,364538
653223024468759615,275030,273911,364640
653223024476196130,275030,273962,364752
653223024483632645,275083,274033,364784
653223024491069160,275161,273966,364765
653223024498505675,275163,274032,364933
653223024505942190,275243,273949,364856
653223024513378705,275218,273980,364786
653223024520815220,275356,274068,364963
653223024528251735,275212,274153,364974
653223024535688250,275220,274109,365014
653223024543124765,275339,274204,365107
653223024550561280,275345,274195,365175
653223024557966848,275641,274123,365141
653223024565405184,275517,274268,365339
653223024572843520,275380,274235,365378
653223024580281856,275478,274270,365450
653223024587720192,275471,274192,365493
653223024595158528,275446,274215,365612
653223024602596864,275600,274402,365718
653223024610035200,275654,274473,365608
653223024617473536,275581,274452,365732
653223024624911872,275613,274580,365827
653223024632350208,275651,274746,365940
653223024639788544,275759,274645,366003
653223024647226880,275827,274728,365986
653223024654665216,275910,274642,366000
653223024662103552,275987,274799,366058
653223024669541888,275944,274832,366161
653223024676980224,275885,274760,366094
653223024684418560,275844,274809,366100
653223024691918793,275710,274524,365941
653223024699353488,275805,274672,366192
653223024706788183,275830,274648,366042
653223024714222878,275915,274682,365946
653223024721657573,275733,274613,365935
653223024729092268,275606,274638,365873
653223024736526963,275604,274586,365749
653223024743961658,275665,274556,365568
653223024751396353,275612,274570,365567
653223024758831048,275581,274474,365469
653223024766265743,275470,274373,365365
653223024773700438,275419,274304,365197
653223024781135133,275314,274298,364984
653223024788569828,275262,274333,365022
653223024796004523,275078,274316,364855
653223024803439218,275108,274270,364817
653223024810873913,275145,274320,364734
653223024818308608,275092,274187,364671
653223024825743305,275004,273900,364599
6.53223E+17,275025,273978,364493
653223024840612695,274946,273899,364305
653223024848047390,274848,274019,364347
653223024855482085,274716,274052,364366
653223024862916780,274709,273979,364099
653223024870351475,274759,274027,364120
653223024877786170,274732,273935,364019
653223024885220865,274524,273950,364063
653223024892655560,274607,273972,364087
653223024900090255,274558,273885,364005
653223024907524950,274492,273857,363892
653223024914959645,274552,273816,363824
653223024922394340,274385,273764,363845
653223024929829035,274397,273767,363809
653223024937263730,274402,273679,363726
653223024944698425,274307,273775,363759
653223024952133120,274340,273668,363801
653223024959536877,274262,273434,363893
653223024966973392,274386,273614,363693
653223024974409907,274349,273668,363667
653223024981846422,274427,273690,363677
653223024989282937,274342,273619,363597
653223024996719452,274441,273714,363714
653223025004155967,274463,273716,363653
653223025011592482,274454,273808,363715
653223025019028997,274433,273682,363781
653223025026465512,274387,273659,363759
653223025033902027,274431,273691,363810
653223025041338542,274525,273770,363690
653223025048775057,274472,273673,363806
653223025056211572,274368,273623,363845
653223025063648087,274429,273790,363812
653223025071084602,274405,273788,363697
653223025078521117,274352,273772,363755
653223025085957632,274390,273568,363753
653223025093363200,274653,273774,363411
653223025100801536,274554,273773,363550
653223025108239872,274538,273799,363789
653223025115678208,274410,273778,363901
653223025123116544,274336,273776,363939
653223025130554880,274388,273758,363916
653223025137993216,274318,273742,363958
653223025145431552,274434,273561,363922
653223025152869888,274532,273629,364100
653223025160308224,274606,273739,364130
653223025167746560,274640,273768,364194
653223025175184896,274684,273751,364098
653223025182623232,274564,273744,364131
653223025190061568,274626,273839,364234
653223025197499904,274662,273772,364089
653223025204938240,274698,273829,364270
653223025212376576,274712,273914,364346
653223025219814912,274757,273763,364374
653223025227253248,274902,274038,363929
653223025234691584,274838,273950,364190
653223025242129920,274904,273945,364397
653223025249568256,274895,274017,364458
653223025257006592,275021,274040,364585
653223025264444928,274914,273989,364657
653223025271883264,275026,273925,364791
653223025279321600,275003,274049,364798
653223025286759936,275026,274075,364773
653223025294198272,274907,273970,365007
653223025301636608,275005,274055,364908
653223025309074944,274983,274070,364918
653223025316513280,275055,274180,365048
653223025323951616,275173,274271,365103
653223025331389952,275184,274250,365222
653223025338828288,275245,274314,365210
653223025346266624,275212,274202,365233
653223025353704960,275172,274305,365215
653223025361205193,275320,274583,365142
653223025368639888,275379,274536,365231
653223025376074583,275365,274560,365298
653223025383509278,275385,274523,365384
653223025390943973,275462,274488,365556
653223025398378668,275478,274582,365576
653223025405813363,275577,274562,365583
653223025413248058,275531,274656,365664
653223025420682753,275615,274574,365792
653223025428117448,275537,274702,365844
653223025435552143,275646,274754,365875
653223025442986838,275786,274707,365952
653223025450421533,275683,274678,365890
653223025457856228,275692,274685,366033
653223025465290923,275756,274759,366031
653223025472725618,275776,274740,366103
653223025480160313,275842,274792,366026
653223025487595008,275686,274751,365943
653223025494967808,276078,274986,365967
653223025502406144,275883,274869,365862
653223025509844480,275790,274916,365764
653223025517282816,275562,274762,365650
653223025524721152,275579,274662,365482
653223025532159488,275461,274663,365364
653223025539597824,275360,274479,365297
653223025547036160,275400,274516,365285
653223025554474496,275145,274481,365141
653223025561912832,275078,274337,364964
653223025569351168,275108,274333,365055
653223025576789504,275104,274311,364936
653223025584227840,275058,274315,364871
653223025591666176,274918,274342,364548
653223025599104512,274976,274379,364722
653223025606542848,274889,274153,364644
653223025613981184,274664,274152,364513
653223025621419520,274782,274185,364462
653223025628919753,274848,274264,364254
653223025636354448,274674,274196,364308
653223025643789143,274779,274192,364314
653223025651223838,274766,274068,364233
653223025658658533,274650,274101,364237
653223025666093228,274647,274031,364207
653223025673527923,274453,273953,364041
653223025680962618,274493,273938,363996
653223025688397313,274431,273982,363985
653223025695832008,274354,273860,363806
653223025703266703,274374,273883,363685
653223025710701398,274407,273847,363812
653223025718136093,274452,273948,363775
653223025725570788,274327,273849,363565
653223025733005483,274400,273840,363714
653223025740440178,274392,273767,363699
653223025747874873,274353,273810,363729
653223025755309568,274367,273785,363670
653223025762651428,274093,273610,364002
653223025770091584,274177,273789,363881
653223025777531740,274304,273834,363783
653223025784971896,274377,273843,363764
653223025792412052,274274,273810,363722
653223025799852208,274404,273833,363783
653223025807292364,274395,273850,363770
653223025814732520,274275,273784,363781
653223025822172676,274344,273781,363787
653223025829612832,274341,273748,363689
653223025837052988,274369,273738,363692
653223025844493144,274371,273839,363632
653223025851933300,274418,273801,363594
653223025859373456,274422,273922,363741
653223025866813612,274485,273973,363849
653223025874253768,274414,273964,363867
653223025881693924,274392,273891,363913
653223025889134080,274380,273843,363878
653223025896698038,274526,273585,363914
653223025904130912,274491,273799,363875
653223025911563786,274574,273866,363957
653223025918996660,274537,273769,364016
653223025926429534,274447,273785,364113
653223025933862408,274484,273896,364045
653223025941295282,274693,273985,364015
653223025948728156,274664,273930,363947
653223025956161030,274563,273955,363979
653223025963593904,274604,274065,364200
653223025971026778,274753,274058,364193
653223025978459652,274728,274134,364237
653223025985892526,274768,274083,364222
653223025993325400,274838,274192,364366
653223026000758274,274642,274087,364320
653223026008191148,274791,274146,364391
653223026015624022,274847,274190,364536
653223026023056896,274868,274219,364540
653223026030396928,274825,274170,364662
653223026037835264,274899,274068,364606
653223026045273600,275007,274098,364600
653223026052711936,274997,274089,364582
653223026060150272,275109,274184,364696
653223026067588608,275112,274272,364733
653223026075026944,275172,274280,364767
653223026082465280,275226,274368,364920
653223026089903616,275146,274366,364885
653223026097341952,275198,274885,365030
653223026104780288,275232,274624,365081
653223026112218624,275197,274441,365095
653223026119656960,275044,274393,365415
653223026127095296,275159,274508,365456
653223026134533632,275246,274616,365407
653223026141971968,275318,274544,365386
653223026149410304,275361,274624,365397
653223026156848640,275463,274666,365353
653223026164286976,275689,274237,365719
653223026171725312,275699,274557,365593
653223026179163648,275765,274665,365525
653223026186601984,275709,274727,365529
653223026194040320,275750,274770,365630
653223026201478656,275778,274870,365758
653223026208916992,275830,274889,365885
653223026216355328,275832,274975,365948
653223026223793664,275876,274921,365965
6.53223E+17,275749,275015,366009
653223026238670336,275789,275017,366035
653223026246108672,275793,274996,366038
653223026253547008,275849,275082,366203
653223026260985344,275883,275049,366171
653223026268423680,275904,275035,366238
653223026275862016,275866,275112,366149
653223026283300352,275942,275083,366108
653223026290738688,275875,274977,366011
653223026298207981,275657,275242,366000
653223026305644496,275749,275132,366017
653223026313081011,275617,274949,365736
653223026320517526,275674,274936,365710
653223026327954041,275651,274969,365616
653223026335390556,275724,274829,365609
653223026342827071,275735,274838,365254
653223026350263586,275591,274847,365276
653223026357700101,275548,274803,365274
653223026365136616,275446,274786,365121
653223026372573131,275356,274765,365175
653223026380009646,275325,274624,365098
653223026387446161,275287,274623,364945
653223026394882676,275263,274564,364807
653223026402319191,275287,274695,364711
653223026409755706,275216,274579,364763
653223026417192221,275169,274621,364646
653223026424628736,275135,274660,364739
653223026432065261,275032,274626,364638
653223026439501776,275041,274507,364528
653223026446938291,274984,274499,364592
653223026454374806,274970,274458,364461
653223026461811321,274994,274337,364450
653223026469247836,275100,274361,364384
653223026476684351,274996,274260,364312
653223026484120866,275037,274231,364309
653223026491557381,275001,274313,364269
653223026498993896,274981,274399,364312
653223026506430411,274903,274291,364245
653223026513866926,274932,274387,364213
653223026521303441,274890,274399,364225
653223026528739956,274934,274361,364320
653223026536176471,274937,274353,364399
653223026543612986,274973,274410,364350
653223026551049501,274986,274452,364343
653223026558486016,274962,274427,364226
653223026565922541,274710,274072,364080
653223026573359056,274708,274212,364203
653223026580795571,274854,274349,364306
653223026588232086,274900,274310,364304
653223026595668601,274889,274392,364373
653223026603105116,274987,274446,364376
653223026610541631,274962,274424,364399
653223026617978146,274936,274385,364322
653223026625414661,274931,274368,364384
653223026632851176,274977,274325,364449
653223026640287691,274975,274260,364466
653223026647724206,275023,274390,364405
653223026655160721,274945,274263,364410
653223026662597236,274925,274391,364455
653223026670033751,274811,274333,364383
653223026677470266,274872,274441,364423
653223026684906781,274928,274441,364506
653223026692343296,274970,274451,364466
653223026699748864,274830,274546,364302
653223026707187200,274977,274437,364468
653223026714625536,275021,274423,364586
653223026722063872,275095,274388,364593
653223026729502208,275197,274459,364682
653223026736940544,275129,274575,364763
653223026744378880,275162,274504,364643
653223026751817216,275274,274603,364820
653223026759255552,275228,274628,364870
653223026766693888,275352,274601,364883
653223026774132224,275355,274745,365023
653223026781570560,275315,274709,365002
653223026789008896,275311,274629,365006
653223026796447232,275287,274776,364951
653223026803885568,275380,274749,364928
653223026811323904,275508,274846,365130
653223026818762240,275527,274819,365268
653223026826200576,275451,274844,365287
653223026833700809,275211,274913,365220
653223026841135504,275561,274925,365219
653223026848570199,275496,274853,365407
653223026856004894,275717,274991,365410
653223026863439589,275759,274852,365444
653223026870874284,275707,274871,365519
653223026878308979,275663,274851,365565
653223026885743674,275723,275007,365552
653223026893178369,275806,275077,365602
653223026900613064,275779,275020,365772
653223026908047759,275761,275048,365765
653223026915482454,275914,275066,366016
653223026922917149,275858,275017,365926
653223026930351844,275857,275056,365978
653223026937786539,275990,275308,366051
653223026945221234,276064,275190,366090
653223026952655929,276037,275224,366136
653223026960090624,276144,275255,366266
653223026967494381,276392,275391,366123
653223026974930896,276212,275409,366265
653223026982367411,276365,275383,366294
653223026989803926,276197,275480,366441
653223026997240441,276214,275450,366524
653223027004676956,276238,275527,366705
653223027012113471,276379,275485,366835
653223027019549986,276452,275560,366753
653223027026986501,276550,275504,366726
653223027034423016,276472,275562,366735
653223027041859531,276362,275430,366696
653223027049296046,276451,275543,366720
653223027056732561,276482,275527,366630
653223027064169076,276400,275495,366627
653223027071605591,276367,275468,366546
653223027079042106,276233,275486,366533
653223027086478621,276179,275401,366329
653223027093915136,276210,275355,366180
653223027101351661,276099,275025,366295
653223027108788176,276127,275263,366084
653223027116224691,276102,275233,365977
653223027123661206,275957,275235,365832
653223027131097721,275910,275292,365746
653223027138534236,275726,275222,365660
653223027145970751,275769,275123,365629
653223027153407266,275824,275112,365607
653223027160843781,275784,275206,365487
653223027168280296,275717,275059,365294
653223027175716811,275676,274994,365285
653223027183153326,275662,275048,365262
653223027190589841,275552,274862,365268
653223027198026356,275557,274815,365279
653223027205462871,275551,274802,365190
653223027212899386,275600,274871,365027
653223027220335901,275471,274865,364906
653223027227772416,275393,274862,365028
653223027235147044,275205,274765,364888
653223027242587200,275418,274616,364766
653223027250027356,275380,274603,364686
653223027257467512,275489,274699,364864
653223027264907668,275432,274678,364978
653223027272347824,275442,274631,364852
653223027279787980,275460,274766,364970
653223027287228136,275521,274592,364831
653223027294668292,275543,274664,364826
653223027302108448,275463,274797,364952
653223027309548604,275459,274819,364853
653223027316988760,275449,274804,364821
653223027324428916,275502,274825,364832
653223027331869072,275426,274765,364892
653223027339309228,275530,274799,364806
653223027346749384,275385,274665,364878
653223027354189540,275357,274732,364953
653223027361629696,275485,274686,364950
653223027369131757,275201,274682,365118
653223027376568272,275388,274779,365004
653223027384004787,275350,274752,364919
653223027391441302,275402,274852,364969
653223027398877817,275401,274856,365025
653223027406314332,275415,274855,365118
653223027413750847,275395,274792,365008
653223027421187362,275437,274821,364919
653223027428623877,275481,274867,365007
653223027436060392,275521,274865,365020
653223027443496907,275576,274903,365066
653223027450933422,275532,274792,365124
653223027458369937,275489,274818,365054
653223027465806452,275566,274868,365156
653223027473242967,275565,274904,365184
653223027480679482,275632,274967,365264
653223027488115997,275538,274914,365275
653223027495552512,275567,274958,365400
653223027502989037,275903,274811,365495
653223027510425552,275888,274891,365492
653223027517862067,275783,275000,365542
653223027525298582,275902,274996,365379
653223027532735097,275851,275031,365458
653223027540171612,275740,275157,365536
653223027547608127,275731,275179,365651
653223027555044642,275823,275211,365760
653223027562481157,275894,275113,365828
653223027569917672,275929,275067,365688
653223027577354187,275893,275147,365789
653223027584790702,275851,275189,365868
653223027592227217,276045,275171,365971
653223027599663732,276060,275265,366094
