timestamp,ch1,ch2,ch3
653324727770211912,325218,268082,294197
653324727777653888,325235,268066,294204
653324727785095864,325190,268092,294196
653324727792537840,325178,268108,294211
653324727799979816,325185,268128,294145
653324727807421792,325198,268131,294194
653324727814863768,325186,268072,294265
653324727822305744,325137,268069,294307
653324727829747720,325146,267954,294340
653324727837189696,325102,268080,294264
653324727844631672,325245,268091,294358
653324727852073648,325163,267979,294416
653324727859515624,325148,268048,294385
653324727866957600,325180,268017,294413
653324727874399576,325168,268046,294442
653324727881841552,325167,268180,294242
653324727889283528,325135,268061,294209
653324727896725504,325035,268009,294138
653324727904415067,325357,267988,293950
653324727911842480,325116,268037,293970
653324727919269893,325523,268650,294598
653324727926697306,325277,268274,294211
653324727934124719,325173,268097,294053
653324727941552132,325149,268080,293994
653324727948979545,325084,268081,293982
653324727956406958,325052,267953,293875
653324727963834371,325140,268073,293824
653324727971261784,325024,267936,293731
653324727978689197,325052,267989,293692
653324727986116610,325115,268025,293655
653324727993544023,325128,267954,293549
653324728000971436,325004,267962,293569
653324728008398849,324957,267871,293543
653324728015826262,325059,267883,293544
653324728023253675,325041,267941,293556
653324728030681088,324970,267980,293514
653324728037860936,324842,268066,293703
653324728045302912,324874,267960,293674
653324728052744888,324846,267943,293547
653324728060186864,324900,268010,293549
653324728067628840,324927,267989,293680
653324728075070816,325007,268114,293882
653324728082512792,325065,268066,293915
653324728089954768,325194,268069,293942
653324728097396744,325151,268146,293955
653324728104838720,325182,268137,293935
653324728112280696,325118,268144,293984
653324728119722672,325187,268081,293879
653324728127164648,325140,268173,293870
653324728134606624,325197,268254,294083
653324728142048600,325263,268330,294133
653324728149490576,325391,268217,294232
653324728156932552,325495,268464,294318
653324728164374528,325524,268418,294469
653324728171940297,325555,268558,294441
653324728179374992,325755,268530,294691
653324728186809687,325921,268638,294985
653324728194244382,325823,268653,294996
653324728201679077,325810,268719,294925
653324728209113772,325959,268703,295102
653324728216548467,325885,268690,294905
653324728223983162,325890,268659,294851
653324728231417857,325980,268706,294806
653324728238852552,326235,269208,295446
653324728246287247,325923,268775,294870
653324728253721942,325831,268434,294649
653324728261156637,325834,268359,294509
653324728268591332,325868,268406,294739
653324728276026027,325900,268447,294917
653324728283460722,325805,268433,295055
653324728290895417,325889,268415,295205
653324728298330112,325935,268512,295272
653324728305764809,325902,268788,295079
653324728313199504,325774,268419,295106
653324728320634199,325796,268435,294831
653324728328068894,325742,268298,294761
653324728335503589,325549,268277,294513
653324728342938284,325573,268234,294278
653324728350372979,325606,268253,294299
653324728357807674,325624,268239,294209
653324728365242369,325488,268173,294045
653324728372677064,325335,268037,293918
653324728380111759,325260,268092,293827
653324728387546454,325366,268013,293946
653324728394981149,325342,267924,293790
653324728402415844,325436,267984,293694
653324728409850539,325361,268012,293543
653324728417285234,325639,267980,293551
653324728424719929,325491,267832,293504
653324728432154624,325407,267867,293358
653324728439589321,325778,267281,293535
653324728447024016,325434,267717,293202
653324728454458711,325275,267787,293222
653324728461893406,325326,267974,293151
653324728469328101,325375,268045,293181
653324728476762796,325385,268059,293105
653324728484197491,325293,268045,293138
653324728491632186,325202,268014,293063
653324728499066881,325310,268042,293214
653324728506501576,325214,268058,293293
653324728513936271,325267,268010,293376
653324728521370966,325461,267954,293462
653324728528805661,325530,268066,293557
653324728536240356,325530,267994,293615
653324728543675051,325294,267910,293792
653324728551109746,325507,268062,293858
653324728558544441,325663,268753,294678
653324728565979136,325591,268363,294371
653324728573290056,325830,268160,294373
653324728580732032,325644,268075,294289
653324728588174008,325674,268062,294225
653324728595615984,325612,268098,294251
653324728603057960,325590,268124,294214
653324728610499936,325736,268116,294257
653324728617941912,325615,268121,294269
653324728625383888,325662,268123,294317
653324728632825864,325715,268147,294326
653324728640267840,325787,268146,294349
653324728647709816,325698,268148,294194
653324728655151792,325755,268075,294278
653324728662593768,325823,268096,294168
653324728670035744,325839,268099,294018
653324728677477720,325846,268152,294132
653324728684919696,325821,267992,294007
653324728692361672,325758,268089,293982
653324728699803648,325758,268209,293955
653324728707369417,325613,267909,293811
653324728714804112,325726,268129,293862
653324728722238807,325758,268151,293720
653324728729673502,325771,268158,293625
653324728737108197,325842,268183,293524
653324728744542892,325799,268138,293620
653324728751977587,325940,268214,293516
653324728759412282,325951,268269,293501
653324728766846977,325919,268268,293387
653324728774281672,325872,268196,293244
653324728781716367,325891,268240,293073
653324728789151062,325847,268216,293159
653324728796585757,325798,268150,293156
653324728804020452,325764,268127,293108
653324728811455147,325856,268083,293094
653324728818889842,325880,268154,293063
653324728826324537,325820,268256,293148
653324728833759232,325881,268261,293268
653324728841317723,326125,268158,293126
653324728848745136,325990,268256,293297
653324728856172549,325871,268278,293509
653324728863599962,325958,268261,293489
653324728871027375,326003,268386,293587
653324728878454788,325998,269014,294227
653324728885882201,325897,268647,293914
653324728893309614,326010,268456,293732
653324728900737027,325981,268338,293585
653324728908164440,325930,268312,293575
653324728915591853,325955,268140,293623
653324728923019266,325831,268205,293529
653324728930446679,325899,268301,293482
653324728937874092,325893,268301,293440
653324728945301505,325912,268172,293431
653324728952728918,325847,268194,293503
653324728960156331,325915,268233,293358
653324728967583744,325935,268157,293362
653324728974639798,326105,268536,293199
653324728982089056,326078,268269,293406
653324728989538314,325996,268196,293375
653324728996987572,325939,268210,293488
653324729004436830,325950,268019,293470
653324729011886088,325748,268109,293164
653324729019335346,325729,268043,293095
653324729026784604,325719,268034,293136
653324729034233862,325765,267992,292990
653324729041683120,325702,268026,292888
653324729049132378,325679,267971,292881
653324729056581636,325765,267983,292913
653324729064030894,325671,267889,292986
653324729071480152,325655,267871,292804
653324729078929410,325597,267840,292856
653324729086378668,325614,267721,292848
653324729093827926,325454,267603,292788
653324729101277184,325560,267637,292726
653324729108974025,325717,267332,292704
653324729116408720,325532,267490,292732
653324729123843415,325440,267555,292679
653324729131278110,325441,267602,292746
653324729138712805,325431,267393,292642
653324729146147500,325424,267437,292648
653324729153582195,325314,267497,292621
653324729161016890,325323,267526,292594
653324729168451585,325285,267433,292730
653324729175886280,325356,267414,292686
653324729183320975,325342,267330,292691
653324729190755670,325212,267375,292607
653324729198190365,325343,268095,293296
653324729205625060,325294,267723,292966
653324729213059755,325184,267523,292668
653324729220494450,325181,267379,292760
653324729227929145,325094,267391,292739
653324729235363840,325218,267440,292777
653324729242922331,325384,267543,292479
653324729250349744,325199,267341,292502
653324729257777157,325092,267319,292581
653324729265204570,325245,267443,292693
653324729272631983,325123,267405,292681
653324729280059396,325150,267397,292760
653324729287486809,325053,267239,292588
653324729294914222,324980,267238,292610
653324729302341635,324936,267268,292633
653324729309769048,324975,267284,292694
653324729317196461,324931,267270,292584
653324729324623874,325016,267229,292456
653324729332051287,324961,267208,292544
653324729339478700,324987,267185,292565
653324729346906113,324925,267233,292562
653324729354333526,325001,267168,292636
653324729361760939,325031,267206,292722
653324729369188352,324978,267268,292755
653324729376368200,325358,267392,292511
653324729383810176,325110,267250,292649
653324729391252152,325101,267280,292705
653324729398694128,325062,267191,292837
653324729406136104,324969,267293,292973
653324729413578080,324982,267315,292940
653324729421020056,324981,267325,292994
653324729428462032,324995,267356,293135
653324729435904008,325047,267261,293067
653324729443345984,325068,267316,293039
653324729450787960,325031,267415,293077
653324729458229936,325023,267350,293087
653324729465671912,324992,267434,293184
653324729473113888,325008,267475,293104
653324729480555864,325001,267507,293207
653324729487997840,324944,267414,293294
653324729495439816,324934,267467,293437
653324729502881792,324972,267519,293562
653324729510323784,324987,267770,293723
653324729517765760,325333,268353,294470
653324729525207736,325232,268005,294079
653324729532649712,325150,267866,293875
653324729540091688,325133,267730,293811
653324729547533664,325125,267795,293808
653324729554975640,325086,267713,293808
653324729562417616,325098,267656,293839
653324729569859592,325156,267676,293865
653324729577301568,325207,267669,293809
653324729584743544,325096,267656,293779
653324729592185520,325043,267493,293847
653324729599627496,325077,267571,293860
653324729607069472,325042,267588,293929
653324729614511448,325081,267523,293916
653324729621953424,324995,267558,293999
653324729629395400,325069,267530,293964
653324729636837376,325052,267584,294026
653324729644526939,325018,267310,293824
653324729651954352,324943,267355,293713
653324729659381765,324958,267460,293792
653324729666809178,324911,267445,293780
653324729674236591,324936,267442,293847
653324729681664004,325007,267379,293851
653324729689091417,324863,267427,293803
653324729696518830,325079,267382,293848
653324729703946243,325035,267543,293662
653324729711373656,324953,267580,293700
653324729718801069,324962,267479,293742
653324729726228482,324957,267432,293807
653324729733655895,324750,267313,293676
653324729741083308,324752,267151,293670
653324729748510721,324701,267128,293716
653324729755938134,324729,267280,293609
653324729763365547,324608,267258,293482
653324729770792960,324546,267082,293489
653324729778096585,324645,266886,293584
653324729785531280,324447,266934,293649
653324729792965975,324298,266848,293574
653324729800400670,324165,266815,293655
653324729807835365,324160,266850,293586
653324729815270060,324175,266833,293634
653324729822704755,323957,266726,293569
653324729830139450,324091,266681,293476
653324729837574145,324076,267346,294238
653324729845008840,324059,266927,294024
653324729852443535,324012,266694,293690
653324729859878230,323949,266662,293554
653324729867312925,323823,266646,293596
653324729874747620,323826,266570,293499
653324729882182315,323820,266636,293523
653324729889617010,323750,266509,293426
653324729897051705,323734,266537,293486
653324729904486400,323573,266521,293432
653324729911797320,323377,266204,293625
653324729919239296,323354,266218,293492
653324729926681272,323332,266376,293332
653324729934123248,323420,266358,293324
653324729941565224,323410,266233,293313
653324729949007200,323447,266206,293370
653324729956449176,323353,266253,293393
653324729963891152,323281,266300,293194
653324729971333128,323264,266220,293121
653324729978775104,323343,266271,293327
653324729986217080,323240,266177,293208
653324729993659056,323159,266152,293283
653324730001101032,323205,266279,293357
653324730008543008,323191,266175,293442
653324730015984984,323210,266078,293290
653324730023426960,323197,266151,293366
653324730030868936,323068,266132,293189
653324730038310912,323015,266113,293188
653324730045876681,322901,266125,293053
653324730053311376,322892,266116,293153
653324730060746071,322942,265994,293244
653324730068180766,322903,265978,293264
653324730075615461,322762,265962,293136
653324730083050156,322762,265964,293221
653324730090484851,322840,265921,293293
653324730097919546,322737,265994,293159
653324730105354241,322574,266007,292953
653324730112788936,322660,265980,292885
653324730120223631,322515,265961,292890
653324730127658326,322610,265987,292969
653324730135093021,322611,266011,292858
653324730142527716,322602,266055,292826
653324730149962411,322939,265999,292789
653324730157397106,322772,266553,293552
653324730164831801,322541,266288,293117
653324730172266496,322567,266061,292813
653324730179701193,322567,265796,292806
653324730187135888,322513,265892,292835
653324730194570583,322502,265916,292779
653324730202005278,322559,265848,292812
653324730209439973,322542,265842,292810
653324730216874668,322738,265847,292588
653324730224309363,322591,265912,292476
653324730231744058,322495,265892,292491
653324730239178753,322483,265911,292644
653324730246613448,322503,265909,292632
653324730254048143,322512,265878,292587
653324730261482838,322416,265806,292508
653324730268917533,322473,265996,292519
653324730276352228,322422,265877,292497
653324730283786923,322331,265809,292525
653324730291221618,322331,265903,292346
653324730298656313,322416,265966,292443
653324730306091008,322402,265887,292359
653324730313401928,322347,266153,292133
653324730320843904,322368,266000,292374
653324730328285880,322234,265758,292323
653324730335727856,322269,265845,292325
653324730343169832,322392,265926,292374
653324730350611808,322333,265871,292278
653324730358053784,322200,265878,292221
653324730365495760,322140,265795,292212
653324730372937736,322176,265884,292237
653324730380379712,322265,265647,292247
653324730387821688,322361,265767,292276
653324730395263664,322465,265868,292206
653324730402705640,322385,265776,292190
653324730410147616,322415,265861,292142
653324730417589592,322370,265834,292116
653324730425031568,322153,265848,292124
653324730432473544,322283,266013,292165
653324730439915520,322311,265867,292072
653324730447481289,322045,265678,291932
653324730454915984,322206,265751,292039
653324730462350679,322222,265727,291973
653324730469785374,322276,265757,292013
653324730477220069,322180,266431,292593
653324730484654764,322115,265953,292199
653324730492089459,322101,265719,291907
653324730499524154,322085,265624,291848
653324730506958849,322012,265611,291697
653324730514393544,321907,265471,291659
653324730521828239,321817,265392,291550
653324730529262934,321792,265415,291550
653324730536697629,322230,265370,291347
653324730544132324,321987,265330,291468
653324730551567019,321852,265214,291430
653324730559001714,321636,265156,291298
653324730566436409,321623,265091,291171
653324730573871104,321509,265256,291099
653324730581305801,321778,265376,291128
653324730588740496,321564,265261,291115
653324730596175191,321537,265260,291257
653324730603609886,321420,265102,291056
653324730611044581,321416,265134,291090
653324730618479276,321281,265079,290943
653324730625913971,321329,265102,290933
653324730633348666,321161,265002,290915
653324730640783361,321205,264743,290983
653324730648218056,321184,264818,290867
653324730655652751,321273,264880,291104
653324730663087446,321207,264938,290876
653324730670522141,321134,264901,290903
653324730677956836,321136,264880,290776
653324730685391531,321033,264967,290760
653324730692826226,321126,264949,290840
653324730700260921,321017,264886,290753
653324730707695616,321072,264776,290828
653324730715130313,320844,264837,290942
653324730722565008,320974,265006,290945
653324730729999703,320837,264859,290715
653324730737434398,320971,264901,290656
653324730744869093,320980,264898,290717
653324730752303788,320922,264881,290784
653324730759738483,320832,264792,290632
653324730767173178,320832,264825,290748
653324730774607873,320827,264832,290716
653324730782042568,320963,264832,290646
653324730789477263,320967,264735,290610
653324730796911958,320888,265367,291330
653324730804346653,320882,265045,290807
653324730811781348,320822,264858,290578
653324730819216043,320780,264636,290504
653324730826650738,320785,264696,290502
653324730834085433,320780,264776,290625
653324730841520128,320717,264719,290614
653324730848954825,320462,264811,290104
653324730856389520,321305,264829,290469
653324730863824215,321155,264829,290497
653324730871258910,320888,264807,290448
653324730878693605,320851,264762,290514
653324730886128300,320690,264756,290512
653324730893562995,320763,264769,290468
653324730900997690,320894,264814,290529
653324730908432385,320934,264835,290602
653324730915867080,320966,264812,290633
653324730923301775,320784,264718,290422
653324730930736470,320872,264760,290521
653324730938171165,320931,264762,290502
653324730945605860,320895,264833,290475
653324730953040555,320937,264749,290533
653324730960475250,320928,264779,290526
653324730967909945,320800,264753,290506
653324730975344640,320916,264830,290696
653324730982655560,320904,264782,290360
653324730990097536,320913,264750,290621
653324730997539512,320918,264823,290562
653324731004981488,320904,264747,290662
653324731012423464,320884,264802,290576
653324731019865440,320925,264792,290604
653324731027307416,320841,264643,290617
653324731034749392,320889,264732,290674
653324731042191368,320854,264742,290586
653324731049633344,320916,264875,290672
653324731057075320,321031,264737,290566
653324731064517296,320943,264827,290596
653324731071959272,320903,264761,290645
653324731079401248,321006,264779,290951
653324731086843224,320966,264836,290766
653324731094285200,321045,264829,290688
653324731101727176,321051,264820,290783
653324731109169152,321080,264763,290783
653324731116734921,320863,265255,291670
653324731124169616,321015,265075,291231
653324731131604311,321008,265014,290876
653324731139039006,321103,264865,290885
653324731146473701,320968,264888,290925
653324731153908396,321135,264943,291043
653324731161343091,321068,264957,290900
653324731168777786,321073,264947,290861
653324731176212481,321823,265029,290920
653324731183647176,321432,265106,290783
653324731191081871,321255,264876,290830
653324731198516566,321264,264830,290821
653324731205951261,321164,264828,290821
653324731213385956,321076,264863,290773
653324731220820651,321034,264753,290681
653324731228255346,320877,264747,290695
653324731235690041,321000,264686,290781
653324731243124736,320797,264697,290739
653324731250559433,320562,264534,290291
653324731257994128,320639,264556,290391
653324731265428823,320733,264557,290564
653324731272863518,320713,264380,290582
653324731280298213,320687,264427,290564
653324731287732908,320663,264442,290536
653324731295167603,320700,264532,290566
653324731302602298,320540,264443,290429
653324731310036993,320461,264430,290357
653324731317471688,320440,264418,290462
653324731324906383,320393,264361,290384
653324731332341078,320266,264317,290477
653324731339775773,320255,264323,290548
653324731347210468,320317,264285,290423
653324731354645163,320277,264284,290426
653324731362079858,320329,264188,290285
653324731369514553,320285,264240,290314
653324731376949248,320280,264069,290140
653324731384383945,320515,264113,290055
653324731391818640,320493,264157,290225
653324731399253335,320314,264097,290236
653324731406688030,320321,264123,290200
653324731414122725,320379,264156,290248
653324731421557420,320285,264117,290245
653324731428992115,320321,264086,290282
653324731436426810,320350,264839,290713
653324731443861505,320359,264511,290520
653324731451296200,320328,264267,290513
653324731458730895,320238,264266,290256
653324731466165590,320243,264203,290223
653324731473600285,320288,264156,290222
653324731481034980,320180,264142,290108
653324731488469675,320251,264142,290181
653324731495904370,320840,264193,290090
653324731503339065,320624,264188,290297
653324731510773760,320335,264132,290359
653324731518084680,320191,264360,290005
653324731525526656,320218,264213,290029
653324731532968632,320223,264227,290236
653324731540410608,320191,264060,290227
653324731547852584,320253,264044,290222
653324731555294560,320225,264052,290200
653324731562736536,320190,264135,290223
653324731570178512,320184,264100,290247
653324731577620488,320285,264247,290359
653324731585062464,320256,264243,290366
653324731592504440,320199,264190,290173
653324731599946416,320273,264242,290262
653324731607388392,320259,264123,290265
653324731614830368,320344,264249,290384
653324731622272344,320394,264327,290374
653324731629714320,320195,264305,290230
653324731637156296,320255,264324,290295
653324731644598272,320371,264278,290371
653324731652164041,320365,264091,290499
653324731659598736,320395,264120,290381
653324731667033431,320416,264189,290286
653324731674468126,320392,264299,290291
653324731681902821,320455,264305,290378
653324731689337516,320379,264288,290257
653324731696772211,320354,264325,290389
653324731704206906,320419,264328,290396
653324731711641601,320388,264355,290450
653324731719076296,320541,264326,290461
653324731726510991,320537,264401,290446
653324731733945686,320561,264460,290461
653324731741380381,320519,264437,290554
653324731748815076,320567,264527,290493
653324731756249771,320566,265114,290357
653324731763684466,320571,264745,290282
653324731771119161,320493,264507,290269
653324731778553856,320576,264557,290452
653324731785988553,320540,264569,290191
653324731793423248,320437,264573,290188
653324731800857943,320510,264571,290362
653324731808292638,320469,264598,290352
653324731815727333,321130,264563,290568
653324731823162028,320841,264620,290555
653324731830596723,320841,264584,290545
653324731838031418,320615,264559,290586
653324731845466113,320687,264561,290498
653324731852900808,320653,264523,290367
653324731860335503,320585,264436,290407
653324731867770198,320685,264593,290430
653324731875204893,320702,264502,290452
653324731882639588,320687,264512,290441
653324731890074283,320724,264525,290481
653324731897508978,320711,264520,290501
653324731904943673,320576,264589,290416
653324731912378368,320660,264567,290534
653324731919689288,320831,264550,290190
653324731927131264,320606,264618,290104
653324731934573240,320796,264643,290329
653324731942015216,320753,264611,290414
653324731949457192,320669,264375,290323
653324731956899168,320644,264482,290417
653324731964341144,320585,264488,290359
653324731971783120,320575,264506,290254
653324731979225096,320634,264370,290204
653324731986667072,320418,264352,290143
653324731994109048,320375,264258,289994
653324732001551024,320199,264121,290013
6.53325E+17,320362,264164,290168
653324732016434976,320322,264246,290079
653324732023876952,320202,264223,289953
653324732031318928,320190,264153,289894
653324732038760904,320132,264175,289803
653324732046202880,320116,264110,289895
653324732053768649,320129,264154,289671
653324732061203344,320068,264032,289757
653324732068638039,320145,263970,289918
653324732076072734,320045,264060,289801
653324732083507429,319980,263967,289866
653324732090942124,320044,263932,289887
653324732098376819,320031,263867,289883
653324732105811514,319885,263900,289799
653324732113246209,319967,263931,289814
653324732120680904,319866,263920,289875
653324732128115599,319839,263957,289895
653324732135550294,320457,263988,290444
653324732142984989,320147,263908,290004
653324732150419684,319982,264005,289752
653324732157854379,319896,264022,289718
653324732165289074,319965,264034,289884
653324732172723769,319848,264022,289725
653324732180158464,319820,264106,289815
653324732187593161,319806,264136,289466
653324732195027856,319803,263946,289641
653324732202462551,319778,264005,289675
653324732209897246,319848,264100,289785
653324732217331941,319822,264038,289739
653324732224766636,319822,264003,289819
653324732232201331,319795,264047,289819
653324732239636026,319856,264017,289609
653324732247070721,319833,264002,289781
653324732254505416,319823,264047,289904
653324732261940111,319837,264045,289736
653324732269374806,319866,264029,289722
653324732276809501,319791,264019,289597
653324732284244196,319838,264060,289578
653324732291678891,319774,264112,289636
653324732299113586,319745,264074,289557
653324732306548281,319830,263977,289448
653324732313982976,319780,264009,289477
653324732321293896,320087,263697,289623
653324732328735872,319746,263912,289605
653324732336177848,319576,263995,289576
653324732343619824,319639,264019,289539
653324732351061800,319560,264042,289489
653324732358503776,319557,264031,289660
653324732365945752,319620,264078,289505
653324732373387728,319656,264118,289529
653324732380829704,319581,263991,289631
653324732388271680,319692,264071,289619
653324732395713656,319635,264088,289410
653324732403155632,319671,264102,289433
653324732410597608,319676,264119,289472
653324732418039584,319738,264161,289568
653324732425481560,319806,264214,289485
653324732432923536,319799,264204,289499
653324732440365512,319730,264161,289493
653324732447807488,319786,264165,289438
653324732455373257,320295,265002,290056
653324732462807952,319909,264496,289796
653324732470242647,319868,264274,289645
653324732477677342,319748,264208,289507
653324732485112037,319792,264142,289480
653324732492546732,319730,264281,289591
653324732499981427,319763,264077,289614
653324732507416122,319709,264154,289595
653324732514850817,319671,264162,289558
653324732522285512,319711,264180,289489
653324732529720207,319600,264188,289574
653324732537154902,319655,264205,289557
653324732544589597,319788,264210,289629
653324732552024292,319799,264128,289569
653324732559458987,319845,264299,289457
653324732566893682,319798,264339,289435
653324732574328377,319831,264252,289553
653324732581763072,319806,264295,289681
653324732589073992,320206,264242,289806
653324732596515968,319860,264298,289675
653324732603957944,319889,264305,289524
653324732611399920,319895,264237,289687
653324732618841896,319842,264171,289591
653324732626283872,319847,264190,289491
653324732633725848,319809,264294,289525
653324732641167824,319873,264186,289565
653324732648609800,319895,264311,289512
653324732656051776,319819,264162,289574
653324732663493752,319901,264275,289558
653324732670935728,319926,264326,289423
653324732678377704,319930,264299,289572
653324732685819680,319931,264161,289538
653324732693261656,319885,264248,289619
653324732700703632,319953,264323,289643
653324732708145608,319895,264227,289622
653324732715587584,319901,264204,289679
653324732723277147,320000,264171,289450
653324732730704560,319951,264197,289462
653324732738131973,319969,264123,289491
653324732745559386,319931,264063,289487
653324732752986799,319834,264010,289373
653324732760414212,319744,264080,289415
653324732767841625,319609,264044,289183
653324732775269038,320387,264562,290053
653324732782696451,319985,264196,289597
653324732790123864,319746,263927,289357
653324732797551277,319652,263950,289381
653324732804978690,319581,263922,289172
653324732812406103,319575,263868,289183
653324732819833516,319453,263860,289091
653324732827260929,319485,263858,289111
653324732834688342,319386,263801,289132
653324732842115755,319398,263869,289262
653324732849543168,319421,263861,289223
653324732856723016,319602,263773,288837
653324732864164992,319423,263816,289038
653324732871606968,319446,263771,289051
653324732879048944,319300,263798,289023
653324732886490920,319285,263799,289147
653324732893932896,319305,263765,289373
653324732901374872,319266,263727,289141
653324732908816848,319295,263783,289064
653324732916258824,319300,263667,288996
653324732923700800,319279,263737,289079
653324732931142776,319237,263660,289109
653324732938584752,319358,263747,289115
653324732946026728,319336,263808,289093
653324732953468704,319361,263732,289159
653324732960910680,319267,263644,289236
653324732968352656,319325,263701,289233
653324732975794632,319227,263803,289227
653324732983236608,319211,263683,289167
653324732990802377,319417,263867,289013
653324732998237072,319365,263775,289289
653324733005671767,319314,263880,289261
653324733013106462,319105,263796,289200
653324733020541157,319178,263822,289130
653324733027975852,319263,263829,289226
653324733035410547,319268,263843,289313
653324733042845242,319274,263839,289127
653324733050279937,319197,263698,289119
653324733057714632,319176,263793,289209
653324733065149327,319121,263796,289287
653324733072584022,319159,263727,289342
653324733080018717,319171,263641,289033
653324733087453412,319233,263710,289260
653324733094888107,319904,264368,289898
653324733102322802,319457,264081,289428
653324733109757497,319209,263922,289216
653324733117192192,319220,263856,289342
653324733124626889,319137,263725,289155
653324733132061584,319203,263605,289234
653324733139496279,319232,263730,289239
653324733146930974,319307,263777,289299
653324733154365669,319266,263775,289172
653324733161800364,319201,263688,289189
653324733169235059,319365,263748,289169
653324733176669754,319315,263797,289313
653324733184104449,319312,263854,289176
653324733191539144,319275,263812,289340
653324733198973839,319273,263856,289237
653324733206408534,319316,263825,289281
653324733213843229,319324,263867,289309
653324733221277924,319288,263794,289239
653324733228712619,319216,263770,289246
653324733236147314,319235,263803,289255
653324733243582009,319288,263777,289169
653324733251016704,319325,263754,289142
653324733258327624,319190,263589,289341
653324733265769600,319219,263776,289325
653324733273211576,319149,263681,289406
653324733280653552,319299,263769,289368
653324733288095528,319286,263800,289383
653324733295537504,319284,263692,289448
653324733302979480,319366,263733,289381
653324733310421456,319283,263818,289282
653324733317863432,319320,263825,289303
653324733325305408,319233,263701,289341
653324733332747384,319246,263882,289331
653324733340189360,319315,263914,289359
653324733347631336,319324,263953,289473
653324733355073312,319331,263942,289465
653324733362515288,319373,263862,289454
653324733369957264,319382,263935,289467
653324733377399240,319362,263959,289496
653324733384841216,319466,263997,289508
653324733392406985,319376,263657,289431
653324733399841680,319448,263749,289558
653324733407276375,319491,263851,289475
653324733414711070,320065,264437,290122
653324733422145765,319783,264241,289675
653324733429580460,319641,264141,289536
653324733437015155,319604,264104,289456
653324733444449850,319614,264100,289437
653324733451884545,319551,263960,289533
653324733459319240,319542,263982,289381
653324733466753935,319592,264000,289517
653324733474188630,319652,264088,289469
653324733481623325,319571,264132,289553
653324733489058020,319543,264173,289570
653324733496492715,319669,264221,289693
653324733503927410,319738,264221,289607
653324733511362105,319625,264129,289546
653324733518796800,319504,263977,289493
653324733526231497,319872,264127,289667
653324733533666192,319678,264118,289632
653324733541100887,319514,264048,289474
653324733548535582,319559,264018,289581
653324733555970277,319615,264068,289632
653324733563404972,319448,264025,289450
653324733570839667,319513,263847,289476
653324733578274362,319501,263797,289479
653324733585709057,319505,263826,289488
653324733593143752,319535,263742,289455
653324733600578447,319338,263783,289250
653324733608013142,319380,263706,289314
653324733615447837,319355,263714,289393
653324733622882532,319294,263809,289418
653324733630317227,319328,263774,289402
653324733637751922,319376,263744,289372
653324733645186617,319337,263692,289352
653324733652621312,319248,263657,289364
653324733659932232,319509,263949,289367
653324733667374208,319449,263816,289368
653324733674816184,319313,263791,289303
653324733682258160,319328,263772,289410
653324733689700136,319413,263678,289450
653324733697142112,319241,263639,289420
653324733704584088,319319,263670,289328
653324733712026064,319389,263736,289511
653324733719468040,319246,263602,289416
653324733726910016,319307,263674,289318
653324733734351992,319251,264224,289943
653324733741793968,319326,263821,289693
653324733749235944,319307,263698,289440
653324733756677920,319351,263835,289336
653324733764119896,319299,263866,289333
653324733771561872,319309,263745,289403
653324733779003848,319319,263786,289402
653324733786445824,319412,263772,289552
653324733794011593,319370,263618,289350
653324733801446288,319362,263649,289503
653324733808880983,319235,263638,289435
653324733816315678,319361,263681,289630
653324733823750373,319402,263572,289657
653324733831185068,319397,263643,289588
653324733838619763,319334,263722,289522
653324733846054458,319285,263722,289576
653324733853489153,319298,263710,289589
653324733860923848,319384,263672,289567
653324733868358543,319211,263697,289478
653324733875793238,319310,263688,289662
653324733883227933,319234,263684,289569
653324733890662628,319278,263715,289590
653324733898097323,319186,263664,289558
653324733905532018,319229,263626,289605
653324733912966713,319276,263637,289529
653324733920401408,319284,263713,289530
653324733927836105,319096,263858,289186
653324733935270800,319165,263839,289410
653324733942705495,319137,263753,289476
653324733950140190,319208,263584,289539
653324733957574885,319273,263654,289591
653324733965009580,319298,263667,289621
653324733972444275,319382,263677,289531
653324733979878970,319264,263700,289563
653324733987313665,319295,263695,289641
653324733994748360,319302,263824,289587
653324734002183055,319197,263708,289578
653324734009617750,319179,263712,289543
653324734017052445,319247,263701,289563
653324734024487140,319212,263731,289592
653324734031921835,319184,263792,289599
653324734039356530,319260,263725,289575
653324734046791225,319206,263691,289545
653324734054225920,319276,264463,290195
653324734061536840,319307,264118,290150
653324734068978816,319319,263935,289819
653324734076420792,319251,263916,289630
653324734083862768,319245,263752,289612
653324734091304744,319209,263675,289267
653324734098746720,319254,263683,289451
653324734106188696,319309,263772,289354
653324734113630672,319987,263798,289339
653324734121072648,319632,263765,289448
653324734128514624,319495,263798,289602
653324734135956600,319341,263772,289485
653324734143398576,319356,263798,289584
653324734150840552,319395,263910,289633
653324734158282528,319217,263834,289649
653324734165724504,319328,263929,289761
653324734173166480,319354,263763,289668
653324734180608456,319444,263914,289627
653324734188050432,319472,264005,289699
653324734195616201,319362,264081,289525
653324734203050896,319403,263956,289528
653324734210485591,319447,264000,289689
653324734217920286,319403,264042,289730
653324734225354981,319512,264037,289723
653324734232789676,319564,264057,289872
653324734240224371,319574,264062,289705
653324734247659066,319476,264113,289696
653324734255093761,319591,264205,289818
653324734262528456,319576,264019,289762
653324734269963151,319581,264082,289828
653324734277397846,319520,264122,289766
653324734284832541,319540,264185,289855
653324734292267236,319739,264081,289922
653324734299701931,319646,264053,290028
653324734307136626,319677,264131,290097
653324734314571321,319766,264073,290133
653324734322006016,319723,264050,290080
653324734329440713,319619,263795,290384
653324734336875408,319485,263995,290246
653324734344310103,319508,263977,290107
653324734351744798,319619,263963,290118
653324734359179493,319635,263835,290055
653324734366614188,319719,264012,289966
653324734374048883,319504,264523,290202
653324734381483578,319583,264120,290043
653324734388918273,319507,263895,289933
653324734396352968,319418,263770,289859
653324734403787663,319393,263746,289717
653324734411222358,319435,263755,289661
653324734418657053,319337,263803,289742
653324734426091748,319313,263606,289842
653324734433526443,319944,263752,289697
653324734440961138,319507,263691,289835
653324734448395833,319396,263704,289741
653324734455830528,319424,263718,289751
653324734463265225,319190,263661,289479
653324734470699920,319326,263632,289691
653324734478134615,319336,263678,289869
653324734485569310,319283,263721,289781
653324734493004005,319304,263691,289798
653324734500438700,319338,263640,289819
653324734507873395,319431,263685,290003
653324734515308090,319440,263674,289937
653324734522742785,319326,263539,289840
653324734530177480,319415,263585,289949
653324734537612175,319428,263627,289996
653324734545046870,319375,263576,289933
653324734552481565,319400,263720,289978
653324734559916260,319360,263787,290094
653324734567350955,319383,263744,290075
653324734574785650,319427,263590,289971
653324734582220345,319384,263548,290036
653324734589655040,319433,263510,290195
653324734596965960,319045,263386,290028
653324734604407936,319220,263606,290145
653324734611849912,319226,263650,290133
653324734619291888,319358,263630,290218
653324734626733864,319405,263729,290236
653324734634175840,319343,263694,290269
653324734641617816,319423,263544,290209
653324734649059792,319425,263571,290258
653324734656501768,319364,263596,290081
653324734663943744,319302,263666,290206
653324734671385720,319369,263502,290140
653324734678827696,319299,263536,290093
653324734686269672,319327,263541,290230
653324734693711648,319212,264127,290205
653324734701153624,319348,263854,290239
653324734708595600,319288,263720,290263
653324734716037576,319143,263609,290287
653324734723479552,319270,263575,290390
653324734731045321,319098,263678,290497
653324734738480016,319356,263656,290469
653324734745914711,319352,263730,290426
653324734753349406,320050,263685,290383
653324734760784101,319577,263744,290355
653324734768218796,319537,263705,290435
653324734775653491,319504,263744,290417
653324734783088186,319493,263690,290508
653324734790522881,319529,263757,290439
653324734797957576,319438,263659,290430
653324734805392271,319381,263687,290509
653324734812826966,319282,263675,290579
653324734820261661,319343,263657,290557
653324734827696356,319346,263747,290506
653324734835131051,319486,263882,290662
653324734842565746,319457,263789,290697
653324734850000441,319484,263791,290727
653324734857435136,319569,263701,290769
653324734864869833,319510,263447,290785
653324734872304528,319465,263826,290881
653324734879739223,319373,263864,290832
653324734887173918,319339,263895,290758
653324734894608613,319484,263978,290875
653324734902043308,319435,263874,290986
653324734909478003,319461,263845,290937
653324734916912698,319451,263854,291032
653324734924347393,319455,263958,291101
653324734931782088,319405,263942,291042
653324734939216783,319422,263868,291070
653324734946651478,319415,263807,290991
653324734954086173,319478,263987,291066
653324734961520868,319369,263931,291071
653324734968955563,319431,263975,290967
653324734976390258,319416,263945,290997
653324734983824953,319461,264098,291019
653324734991259648,319516,264061,290979
653324734998570568,319402,263797,290986
653324735006012544,319440,263929,290878
653324735013454520,319520,264492,291055
653324735020896496,319445,264090,291020
653324735028338472,319516,264161,291131
653324735035780448,319504,264052,291120
653324735043222424,319484,264029,291120
653324735050664400,319551,264023,291263
653324735058106376,319580,264127,291226
653324735065548352,319602,264102,291256
653324735072990328,320235,264203,291405
653324735080432304,320052,264242,291009
653324735087874280,319816,264113,291101
653324735095316256,319739,264120,291248
653324735102758232,319621,264209,291169
653324735110200208,319654,264264,291288
653324735117642184,319668,264221,291351
653324735125084160,319656,264167,291329
653324735132649929,319429,264308,291551
653324735140084624,319475,264192,291506
653324735147519319,319608,264229,291606
653324735154954014,319741,264130,291664
653324735162388709,319822,264116,291814
653324735169823404,319731,264071,291768
653324735177258099,319754,263984,291787
653324735184692794,319754,264121,291710
653324735192127489,319721,263995,291674
653324735199562184,319651,263946,291643
653324735206996879,319719,263882,291625
653324735214431574,319687,264009,291668
653324735221866269,319726,263912,291687
653324735229300964,319674,263922,291705
653324735236735659,319622,263905,291703
653324735244170354,319525,263833,291640
653324735251605049,319539,263930,291791
653324735259039744,319546,263877,291668
653324735266474441,319746,263954,291469
653324735273909136,319555,263847,291742
653324735281343831,319620,263881,291618
653324735288778526,319514,263782,291685
653324735296213221,319452,263777,291586
653324735303647916,319451,263814,291734
653324735311082611,319445,263729,291615
653324735318517306,319446,263843,291703
653324735325952001,319504,263799,291756
653324735333386696,319337,263801,291700
653324735340821391,319423,263796,291666
653324735348256086,319461,263798,291840
653324735355690781,319367,263797,291798
653324735363125476,319531,263757,291731
653324735370560171,319468,263840,291854
653324735377994866,319465,263811,291949
653324735385429561,319526,263784,291795
653324735392864256,320113,263798,292542
653324735400175176,319631,263639,291926
653324735407617152,319595,263663,292000
653324735415059128,319592,263815,291959
653324735422501104,319491,263828,292048
653324735429943080,319548,263912,292184
653324735437385056,319491,263833,292174
653324735444827032,319517,263839,292232
653324735452269008,319538,263971,292288
653324735459710984,319623,263865,292255
653324735467152960,319617,263816,292367
653324735474594936,319584,263864,292439
653324735482036912,319628,263863,292315
653324735489478888,319578,263939,292390
653324735496920864,319593,263960,292369
653324735504362840,319584,263906,292466
653324735511804816,319779,264052,292657
653324735519246792,319669,264021,292677
653324735526688768,319893,264104,292676
653324735534254537,320058,264276,292451
653324735541689232,319893,264131,292582
653324735549123927,319892,264139,292707
653324735556558622,319887,263985,292695
653324735563993317,319950,263982,292664
653324735571428012,319948,263885,292657
653324735578862707,319862,264010,292665
653324735586297402,319975,264121,292712
653324735593732097,319974,264313,292720
653324735601166792,319930,264265,292686
653324735608601487,319968,264214,292641
653324735616036182,319993,264217,292546
653324735623470877,319916,264237,292570
653324735630905572,319974,264169,292608
653324735638340267,319964,264189,292500
653324735645774962,320007,264131,292502
653324735653209657,320010,264276,292363
653324735660644352,320005,264308,292473
653324735668079049,320042,264363,292451
653324735675513744,320013,264376,292494
653324735682948439,320046,264310,292445
653324735690383134,320140,264340,292392
653324735697817829,320092,264427,292365
653324735705252524,319978,264378,292295
653324735712687219,320692,264566,292956
653324735720121914,320401,264430,292515
653324735727556609,320251,264371,292354
653324735734991304,320166,264362,292251
653324735742425999,320166,264381,292223
653324735749860694,320118,264401,292060
653324735757295389,320150,264302,291958
653324735764730084,320148,264388,292104
653324735772164779,320099,264342,292048
653324735779599474,320092,264321,291984
653324735787034169,320097,264383,291862
653324735794468864,320078,264350,292028
653324735801903561,320187,264403,291879
653324735809338256,320186,264448,291824
653324735816772951,320036,264473,291909
653324735824207646,320032,264509,291840
653324735831642341,320237,264551,292061
653324735839077036,320301,264611,292119
653324735846511731,320327,264602,292075
653324735853946426,320310,264629,292083
653324735861381121,320295,264565,291970
653324735868815816,320273,264601,292081
653324735876250511,320282,264591,292099
653324735883685206,320269,264619,292148
653324735891119901,320336,264572,292115
653324735898554596,320358,264678,292192
653324735905989291,320348,264695,292230
653324735913423986,320284,264607,292237
653324735920858681,320267,264612,292257
653324735928293376,320400,264612,292197
653324735935604296,320292,264867,291969
653324735943046272,320241,264810,292047
653324735950488248,320189,264670,292092
653324735957930224,320194,264591,292055
653324735965372200,320216,264600,292076
653324735972814176,320247,264559,292000
653324735980256152,320220,264534,291964
653324735987698128,320171,264562,291927
653324735995140104,320185,264432,292018
653324736002582080,320170,264344,291953
653324736010024056,320105,264393,291831
653324736017466032,319991,264315,291697
653324736024908008,320031,264334,291662
653324736032349984,320655,264815,292309
653324736039791960,320291,264403,291837
653324736047233936,320158,264335,291671
653324736054675912,320032,264285,291559
653324736062117888,319949,264229,291520
653324736069683657,320054,264368,291731
653324736077118352,319566,264299,291344
653324736084553047,319623,264251,291351
653324736091987742,319759,264234,291277
653324736099422437,319796,264121,291433
653324736106857132,319836,264052,291349
653324736114291827,319884,264169,291359
653324736121726522,319747,264119,291263
653324736129161217,319706,264064,291223
653324736136595912,319820,264065,291270
653324736144030607,319745,264056,291207
653324736151465302,319841,264127,291147
653324736158899997,319803,264072,291143
653324736166334692,319761,264134,291064
653324736173769387,319779,264018,291118
653324736181204082,319742,264056,290980
653324736188638777,319645,264097,290969
653324736196073472,319735,264073,290963
653324736203508169,319850,264099,290849
653324736210942864,319800,264133,290883
653324736218377559,319604,264080,290972
653324736225812254,319691,263999,291028
653324736233246949,319629,264067,291062
653324736240681644,319760,264069,291208
653324736248116339,319775,264032,291215
653324736255551034,319720,263838,291093
653324736262985729,319725,263958,291101
653324736270420424,319683,264001,291115
653324736277855119,319656,263914,291131
653324736285289814,319725,264032,291118
653324736292724509,319600,263981,291026
653324736300159204,319704,263975,291134
653324736307593899,319663,263947,291098
653324736315028594,319620,263926,291001
653324736322463289,319697,263988,291149
653324736329897984,319652,264049,291188
653324736337332681,319808,263844,291326
653324736344767376,319626,263965,291249
653324736352202071,320281,264698,291869
653324736359636766,319996,264379,291445
653324736367071461,319803,264204,291172
653324736374506156,319723,264119,291186
653324736381940851,319771,263927,291367
653324736389375546,319730,264009,291237
653324736396810241,319772,264152,291217
653324736404244936,319769,264083,291298
653324736411679631,319871,264157,291388
653324736419114326,319783,264182,291245
653324736426549021,319800,264141,291251
653324736433983716,319739,264123,291374
653324736441418411,319879,264207,291373
653324736448853106,319873,264279,291344
653324736456287801,319913,264202,291405
653324736463722496,319850,264190,291376
653324736471033416,320137,264430,291372
653324736478475392,319868,264273,291449
653324736485917368,319884,264256,291429
653324736493359344,319940,264175,291434
653324736500801320,320022,264095,291515
653324736508243296,320010,264097,291536
653324736515685272,320033,264259,291434
653324736523127248,320004,264276,291415
653324736530569224,319968,264232,291378
653324736538011200,320067,264268,291454
653324736545453176,320010,264282,291466
653324736552895152,320085,264264,291487
653324736560337128,320092,264295,291560
653324736567779104,320127,264362,291553
653324736575221080,320178,264296,291506
653324736582663056,320216,264301,291555
653324736590105032,320282,264286,291591
653324736597547008,320285,264290,291658
653324736605236571,320413,264237,291531
653324736612663984,320316,264397,291529
653324736620091397,320240,264427,291570
653324736627518810,320292,264493,291594
653324736634946223,320269,264512,291537
653324736642373636,320340,264526,291649
653324736649801049,320345,264479,291689
653324736657228462,320413,264596,291658
653324736664655875,320362,264613,291647
653324736672083288,321037,265239,292337
653324736679510701,320778,264944,292123
653324736686938114,320679,264847,292044
653324736694365527,320639,264743,291958
653324736701792940,320538,264678,291910
653324736709220353,320605,264487,291866
653324736716647766,320512,264515,291805
653324736724075179,320531,264582,291869
653324736731502592,320528,264497,291898
653324736738682440,320409,264413,292153
653324736746124416,320402,264473,291929
653324736753566392,320353,264392,291800
653324736761008368,320442,264420,291903
653324736768450344,320525,264414,291903
653324736775892320,320467,264402,291884
653324736783334296,320402,264408,291837
653324736790776272,320361,264377,291845
653324736798218248,320353,264364,291820
653324736805660224,320353,264338,291772
653324736813102200,320375,264303,291624
653324736820544176,320152,264282,291702
653324736827986152,320251,264284,291710
653324736835428128,320327,264318,291678
653324736842870104,320286,264284,291616
653324736850312080,320253,264281,291673
653324736857754056,320162,264220,291603
653324736865196032,320233,264214,291671
653324736872761801,320084,264349,291578
653324736880196496,320123,264309,291569
653324736887631191,320203,264250,291684
653324736895065886,320151,264098,291751
653324736902500581,320197,264136,291627
653324736909935276,320174,264073,291568
653324736917369971,320047,264127,291677
653324736924804666,320024,264136,291721
653324736932239361,320129,264151,291724
653324736939674056,320103,264174,291608
653324736947108751,320085,264225,291688
653324736954543446,320138,264214,291652
653324736961978141,320122,264244,291718
653324736969412836,320212,264148,291860
653324736976847531,320004,264077,291787
653324736984282226,320051,264129,291826
653324736991716921,320748,264878,292422
653324736999151616,320392,264459,291932
653324737006586313,320236,264117,291743
653324737014021008,320124,264127,291852
653324737021455703,320090,264209,291943
653324737028890398,320028,264265,291912
653324737036325093,319927,264168,291837
653324737043759788,319932,264151,291519
653324737051194483,320030,264026,291713
653324737058629178,320031,264111,291913
653324737066063873,320046,264151,291916
653324737073498568,320050,264012,291974
653324737080933263,320069,264027,291868
653324737088367958,320095,264056,291873
653324737095802653,319986,263973,291844
653324737103237348,319829,264088,291748
653324737110672043,319936,264206,291883
653324737118106738,319825,264016,291816
653324737125541433,319904,264021,291844
653324737132976128,319998,263979,291792
653324737140410825,319855,264197,291501
653324737147845520,319933,264094,291694
653324737155280215,319842,264006,291754
653324737162714910,319882,264074,291638
653324737170149605,319838,264122,291690
653324737177584300,319854,264173,291720
653324737185018995,319877,264094,291889
653324737192453690,319960,264162,291812
653324737199888385,319916,264129,291772
653324737207323080,319914,264166,291789
653324737214757775,319821,264119,291772
653324737222192470,319849,264122,291825
653324737229627165,319905,264135,291837
653324737237061860,319915,264119,291902
653324737244496555,319856,264033,291949
653324737251931250,319792,264068,291974
653324737259365945,319799,264079,291896
653324737266800640,319830,264096,291867
653324737274235337,319731,264170,292048
653324737281670032,319844,264205,291969
653324737289104727,319887,263979,291808
653324737296539422,319755,264134,291848
653324737303974117,319874,264073,291812
653324737311408812,320566,264668,292489
653324737318843507,320166,264241,292119
653324737326278202,320055,264089,291982
653324737333712897,319959,264051,291736
653324737341147592,319874,264123,291805
653324737348582287,319803,264146,291838
653324737356016982,319832,264096,291831
653324737363451677,319771,264102,291808
653324737370886372,319704,264040,291803
653324737378321067,319790,264019,291844
653324737385755762,319864,264076,291911
653324737393190457,319847,264031,291880
653324737400625152,319862,264178,291914
653324737407936072,320127,263982,292122
653324737415378048,319999,264057,291948
653324737422820024,319914,264093,291859
6.53325E+17,319883,264258,291832
653324737437703976,319893,264201,291841
653324737445145952,319861,264207,291821
653324737452587928,319880,264128,291793
653324737460029904,319964,264255,291782
653324737467471880,319956,264196,291780
653324737474913856,319908,264112,291866
653324737482355832,319876,264216,291881
653324737489797808,320034,264086,291913
653324737497239784,319838,264155,291823
653324737504681760,319735,264056,291931
653324737512123736,319815,263997,291899
653324737519565712,319866,263982,291864
653324737527007688,319838,263971,291712
653324737534449664,319694,263943,291783
653324737542015433,319765,264146,291833
653324737549450128,319709,263967,291720
653324737556884823,319622,263820,291675
653324737564319518,319614,263673,291522
653324737571754213,319552,263637,291448
653324737579188908,319495,263628,291541
653324737586623603,319394,263671,291395
653324737594058298,319363,263548,291509
653324737601492993,319333,263598,291275
653324737608927688,319277,263518,291413
653324737616362383,319243,263466,291449
653324737623797078,319228,263438,291377
653324737631231773,319850,264180,291969
653324737638666468,319554,263764,291680
653324737646101163,319370,263623,291400
653324737653535858,319322,263482,291344
653324737660970553,319206,263484,291319
653324737668405248,319186,263525,291132
653324737675716168,319387,263199,291105
653324737683158144,319122,263319,291054
653324737690600120,319072,263281,291060
653324737698042096,319066,263395,291064
653324737705484072,319014,263314,291109
653324737712926048,318910,263318,291040
653324737720368024,318952,263330,291058
6.53325E+17,318955,263340,290953
653324737735251976,318881,263344,291089
653324737742693952,318887,263278,291023
653324737750135928,319026,263416,290954
653324737757577904,318993,263287,290964
653324737765019880,318932,263217,290994
653324737772461856,318910,263250,291032
653324737779903832,318867,263233,291007
653324737787345808,318732,263315,290888
653324737794787784,318865,263247,290977
653324737802229760,318850,263207,291079
653324737809795529,318814,263184,291122
653324737817230224,318783,263232,291086
653324737824664919,318767,263169,290894
653324737832099614,318716,263214,290980
653324737839534309,318766,263240,290957
653324737846969004,318588,263144,290977
653324737854403699,318626,263265,291042
653324737861838394,318534,263210,291040
653324737869273089,318554,263213,291015
653324737876707784,318494,263099,291052
653324737884142479,318494,263108,290979
653324737891577174,318542,263140,290935
653324737899011869,318592,263178,291078
653324737906446564,318560,263215,291046
653324737913881259,318629,263278,291043
653324737921315954,318524,263323,291008
653324737928750649,318552,263310,291070
653324737936185344,318530,263285,291147
653324737943620041,318754,263120,290994
653324737951054736,318946,263834,291775
653324737958489431,318643,263560,291569
653324737965924126,318657,263445,291571
653324737973358821,318525,263398,291537
653324737980793516,318431,263393,291320
653324737988228211,318365,263404,291410
653324737995662906,318393,263387,291483
653324738003097601,318347,263345,291410
653324738010532296,318154,263408,291192
653324738017966991,318165,263293,291032
653324738025401686,318160,263584,291032
653324738032836381,318054,263463,290844
653324738040271076,318062,263471,290791
653324738047705771,318162,263515,290860
653324738055140466,318174,263608,290719
653324738062575161,318121,263589,290776
653324738070009856,318058,263707,290678
653324738077444553,317963,263441,290206
653324738084879248,317963,263588,290356
653324738092313943,317904,263595,290244
653324738099748638,317956,263704,290159
653324738107183333,317939,263798,290124
653324738114618028,317951,263874,290152
653324738122052723,318012,263755,290051
653324738129487418,318141,263858,290001
653324738136922113,318092,263838,289951
653324738144356808,318100,263889,290017
653324738151791503,318126,263924,290050
653324738159226198,318128,263909,289946
653324738166660893,318158,263969,289937
653324738174095588,318093,264072,289910
653324738181530283,318011,264112,289929
653324738188964978,318080,264055,289855
653324738196399673,318062,264084,289740
653324738203834368,318102,264170,289575
653324738211145288,318338,264386,289287
653324738218587264,318110,264387,289400
653324738226029240,318115,264409,289587
653324738233471216,318063,264488,289627
653324738240913192,318047,264447,289568
653324738248355168,318132,264451,289790
653324738255797144,318224,264529,289859
653324738263239120,318271,264526,289831
653324738270681096,318319,265151,290534
653324738278123072,318245,264865,290168
653324738285565048,318259,264742,289875
653324738293007024,318377,264696,289903
6.53325E+17,318523,264704,290006
653324738307890976,318566,264601,290029
653324738315332952,318537,264664,289979
653324738322774928,318530,264745,290062
653324738330216904,318698,264720,290045
653324738337658880,318718,264742,290246
653324738345348443,318849,264506,290473
653324738352775856,318852,264599,290348
653324738360203269,318802,264580,290286
653324738367630682,318799,264623,290276
653324738375058095,318708,264752,290307
653324738382485508,318697,264637,290282
653324738389912921,318681,264550,290298
653324738397340334,318678,264704,290181
653324738404767747,318592,264624,290268
653324738412195160,318543,264498,290396
653324738419622573,318615,264651,290411
653324738427049986,318716,264440,290474
653324738434477399,318879,264499,290635
653324738441904812,318834,264609,290769
653324738449332225,318891,264628,290850
653324738456759638,318921,264554,291025
653324738464187051,318976,264633,291058
653324738471614464,318998,264541,291226
653324738478794312,318909,264588,291129
653324738486236288,318904,264631,291335
653324738493678264,319030,264741,291556
653324738501120240,319086,264729,291657
653324738508562216,319213,264653,291843
653324738516004192,319254,264643,291884
653324738523446168,319265,264685,291986
653324738530888144,319274,264661,292181
653324738538330120,319244,264754,292216
653324738545772096,319290,264780,292371
653324738553214072,319410,264712,292541
653324738560656048,319445,264775,292642
653324738568098024,319537,264903,292668
6.53325E+17,319563,264935,292801
653324738582981976,319618,264948,292956
653324738590423952,319532,265609,293536
653324738597865928,319519,265258,293312
653324738605307904,319434,265146,293295
653324738612873673,319839,265336,293122
653324738620308368,319761,265169,293287
653324738627743063,319727,265102,293349
653324738635177758,319781,265227,293423
653324738642612453,319772,265214,293579
653324738650047148,320389,265182,293683
653324738657481843,320128,265189,293665
653324738664916538,320029,265194,293795
653324738672351233,319915,265176,293878
653324738679785928,319885,265146,293937
653324738687220623,319959,265180,294069
653324738694655318,319944,265187,294036
653324738702090013,319975,265258,294074
653324738709524708,319908,265301,294240
653324738716959403,319923,265231,294291
653324738724394098,319980,265283,294468
653324738731828793,320018,265323,294562
653324738739263488,320058,265341,294496
653324738746698185,320225,265656,294201
653324738754132880,320032,265485,294473
653324738761567575,319982,265448,294506
653324738769002270,320080,265410,294773
653324738776436965,320136,265545,294709
653324738783871660,320251,265481,294844
653324738791306355,320213,265405,294828
653324738798741050,320235,265486,294986
653324738806175745,320274,265486,294994
653324738813610440,320329,265557,294922
653324738821045135,320343,265580,294927
653324738828479830,320346,265583,295025
653324738835914525,320316,265622,295138
653324738843349220,320363,265549,295183
653324738850783915,320275,265522,295167
653324738858218610,320348,265564,295258
653324738865653305,320463,265625,295242
6.53325E+17,320520,265577,295324
653324738880522697,320246,265574,295366
653324738887957392,320448,265689,295380
653324738895392087,320469,265633,295221
653324738902826782,320438,265691,295237
653324738910261477,320484,266365,295874
653324738917696172,320479,266008,295565
653324738925130867,320568,265850,295520
653324738932565562,320458,265797,295537
653324738940000257,320499,265857,295469
653324738947434952,320523,265754,295286
653324738954869647,320645,265842,295457
653324738962304342,320619,265803,295497
653324738969739037,321101,265859,295482
653324738977173732,320812,265809,295525
653324738984608427,320719,265858,295462
653324738992043122,320675,265884,295423
653324738999477817,320691,265817,295401
653324739006912512,320670,265859,295433
653324739014223432,320815,265622,295812
653324739021665408,320841,265823,295696
653324739029107384,320728,265863,295602
653324739036549360,320694,265946,295505
653324739043991336,320747,265981,295684
653324739051433312,320828,265926,295626
653324739058875288,320848,265958,295808
653324739066317264,320898,266064,295731
653324739073759240,320804,266036,295761
653324739081201216,320892,265887,295770
653324739088643192,321002,265999,295917
653324739096085168,320999,265931,295917
653324739103527144,320986,266084,295880
653324739110969120,320868,266123,295799
653324739118411096,320938,266115,295860
653324739125853072,320957,266170,295847
653324739133295048,320939,266170,295805
653324739140737024,320948,266124,295925
653324739148426587,320982,266078,295531
6.53325E+17,321039,266108,295707
653324739163281413,321051,265910,295846
653324739170708826,321135,265926,295966
653324739178136239,321142,266123,296030
653324739185563652,321113,266246,296004
653324739192991065,321071,266121,295880
653324739200418478,321080,266074,295969
653324739207845891,321137,266108,295841
653324739215273304,321010,266019,295944
653324739222700717,320977,265998,295912
653324739230128130,320868,266534,296542
653324739237555543,320917,266162,296045
653324739244982956,320992,266048,295843
653324739252410369,320912,265825,295708
653324739259837782,320731,265777,295736
653324739267265195,320864,265825,295629
653324739274692608,320839,265754,295639
653324739281996233,320512,265652,295693
653324739289430928,320827,265650,295461
653324739296865623,320741,265753,295425
653324739304300318,320600,265741,295443
653324739311735013,320605,265685,295554
653324739319169708,320476,265755,295463
653324739326604403,320616,265719,295530
653324739334039098,320559,265673,295473
653324739341473793,320570,265618,295371
653324739348908488,320531,265677,295280
653324739356343183,320428,265742,295397
653324739363777878,320404,265617,295398
653324739371212573,320455,265697,295382
653324739378647268,320498,265648,295471
653324739386081963,320469,265657,295289
653324739393516658,320550,265672,295349
653324739400951353,320374,265586,295193
653324739408386048,320484,265605,295325
653324739415696968,320752,265749,295238
653324739423138944,320565,265653,295349
653324739430580920,320447,265589,295275
653324739438022896,320482,265613,295378
653324739445464872,320494,265550,295354
653324739452906848,320446,265488,295441
653324739460348824,320336,265510,295340
653324739467790800,320426,265541,295465
653324739475232776,320424,265579,295495
653324739482674752,320410,265750,295485
653324739490116728,320476,265634,295433
653324739497558704,320274,265501,295351
653324739505000680,320399,265557,295344
653324739512442656,320268,265591,295321
653324739519884632,320263,265603,295409
653324739527326608,320334,265634,295393
653324739534768584,320336,265572,295406
653324739542210560,320243,265649,295361
653324739549652552,320103,266491,296170
653324739557094528,320174,265971,295734
653324739564536504,320111,265738,295634
653324739571978480,320247,265732,295520
653324739579420456,320244,265691,295457
653324739586862432,320375,265719,295520
653324739594304408,320327,265648,295652
653324739601746384,320242,265630,295493
653324739609188360,320747,265665,295535
653324739616630336,320343,265649,295406
653324739624072312,320281,265554,295516
653324739631514288,320187,265616,295541
653324739638956264,320220,265563,295485
653324739646398240,320185,265660,295517
653324739653840216,320201,265623,295548
653324739661282192,320292,265618,295502
653324739668724168,320290,265721,295523
653324739676166144,320407,265633,295539
653324739683855707,320327,265699,295199
653324739691283120,320198,265698,295268
653324739698710533,320273,265775,295373
653324739706137946,320341,265758,295433
653324739713565359,320292,265726,295359
653324739720992772,320311,265665,295473
653324739728420185,320376,265839,295611
653324739735847598,320299,265790,295681
653324739743275011,320303,265833,295727
653324739750702424,320344,265727,295733
653324739758129837,320317,265787,295602
653324739765557250,320352,265874,295625
653324739772984663,320284,265829,295513
653324739780412076,320229,265872,295522
653324739787839489,320335,265836,295580
653324739795266902,320337,265702,295649
653324739802694315,320444,265735,295630
653324739810121728,320358,265797,295719
653324739817301576,320186,266045,295229
653324739824743552,320284,266004,295517
653324739832185528,320246,265982,295543
653324739839627504,320453,265861,295724
653324739847069480,320475,265888,295770
653324739854511456,320544,265870,295834
653324739861953432,320565,265800,295813
653324739869395408,320506,266522,296350
653324739876837384,320428,266185,296061
653324739884279360,320498,265975,295842
653324739891721336,320486,265966,295833
653324739899163312,320427,265987,295900
653324739906605288,320572,266028,295903
653324739914047264,320555,266005,295904
653324739921489240,320544,265941,295910
653324739928931216,321113,266064,296029
653324739936373192,320907,266058,296113
653324739943815168,320817,266052,296073
653324739951257160,320922,266136,296160
653324739958699136,320755,266160,296078
653324739966141112,320862,266169,296097
653324739973583088,320807,266075,296149
653324739981025064,320888,266056,296180
653324739988467040,320843,266160,296095
653324739995909016,320799,266207,296115
653324740003350992,320970,266321,296202
653324740010792968,320902,266234,296159
653324740018234944,320783,266228,296171
653324740025676920,320777,266222,296236
653324740033118896,320798,266278,296325
653324740040560872,320945,266306,296395
653324740048002848,321040,266301,296507
653324740055444824,321043,266335,296497
653324740062886800,321031,266284,296536
653324740070328776,320948,266265,296325
653324740077770752,320929,266273,296497
653324740085460315,321069,266135,296697
653324740092887728,320912,266114,296438
653324740100315141,320921,266045,296371
653324740107742554,320858,266041,296317
653324740115169967,320841,265950,296327
653324740122597380,320829,265916,296181
653324740130024793,320763,265898,296083
653324740137452206,320683,265873,296088
653324740144879619,320730,265872,296009
653324740152307032,320658,265902,296077
653324740159734445,320582,265789,295873
653324740167161858,320594,265858,295954
653324740174589271,320465,265721,295778
653324740182016684,320612,265724,295847
653324740189444097,320519,266280,295863
653324740196871510,320438,266070,295843
653324740204298923,320459,265872,295887
653324740211726336,320420,265812,295932
653324740218906184,320759,265527,295976
653324740226348160,320589,265722,295904
653324740233790136,320554,265723,295891
653324740241232112,320496,265720,296025
653324740248674088,321134,265738,295886
653324740256116064,320761,265769,295986
653324740263558040,320568,265721,295898
653324740271000016,320578,265778,296001
653324740278441992,320371,265665,295988
653324740285883968,320403,265726,295928
653324740293325944,320326,265780,295978
653324740300767920,320343,265801,295911
653324740308209896,320411,265720,296048
653324740315651872,320451,265862,296000
653324740323093848,320361,265772,296113
653324740330535824,320357,265708,296120
653324740337977800,320410,265858,296047
653324740345419776,320412,265873,296209
653324740352861768,320662,265824,296176
653324740360303744,320565,265762,296080
653324740367745720,320516,265898,296173
653324740375187696,320321,265769,296081
653324740382629672,320365,265754,296111
653324740390071648,320324,265804,295950
653324740397513624,320379,265772,295933
653324740404955600,320328,265820,295926
653324740412397576,320372,265783,296080
653324740419839552,320263,265735,295986
653324740427281528,320273,265755,295914
653324740434723504,320208,265697,295921
653324740442165480,320184,265708,296007
653324740449607456,320114,265792,295985
653324740457049432,320170,265721,295940
653324740464491408,320162,265813,295973
653324740471933384,320097,265743,296022
653324740479375360,320194,265771,296125
653324740487064923,320128,265953,296109
653324740494492336,320202,265833,296024
653324740501919749,320229,265819,295995
653324740509347162,320209,265980,296078
653324740516774575,320261,265864,296072
653324740524201988,320203,265827,296168
653324740531629401,320263,265888,296075
653324740539056814,320255,265797,296091
653324740546484227,320256,265808,296065
653324740553911640,320259,265841,296133
653324740561339053,320242,265765,295869
653324740568766466,320853,265794,296574
653324740576193879,320468,265787,296243
653324740583621292,320356,265768,296130
653324740591048705,320340,265830,296158
653324740598476118,320219,265906,296108
653324740605903531,320268,265870,296025
653324740613330944,320336,265827,296082
653324740620510792,320351,265929,296183
653324740627952768,320280,265841,296288
653324740635394744,320384,265896,296318
653324740642836720,320349,265841,296307
653324740650278696,320376,265826,296262
653324740657720672,320412,265932,296237
653324740665162648,320339,265862,296202
653324740672604624,320383,265910,296312
653324740680046600,320201,265884,296303
653324740687488576,320272,266084,296385
653324740694930552,320311,266008,296369
653324740702372528,320382,265933,296214
653324740709814504,320282,265992,296262
653324740717256480,320234,265902,296239
653324740724698456,320294,265870,296288
653324740732140432,320274,265913,296373
653324740739582408,320311,266047,296423
653324740747024384,320476,266053,296404
653324740754590153,320650,266004,296660
653324740762024848,320588,266150,296585
653324740769459543,320526,265954,296444
653324740776894238,320505,265945,296629
653324740784328933,320607,265956,296608
653324740791763628,320619,266008,296589
653324740799198323,320562,266110,296607
653324740806633018,320599,266192,296594
653324740814067713,320618,266019,296588
653324740821502408,320584,266131,296614
653324740828937103,320582,266179,296567
653324740836371798,320621,266166,296665
653324740843806493,320687,266214,296638
653324740851241188,320616,266229,296623
653324740858675883,320689,266177,296676
653324740866110578,320633,266243,296752
653324740873545273,320694,266286,296761
653324740880979968,320775,266303,296679
653324740888414665,321543,266507,297187
653324740895849360,321222,266431,296972
653324740903284055,320982,266390,297025
653324740910718750,320886,266440,296958
653324740918153445,320929,266322,296874
653324740925588140,320784,266428,296873
653324740933022835,320959,266366,297045
653324740940457530,320940,266360,296986
653324740947892225,320904,266332,296951
653324740955326920,320900,266303,296964
653324740962761615,320946,266296,297121
653324740970196310,320920,266269,297081
653324740977631005,320880,266307,296997
653324740985065700,320853,266226,296862
653324740992500395,320763,266204,296843
653324740999935090,320648,266089,296753
653324741007369785,320755,266218,296922
653324741014804480,320708,266147,296780
653324741022239177,320584,265906,296527
653324741029673872,320655,265967,296724
653324741037108567,320679,265997,296857
653324741044543262,320645,266075,296908
653324741051977957,320610,265953,296794
653324741059412652,320647,266006,296863
653324741066847347,320587,265959,296817
653324741074282042,320524,265984,296896
653324741081716737,320457,266017,296851
653324741089151432,320506,265999,296847
653324741096586127,320434,266030,296946
653324741104020822,320397,266100,296878
653324741111455517,320217,266028,296783
653324741118890212,320458,266160,296795
653324741126324907,320379,266079,296876
653324741133759602,320440,266061,296823
653324741141194297,320506,265974,296817
653324741148628992,320456,266019,296731
653324741155939912,320356,266102,296919
653324741163381888,320333,266028,296785
653324741170823864,320348,266082,296693
653324741178265840,320403,266018,296755
653324741185707816,320455,265992,296725
653324741193149792,320399,265968,296877
653324741200591768,320443,266090,296900
653324741208033744,321070,266442,297692
653324741215475720,320690,266253,297273
653324741222917696,320452,266170,297056
653324741230359672,320341,266239,297068
653324741237801648,320383,266072,297026
653324741245243624,320480,266066,297031
653324741252685600,320475,265943,297067
653324741260127576,320520,265961,297033
653324741267569552,320394,265887,296946
653324741275011528,320453,266017,297006
653324741282453504,320435,266015,297028
653324741290019273,320475,265796,297032
653324741297453968,320471,265856,297020
653324741304888663,320340,266012,296981
653324741312323358,320384,266016,296960
653324741319758053,320242,265891,296950
653324741327192748,320341,266110,296997
653324741334627443,320274,266026,297181
653324741342062138,320265,265998,297150
653324741349496833,320361,266092,297204
653324741356931528,320231,266039,297059
653324741364366223,320232,266024,297173
653324741371800918,320135,265994,297217
653324741379235613,320190,265975,297207
653324741386670308,320199,265954,297156
653324741394105003,320249,265947,297146
653324741401539698,320278,265959,297123
653324741408974393,320266,265932,297039
653324741416409088,320214,266070,296999
653324741423843785,320554,266204,297218
653324741431278480,320414,266101,297316
653324741438713175,320350,266057,297282
653324741446147870,320255,265938,297174
653324741453582565,320316,265980,297367
653324741461017260,320423,266110,297314
653324741468451955,320383,266005,297232
653324741475886650,320309,266044,297247
653324741483321345,320253,266052,297247
653324741490756040,320195,266099,297238
653324741498190735,320030,266097,297243
653324741505625430,320153,266084,297293
653324741513060125,320299,266008,297343
653324741520494820,320116,265968,297154
653324741527929515,320850,266675,298004
653324741535364210,320465,266384,297682
653324741542798905,320261,266224,297435
653324741550233600,320233,266213,297341
653324741557544520,320473,265996,297314
653324741564986496,320365,266148,297336
653324741572428472,320240,266167,297284
653324741579870448,320324,266165,297300
653324741587312424,320359,266218,297268
653324741594754400,320399,266272,297218
653324741602196376,320336,266248,297325
653324741609638352,320311,266197,297298
653324741617080328,320305,266251,297273
653324741624522304,320236,266267,297243
653324741631964280,320251,266169,297171
653324741639406256,320261,266226,297166
653324741646848232,320214,266301,297393
653324741654290208,320365,266322,297359
653324741661732184,320387,266413,297321
653324741669174160,320468,266375,297391
653324741676616136,320374,266317,297324
653324741684058112,320295,266439,297368
653324741691500104,320289,266342,297419
653324741698942080,320305,266348,297370
653324741706384056,320422,266478,297445
653324741713826032,320561,266476,297479
653324741721268008,320545,266373,297430
653324741728709984,320425,266375,297402
653324741736151960,320490,266388,297491
653324741743593936,320625,266496,297585
653324741751035912,320564,266540,297599
653324741758477888,320510,266482,297531
653324741765919864,320576,266535,297678
653324741773361840,320638,266534,297707
653324741780803816,320605,266654,297711
653324741788245792,320716,266656,297724
653324741795687768,320629,266667,297857
653324741803129744,320645,266613,297765
653324741810571720,320700,266643,297745
653324741818013696,320766,266614,297816
653324741825703259,320781,266740,298056
653324741833130672,320623,266645,297941
653324741840558085,320719,266632,298028
653324741847985498,321362,267247,298625
653324741855412911,321075,266882,298257
653324741862840324,320777,266614,298028
653324741870267737,320698,266512,297825
653324741877695150,320561,266581,297703
653324741885122563,320625,266535,297729
653324741892549976,320613,266334,297649
653324741899977389,320487,266237,297651
653324741907404802,320470,266315,297670
653324741914832215,320337,266313,297571
653324741922259628,320424,266335,297605
653324741929687041,320440,266336,297639
653324741937114454,320383,266255,297545
653324741944541867,320440,266364,297675
653324741951969280,320352,266269,297717
653324741959272905,320561,266475,297611
653324741966707600,320456,266421,297567
653324741974142295,320345,266342,297470
653324741981576990,320334,266333,297484
653324741989011685,320389,266341,297471
653324741996446380,320113,266311,297425
653324742003881075,320229,266237,297516
653324742011315770,320319,266362,297574
653324742018750465,320348,266291,297565
653324742026185160,320303,266212,297594
653324742033619855,320321,266135,297453
653324742041054550,320332,266147,297396
653324742048489245,320355,266194,297344
653324742055923940,320281,266175,297392
653324742063358635,320348,266237,297379
653324742070793330,320285,266275,297494
653324742078228025,320120,266367,297527
653324742085662720,320329,266388,297499
653324742092973640,320311,266107,297607
653324742100415616,320285,266239,297633
653324742107857592,320369,266314,297485
653324742115299568,320305,266323,297541
653324742122741544,320333,266377,297526
653324742130183520,320331,266359,297548
653324742137625496,320320,266377,297580
653324742145067472,320455,266318,297527
653324742152509448,320454,266425,297474
653324742159951424,320465,266407,297431
653324742167393400,321028,267084,298148
653324742174835376,320678,266721,297693
653324742182277352,320537,266638,297475
653324742189719328,320473,266476,297498
653324742197161304,320434,266478,297468
653324742204603280,320463,266541,297515
653324742212045256,320385,266544,297408
653324742219487232,320408,266304,297503
653324742227053001,320607,266349,297764
653324742234487696,320587,266396,297703
653324742241922391,320562,266444,297655
653324742249357086,320478,266394,297537
653324742256791781,320379,266496,297494
653324742264226476,320372,266522,297404
653324742271661171,320458,266540,297533
653324742279095866,320457,266506,297580
653324742286530561,320392,266514,297591
653324742293965256,320277,266483,297618
653324742301399951,320289,266349,297621
653324742308834646,320282,266354,297789
653324742316269341,320242,266364,297880
653324742323704036,320202,266232,297929
653324742331138731,320225,266247,298020
653324742338573426,320170,266178,297985
653324742346008121,320211,266135,298015
653324742353442816,320166,266064,298021
653324742360877513,320182,265929,297802
653324742368312208,320017,265827,297993
653324742375746903,319953,265625,298152
653324742383181598,319774,265543,298276
653324742390616293,319656,265695,298385
653324742398050988,319453,265625,298398
653324742405485683,319570,265656,298369
653324742412920378,319547,265557,298404
653324742420355073,319437,265358,298300
653324742427789768,319433,265393,298414
653324742435224463,319276,265297,298216
653324742442659158,319369,265295,298261
653324742450093853,319246,265122,298320
653324742457528548,319205,265168,298350
653324742464963243,319098,265169,298221
653324742472397938,319034,265083,298263
653324742479832633,318980,265111,298197
653324742487267328,319492,265702,298666
653324742494578248,319028,264919,298253
653324742502020224,318899,264923,298140
653324742509462200,318856,264768,298077
653324742516904176,318700,264582,297969
653324742524346152,318602,264593,297915
653324742531788128,318507,264578,297874
653324742539230104,318459,264493,297839
653324742546672080,318492,264438,297766
653324742554114056,318473,264394,297765
653324742561556032,318493,264322,297697
653324742568998008,318206,264232,297369
653324742576439984,318120,264133,297342
653324742583881960,318122,264148,297045
653324742591323936,318019,264051,296805
653324742598765912,317965,263962,296711
653324742606207888,317994,263946,296525
653324742613649864,317868,263869,296395
653324742621091840,317889,263758,296302
653324742628657609,317843,263742,296028
653324742636092304,317793,263725,296104
653324742643526999,317810,263677,296058
653324742650961694,317737,263570,296129
653324742658396389,317783,263427,296235
653324742665831084,317708,263503,296089
653324742673265779,317787,263543,296053
653324742680700474,317724,263446,296147
653324742688135169,317650,263349,296200
653324742695569864,317525,263333,296173
653324742703004559,317505,263286,296312
653324742710439254,317576,263272,296390
653324742717873949,317560,263265,296416
653324742725308644,317354,263244,296405
653324742732743339,317347,263235,296328
653324742740178034,317417,263255,296522
653324742747612729,317494,263131,296709
653324742755047424,317271,263160,296548
653324742762482121,317070,263138,296667
653324742769916816,317140,263081,296649
653324742777351511,317169,263053,296607
653324742784786206,317148,263095,296716
653324742792220901,317245,263131,296783
653324742799655596,317188,262980,296700
653324742807090291,317785,263632,297408
653324742814524986,317374,263209,297016
653324742821959681,317189,263108,296885
653324742829394376,317016,262972,296809
653324742836829071,317014,262962,296759
653324742844263766,316960,262975,296661
653324742851698461,317024,262937,296632
653324742859133156,316851,262871,296551
653324742866567851,316852,262869,296414
653324742874002546,316829,262889,296345
653324742881437241,316869,262876,296447
653324742888871936,316784,262875,296405
653324742896306633,316948,262971,296599
653324742903741328,316807,262970,296505
653324742911176023,316778,263002,296506
653324742918610718,316709,262878,296424
653324742926045413,316711,262962,296428
653324742933480108,316740,262954,296541
653324742940914803,316721,262791,296520
653324742948349498,316783,262794,296523
653324742955784193,316756,262792,296482
653324742963218888,316739,262798,296360
653324742970653583,316700,262919,296352
653324742978088278,316754,262935,296331
653324742985522973,316797,262877,296358
653324742992957668,316755,262920,296470
653324743000392363,316753,262788,296480
653324743007827058,316759,262775,296441
653324743015261753,316792,262855,296529
653324743022696448,316715,262845,296501
653324743030131145,316556,262610,296568
653324743037565840,316622,262816,296479
653324743045000535,316584,262810,296288
653324743052435230,316536,262871,296310
653324743059869925,316662,262833,296278
653324743067304620,316630,262818,296317
653324743074739315,316700,262867,296296
653324743082174010,316701,262868,296175
653324743089608705,316601,262722,296175
653324743097043400,316745,262836,296283
653324743104478095,316601,262873,296180
653324743111912790,316731,262911,296205
653324743119347485,316733,262868,296149
653324743126782180,317414,263489,296855
653324743134216875,317127,263133,296401
653324743141651570,317000,263072,296133
653324743149086265,316937,263022,296075
653324743156520960,316953,263084,296010
653324743163955657,317152,263223,295559
653324743171390352,316984,263214,295798
653324743178825047,316828,263127,295618
653324743186259742,316819,263204,295638
653324743193694437,316972,263140,295661
653324743201129132,316947,263252,295631
653324743208563827,316964,263194,295564
653324743215998522,317065,263257,295687
653324743223433217,317061,263306,295730
653324743230867912,317082,263260,295732
653324743238302607,317073,263333,295773
653324743245737302,317215,263329,295835
653324743253171997,317227,263351,295678
653324743260606692,317300,263285,295740
653324743268041387,317251,263286,295843
653324743275476082,317336,263384,295837
653324743282910777,317384,263406,295870
653324743290345472,317277,263410,295809
653324743297656392,317205,263369,296009
653324743305098368,317432,263357,295859
653324743312540344,317461,263312,295797
653324743319982320,317442,263458,295868
653324743327424296,317379,263474,295773
653324743334866272,317433,263434,295957
653324743342308248,317531,263514,295763
653324743349750224,317530,263432,295842
653324743357192200,317509,263502,295807
653324743364634176,317523,263387,295841
653324743372076152,317525,263554,295822
653324743379518128,317536,263581,295781
653324743386960104,317369,263480,295866
653324743394402080,317373,263507,296020
653324743401844056,317504,263384,295907
653324743409286032,317527,263505,295979
653324743416728008,317539,263530,296069
653324743424169984,317518,263544,295942
653324743431735753,317433,263698,295850
653324743439170448,317358,263560,295911
653324743446605143,318162,264224,296638
653324743454039838,317888,263793,296295
653324743461474533,317552,263672,296191
653324743468909228,317533,263663,296020
653324743476343923,317553,263537,296055
653324743483778618,317580,263638,296104
653324743491213313,317488,263593,296088
653324743498648008,317585,263613,296175
653324743506082703,317696,263696,296237
653324743513517398,317558,263644,296151
653324743520952093,317575,263640,296214
653324743528386788,317613,263582,296181
653324743535821483,317621,263493,296143
653324743543256178,317624,263488,296086
653324743550690873,317551,263459,296124
653324743558125568,317519,263452,296094
653324743565560265,317252,263517,296202
653324743572994960,317281,263299,296044
653324743580429655,317306,263314,295911
653324743587864350,317352,263299,295984
653324743595299045,317334,263276,296088
653324743602733740,317319,263079,296110
653324743610168435,317068,263126,295951
653324743617603130,317094,263035,296048
653324743625037825,317200,263018,296059
653324743632472520,317053,263053,295909
653324743639907215,317051,263031,295969
653324743647341910,316980,263035,295857
653324743654776605,316796,262942,295979
653324743662211300,316786,262997,295972
653324743669645995,316845,262979,295979
653324743677080690,316822,262914,296003
653324743684515385,316836,262918,295917
653324743691950080,316842,262960,295900
6.53325E+17,316660,262824,295624
653324743706702976,316719,262920,295747
653324743714144952,316652,262835,295733
653324743721586928,316754,262843,295696
653324743729028904,316650,262867,295750
653324743736470880,316573,262719,295761
653324743743912856,316672,262750,295842
653324743751354832,316574,262858,295716
653324743758796808,316620,262745,295625
653324743766238784,316810,263399,296197
653324743773680760,316690,263156,295864
653324743781122736,316620,262955,295734
653324743788564712,316518,262875,295742
653324743796006688,316489,262791,295710
653324743803448664,316394,262797,295683
653324743810890640,316437,262799,295666
653324743818332616,316431,262821,295652
653324743825774592,316453,262735,295601
653324743833340361,316749,262468,295505
653324743840775056,316573,262537,295529
653324743848209751,316500,262582,295633
653324743855644446,316396,262544,295679
653324743863079141,316344,262612,295612
653324743870513836,316378,262591,295646
653324743877948531,316353,262518,295667
653324743885383226,316390,262621,295511
653324743892817921,316292,262611,295477
653324743900252616,316179,262537,295601
653324743907687311,316234,262479,295596
653324743915122006,316108,262480,295577
653324743922556701,316017,262510,295370
653324743929991396,316039,262441,295447
653324743937426091,316105,262397,295585
653324743944860786,316096,262424,295524
653324743952295481,315980,262367,295391
653324743959730176,315989,262353,295410
653324743967164873,316033,262171,295391
653324743974599568,315961,262221,295477
653324743982034263,315914,262276,295431
653324743989468958,315855,262134,295465
653324743996903653,315832,262262,295461
653324744004338348,315856,262282,295404
653324744011773043,315852,262230,295380
653324744019207738,315835,262125,295412
653324744026642433,315833,262270,295297
653324744034077128,315858,262190,295284
653324744041511823,315711,262293,295266
653324744048946518,315796,262250,295397
653324744056381213,315832,262234,295312
653324744063815908,315690,262342,295399
653324744071250603,315747,262332,295467
653324744078685298,315764,262274,295452
653324744086119993,315800,262954,296024
653324744093554688,315865,262582,295808
653324744100865608,315839,262297,295566
653324744108307584,315726,262206,295407
653324744115749560,315725,262188,295390
653324744123191536,315821,262179,295417
653324744130633512,315738,262073,295440
653324744138075488,315747,262071,295383
653324744145517464,315997,262101,295294
653324744152959440,315905,262144,295297
653324744160401416,315850,262183,295327
653324744167843392,315612,262207,295285
653324744175285368,315674,262194,295217
653324744182727344,315675,262312,295283
653324744190169320,315579,262292,295136
653324744197611296,315659,262222,295288
653324744205053272,315684,262277,295261
653324744212495248,315677,262137,295255
653324744219937224,315602,262200,295240
653324744227379200,315680,262227,295167
653324744234944969,315876,262277,295115
653324744242379664,315686,262240,295042
653324744249814359,315682,262306,295050
653324744257249054,315528,262233,294967
653324744264683749,315698,262289,294985
653324744272118444,315721,262244,295076
653324744279553139,315878,262216,295119
653324744286987834,315812,262230,295086
653324744294422529,315745,262268,294938
653324744301857224,315812,262227,295020
653324744309291919,315770,262254,294983
653324744316726614,315819,262356,294986
653324744324161309,315857,262405,295093
653324744331596004,315870,262408,295007
653324744339030699,315732,262415,294855
653324744346465394,315902,262411,294925
653324744353900089,315821,262382,294949
653324744361334784,315851,262389,294884
653324744368769481,316003,262404,294831
653324744376204176,315953,262256,294959
653324744383638871,315944,262398,294936
653324744391073566,315895,262498,294928
653324744398508261,315892,262364,294830
653324744405942956,315961,263048,295474
653324744413377651,316029,262595,295124
653324744420812346,315988,262501,295005
653324744428247041,315901,262267,294797
653324744435681736,316072,262213,294786
653324744443116431,315871,262256,294723
653324744450551126,315666,262224,294578
653324744457985821,315827,262171,294542
653324744465420516,316356,262071,294557
653324744472855211,316061,262064,294592
653324744480289906,315843,262085,294439
653324744487724601,315599,261997,294277
653324744495159296,315618,262008,294333
653324744502593993,315455,261683,294375
653324744510028688,315491,261933,294308
653324744517463383,315473,261939,294199
653324744524898078,315459,261922,294218
653324744532332773,315554,261996,294211
653324744539767468,315487,261978,294150
653324744547202163,315601,261929,294167
653324744554636858,315541,261953,294187
653324744562071553,315593,261924,294155
653324744569506248,315570,262036,294096
653324744576940943,315456,261927,293954
653324744584375638,315583,262004,293977
653324744591810333,315539,261885,293958
653324744599245028,315463,261779,294042
653324744606679723,315540,261902,294067
653324744614114418,315510,261919,293890
653324744621549113,315517,261921,293843
653324744628983808,315523,261958,293922
653324744636294728,315643,261946,293996
653324744643736704,315646,262031,294006
653324744651178680,315540,261906,293945
653324744658620656,315543,261971,293988
653324744666062632,315510,261955,294036
653324744673504608,315489,262016,293979
653324744680946584,315562,262026,294023
653324744688388560,315527,262022,294035
653324744695830536,315614,261999,294070
653324744703272512,315540,262035,294084
653324744710714488,315408,262018,293924
653324744718156464,315452,261975,293909
653324744725598440,315466,262570,294652
653324744733040416,315429,262182,294319
653324744740482392,315456,262028,294053
653324744747924368,315425,261860,294015
653324744755366344,315471,261882,294055
653324744762808320,315447,261848,293879
653324744770497883,315317,262121,293825
653324744777925296,315377,261965,293937
653324744785352709,316010,261893,294029
653324744792780122,315744,261998,294099
653324744800207535,315496,261843,294021
653324744807634948,315286,261777,293912
653324744815062361,315241,261798,293880
653324744822489774,315278,261775,293969
653324744829917187,315227,261693,294011
653324744837344600,315151,261693,294072
653324744844772013,315238,261663,294084
653324744852199426,315212,261740,293984
653324744859626839,315215,261730,293863
653324744867054252,315186,261740,293957
653324744874481665,315197,261845,293980
653324744881909078,315263,261842,293941
653324744889336491,315230,261782,293930
653324744896763904,315213,261859,294032
653324744903943752,315162,261716,293897
653324744911385728,315294,261856,294021
653324744918827704,315175,261775,294026
653324744926269680,315122,261725,293779
653324744933711656,315108,261763,293881
653324744941153632,315035,261803,293875
653324744948595608,315086,261813,293891
653324744956037584,315152,261755,293977
653324744963479560,314996,261860,293911
653324744970921536,315042,261934,293822
653324744978363512,315122,261953,294061
653324744985805488,314999,262002,293981
653324744993247464,315051,261982,294057
653324745000689440,314946,261865,293995
653324745008131416,314991,261850,293961
653324745015573392,315108,261926,293982
653324745023015368,314973,261957,293978
653324745030457344,314894,261892,294092
653324745037899336,314868,261738,294262
653324745045341312,314951,262520,294402
653324745052783288,314872,262222,294276
653324745060225264,315025,262095,294214
653324745067667240,315024,262068,294289
653324745075109216,315035,261992,294212
653324745082551192,315034,261982,294233
653324745089993168,315119,261827,294367
653324745097435144,315070,261747,294244
653324745104877120,315599,261864,294184
653324745112319096,315283,261912,294083
653324745119761072,315234,261996,294104
653324745127203048,315088,261939,294194
653324745134645024,314983,261957,294198
6.53325E+17,314966,261951,294162
653324745149528976,315026,261954,294135
653324745156970952,315074,262031,294113
653324745164412928,315043,262067,294209
653324745171978697,315193,261781,294372
653324745179413392,315071,261918,294300
653324745186848087,315039,261981,294261
653324745194282782,315078,262024,294386
653324745201717477,315027,262041,294263
653324745209152172,315046,262041,294347
653324745216586867,314980,262127,294323
653324745224021562,315121,262174,294416
653324745231456257,315084,262020,294408
653324745238890952,315077,262037,294323
653324745246325647,315072,262086,294339
653324745253760342,315137,262073,294569
653324745261195037,315150,262121,294482
653324745268629732,315100,262202,294594
653324745276064427,315195,262155,294513
653324745283499122,315225,262160,294555
653324745290933817,315205,262108,294502
653324745298368512,315180,262074,294428
653324745305803209,315161,262284,294671
653324745313237904,315069,262184,294481
653324745320672599,315095,262012,294386
653324745328107294,315030,262019,294540
653324745335541989,315064,261962,294593
653324745342976684,315082,261901,294510
653324745350411379,314943,261772,294433
653324745357846074,314957,261911,294438
653324745365280769,314948,262363,294364
653324745372715464,314924,262118,294151
653324745380150159,314781,261828,294004
653324745387584854,314905,261732,293990
653324745395019549,314808,261714,293865
653324745402454244,314840,261719,293801
653324745409888939,314828,261815,293659
653324745417323634,314910,261698,293387
653324745424758329,315556,261886,293543
653324745432193024,315093,261897,293537
653324745439627721,315223,261961,293671
653324745447062416,314878,261927,293492
653324745454497111,314844,262022,293332
653324745461931806,314824,261965,293268
653324745469366501,314978,262069,293240
653324745476801196,315082,262141,293376
653324745484235891,315136,262179,293382
653324745491670586,315055,262136,293316
653324745499105281,315073,262136,293308
653324745506539976,314912,262049,293204
653324745513974671,315046,262124,293234
653324745521409366,315042,262163,293261
653324745528844061,315013,262122,293249
653324745536278756,315011,262126,293313
653324745543713451,315123,262237,293239
653324745551148146,315061,262207,293342
653324745558582841,315180,262281,293284
653324745566017536,315219,262186,293365
653324745573328456,315176,262157,293370
653324745580770432,315152,262248,293394
653324745588212408,315164,262313,293363
653324745595654384,315083,262322,293326
653324745603096360,315216,262413,293294
653324745610538336,315221,262292,293383
653324745617980312,315238,262253,293369
653324745625422288,315308,262302,293357
653324745632864264,315285,262360,293432
653324745640306240,315295,262413,293495
653324745647748216,315244,262274,293315
653324745655190192,315249,262346,293407
653324745662632168,315334,262373,293461
653324745670074144,315335,262418,293516
653324745677516120,315250,262315,293438
653324745684958096,315232,262830,293329
653324745692400072,315219,262561,293347
653324745699842048,315200,262383,293369
653324745707531611,315122,262100,293458
653324745714959024,315271,262190,293285
653324745722386437,315243,262309,293372
653324745729813850,315214,262255,293357
653324745737241263,315091,262287,293361
653324745744668676,315882,262328,293852
653324745752096089,315533,262389,293656
653324745759523502,315366,262298,293539
653324745766950915,315089,262265,293494
653324745774378328,315161,262338,293637
653324745781805741,315190,262447,293568
653324745789233154,315159,262375,293617
653324745796660567,315142,262401,293604
653324745804087980,315284,262275,293552
653324745811515393,315107,262402,293475
653324745818942806,315193,262366,293618
653324745826370219,315204,262323,293523
653324745833797632,315215,262411,293630
653324745841101257,315545,262561,293720
653324745848535952,315364,262470,293657
653324745855970647,315308,262460,293686
653324745863405342,315471,262431,293842
653324745870840037,315403,262365,293751
653324745878274732,315277,262285,293777
653324745885709427,315275,262321,293778
653324745893144122,315293,262290,293783
653324745900578817,315368,262271,293606
653324745908013512,315377,262349,293741
653324745915448207,315347,262444,293758
653324745922882902,315369,262423,293869
653324745930317597,315392,262430,293953
653324745937752292,315339,262341,293986
653324745945186987,315237,262431,293868
653324745952621682,315289,262395,293862
653324745960056377,315325,262392,293928
653324745967491072,315273,262462,293923
653324745974678198,315156,262464,294036
653324745982127456,315319,262501,294057
653324745989576714,315340,262523,293938
653324745997025972,315341,262523,294089
653324746004475230,315311,262706,294012
653324746011924488,315345,262628,293973
653324746019373746,315295,262599,293973
653324746026823004,315355,262475,294047
653324746034272262,315394,262466,294064
653324746041721520,315340,262493,294082
653324746049170778,315266,262559,294005
653324746056620036,315335,262487,294119
653324746064069294,315981,262443,294696
653324746071518552,315573,262558,294475
653324746078967810,315733,262534,293848
653324746086417068,315555,262614,293913
653324746093866326,315506,262582,294041
653324746101315584,315510,262551,294114
653324746109136219,315428,262281,294238
653324746116563632,315504,262524,294239
653324746123991045,315559,262620,294249
653324746131418458,315583,262549,294266
653324746138845871,315513,262685,294195
653324746146273284,315559,262648,294331
653324746153700697,315584,262668,294416
653324746161128110,315709,262753,294351
653324746168555523,315648,262741,294246
653324746175982936,315777,262732,294271
653324746183410349,315851,262827,294351
653324746190837762,315715,262719,294388
653324746198265175,315720,262684,294324
653324746205692588,315656,262678,294251
653324746213120001,315744,262665,294351
653324746220547414,315701,262575,294269
653324746227974827,315682,262554,294170
653324746235402240,315711,262581,294168
653324746242582088,315311,262267,294206
653324746250024064,315307,262302,294072
653324746257466040,315384,262292,294007
653324746264908016,315336,262269,294017
653324746272349992,315303,262227,293932
653324746279791968,315353,262240,293802
653324746287233944,315400,262125,293931
653324746294675920,315294,262191,293779
653324746302117896,315317,262188,293731
653324746309559872,315316,262195,293724
653324746317001848,315289,262144,293682
653324746324443824,315330,262178,293751
653324746331885800,315302,262187,293741
653324746339327776,315246,262112,293672
653324746346769752,315127,262076,293733
653324746354211728,315238,262157,293869
653324746361653704,315274,262095,293813
653324746369095680,315284,262212,293880
653324746376661449,315254,262170,293672
653324746384096144,315730,262340,294532
653324746391530839,315527,262306,294167
653324746398965534,315423,262259,294041
653324746406400229,315384,262374,293999
653324746413834924,315462,262373,294155
653324746421269619,315475,262370,294141
653324746428704314,315452,262397,294209
653324746436139009,315629,262479,294404
653324746443573704,315568,262366,294390
653324746451008399,315520,262406,294404
653324746458443094,315582,262483,294306
653324746465877789,315539,262510,294331
653324746473312484,315629,262518,294230
653324746480747179,315487,262402,294390
653324746488181874,315530,262324,294384
653324746495616569,315538,262415,294418
653324746503051264,315729,262564,294456
653324746510485961,315547,262357,294221
653324746517920656,315538,262407,294349
653324746525355351,315575,262499,294416
653324746532790046,315697,262433,294522
653324746540224741,315608,262502,294445
653324746547659436,315674,262330,294397
653324746555094131,315709,262434,294328
653324746562528826,315566,262470,294295
653324746569963521,315647,262466,294340
653324746577398216,315619,262463,294379
653324746584832911,315600,262443,294341
653324746592267606,315577,262372,294467
653324746599702301,315613,262394,294328
653324746607136996,315583,262356,294204
653324746614571691,315576,262292,294257
653324746622006386,315630,262407,294243
653324746629441081,315662,262442,294290
653324746636875776,315698,262460,294256
653324746644310473,315626,262536,294103
653324746651745168,315570,262476,294268
653324746659179863,315625,262477,294210
653324746666614558,315551,262433,294212
653324746674049253,315562,262355,294301
653324746681483948,315565,262431,294337
653324746688918643,315635,262327,294339
653324746696353338,315745,262310,294437
653324746703788033,316370,262941,294969
653324746711222728,315852,262633,294560
653324746718657423,315766,262519,294411
653324746726092118,315785,262427,294303
653324746733526813,315635,262392,294271
653324746740961508,315639,262407,294312
653324746748396203,315756,262456,294325
653324746755830898,315693,262396,294283
653324746763265593,315707,262472,294362
653324746770700288,315709,262474,294348
653324746778011208,315539,262415,294585
653324746785453184,315661,262509,294551
653324746792895160,315813,262608,294436
653324746800337136,315702,262582,294374
653324746807779112,315686,262559,294388
653324746815221088,315810,262584,294370
653324746822663064,315905,262605,294473
653324746830105040,316014,262674,294587
653324746837547016,315936,262714,294462
653324746844988992,315987,262765,294430
653324746852430968,316026,262684,294524
653324746859872944,316070,262802,294621
653324746867314920,316046,262796,294469
653324746874756896,316055,262790,294627
653324746882198872,316024,262864,294606
653324746889640848,316110,262782,294733
653324746897082824,316046,262933,294748
653324746904524800,316163,262889,294696
653324746912090569,316233,262553,294817
653324746919525264,316099,262817,294676
653324746926959959,316220,262903,294707
653324746934394654,316270,262828,294713
653324746941829349,316256,262835,294872
653324746949264044,316362,262791,294834
653324746956698739,316358,262843,294744
653324746964133434,316280,262914,294754
653324746971568129,316177,262936,294782
653324746979002824,316224,262934,294810
653324746986437519,316341,262800,294745
653324746993872214,316304,262948,294938
653324747001306909,316493,263044,294854
653324747008741604,316394,262934,294862
653324747016176299,316353,262905,294834
653324747023610994,317001,263671,295537
653324747031045689,316802,263330,295190
653324747038480384,316578,263194,295141
653324747045915081,316471,263261,294855
653324747053349776,316564,263162,294934
653324747060784471,316565,263111,295019
653324747068219166,316643,263141,295092
653324747075653861,316551,263035,295071
653324747083088556,316581,262988,295095
653324747090523251,316690,263006,295011
653324747097957946,316727,263165,295056
653324747105392641,316681,262973,295071
653324747112827336,316600,263030,294988
653324747120262031,316562,262984,295025
653324747127696726,316495,262955,295042
653324747135131421,316476,262847,294934
653324747142566116,316521,262885,294934
653324747150000811,316487,262800,294830
653324747157435506,316422,262688,294824
653324747164870201,316487,262708,294864
653324747172304896,316414,262657,294903
653324747179615816,316215,262561,295059
653324747187057792,316264,262485,294939
653324747194499768,316289,262560,294862
653324747201941744,316348,262543,294776
653324747209383720,316323,262485,294831
653324747216825696,316242,262605,294869
653324747224267672,316202,262564,294847
653324747231709648,316268,262608,294826
653324747239151624,316267,262681,294879
653324747246593600,316141,262603,294850
653324747254035576,316196,262629,294780
653324747261477552,316131,262621,294720
653324747268919528,316154,262530,294775
653324747276361504,316083,262518,294715
653324747283803480,316204,262652,294780
653324747291245456,316208,262574,294771
653324747298687432,316264,262641,294827
653324747306129408,316234,262631,294712
653324747313695177,316046,262220,294779
653324747321129872,316050,262450,294741
653324747328564567,316139,262514,294780
653324747335999262,316214,262513,294858
653324747343433957,316935,263315,295451
653324747350868652,316550,263010,295039
653324747358303347,316361,262649,294783
653324747365738042,316450,262729,294965
653324747373172737,316404,262734,295015
653324747380607432,316360,262772,294868
653324747388042127,316395,262816,295049
653324747395476822,316416,262760,295095
653324747402911517,316392,262793,295065
653324747410346212,316439,262772,294963
653324747417780907,316431,262733,295015
653324747425215602,316344,262798,294963
653324747432650297,316350,262723,295058
653324747440084992,316438,262733,295032
653324747447519689,316306,262824,295185
653324747454954384,316498,262807,295176
653324747462389079,316447,262895,295198
653324747469823774,316460,262830,295103
653324747477258469,316506,262686,295122
653324747484693164,316445,262654,295160
653324747492127859,316396,262763,295089
653324747499562554,316569,262794,295068
653324747506997249,316523,262845,295053
653324747514431944,316538,262889,295087
653324747521866639,316705,262891,295155
653324747529301334,316664,262854,295239
653324747536736029,316666,262853,295103
653324747544170724,316674,262820,295191
653324747551605419,316624,262841,295141
653324747559040114,316667,262926,295202
653324747566474809,316710,262987,295227
653324747573909504,316726,263045,295284
653324747581344201,316933,262956,295274
653324747588778896,316873,263059,295341
653324747596213591,316787,262978,295289
653324747603648286,316829,263061,295457
653324747611082981,316782,262883,295431
653324747618517676,316752,262895,295411
653324747625952371,316700,263033,295380
653324747633387066,316824,263003,295409
653324747640821761,316901,263142,295552
653324747648256456,316846,263055,295448
653324747655691151,316842,263099,295490
653324747663125846,317455,263825,296200
653324747670560541,316931,263316,295671
653324747677995236,316869,263191,295498
653324747685429931,316890,263207,295472
653324747692864626,316857,263165,295568
653324747700299321,316835,263173,295559
653324747707734016,316864,263195,295501
653324747715044936,316768,262866,295699
653324747722486912,316894,263107,295651
653324747729928888,316905,263163,295701
653324747737370864,316947,263122,295643
653324747744812840,316923,263090,295643
653324747752254816,317012,263246,295741
653324747759696792,316971,263187,295691
653324747767138768,316983,263284,295763
653324747774580744,317135,263321,295746
653324747782022720,317009,263277,295697
653324747789464696,317075,263270,295698
653324747796906672,317102,263209,295662
653324747804348648,317065,263163,295682
653324747811790624,317066,263156,295719
653324747819232600,317029,263311,295805
653324747826674576,317068,263378,295836
653324747834116552,317068,263396,295789
653324747841558528,317160,263378,295837
653324747849124297,316909,263334,295906
653324747856558992,317148,263414,295813
653324747863993687,317127,263379,295859
653324747871428382,317169,263338,296014
653324747878863077,317314,263429,295909
653324747886297772,317144,263436,295832
653324747893732467,317245,263447,295800
653324747901167162,317230,263438,295973
653324747908601857,317270,263407,295955
653324747916036552,317350,263439,295938
653324747923471247,317345,263540,296028
653324747930905942,317381,263554,296023
653324747938340637,317323,263543,296040
653324747945775332,317324,263487,296035
653324747953210027,317354,263507,295978
653324747960644722,317407,263528,296093
653324747968079417,317411,263547,295926
653324747975514112,317425,263567,295968
653324747982948809,317874,264010,296656
653324747990383504,317657,263754,296259
653324747997818199,317490,263539,296162
653324748005252894,317346,263477,296079
653324748012687589,317316,263433,295959
653324748020122284,317306,263406,295920
653324748027556979,317346,263336,295918
653324748034991674,317253,263262,296015
653324748042426369,317234,263191,295876
653324748049861064,317191,263123,295679
653324748057295759,317161,263160,295735
653324748064730454,317154,263172,295771
653324748072165149,317125,263169,295812
653324748079599844,317127,263173,295728
653324748087034539,317089,263154,295689
653324748094469234,317049,263077,295703
653324748101903929,317055,262998,295728
653324748109338624,317031,263143,295666
653324748116773321,317106,263004,295727
653324748124208016,317016,263029,295775
653324748131642711,317075,262985,295792
653324748139077406,316984,263015,295682
653324748146512101,316983,263100,295785
653324748153946796,316872,263023,295684
653324748161381491,316957,262987,295738
653324748168816186,317017,263038,295776
653324748176250881,317035,262998,295697
653324748183685576,316954,263020,295804
653324748191120271,316948,262970,295740
653324748198554966,316885,262867,295724
653324748205989661,316796,262855,295731
653324748213424356,316938,262957,295602
653324748220859051,316760,262991,295667
653324748228293746,316814,262939,295840
653324748235728441,316904,262917,295684
653324748243163136,316922,262958,295702
653324748250474056,317032,263057,295728
653324748257916032,316920,263039,295733
653324748265358008,316973,262920,295749
653324748272799984,316942,262943,295801
653324748280241960,316888,262905,295881
653324748287683936,316913,263022,295772
653324748295125912,316958,262999,295796
653324748302567888,316961,263566,296462
653324748310009864,316874,263294,296018
653324748317451840,316924,263093,295886
653324748324893816,316889,263090,295720
653324748332335792,316889,263006,295795
653324748339777768,316932,263040,295698
653324748347219744,316922,263046,295639
653324748354661720,316901,262888,295686
653324748362103696,316895,262963,295616
653324748369545672,316732,262841,295633
653324748376987648,316775,262919,295669
653324748384553417,317061,262933,295870
653324748391988112,316959,262968,295796
653324748399422807,316888,262933,295832
653324748406857502,316861,262922,295778
653324748414292197,316896,263003,295725
653324748421726892,316804,262963,295791
653324748429161587,316736,262947,295840
653324748436596282,316958,262999,295805
653324748444030977,316733,262962,295764
653324748451465672,316851,263036,295803
653324748458900367,316861,263101,295776
653324748466335062,316924,263065,295769
653324748473769757,316929,263042,295691
653324748481204452,316869,262965,295809
653324748488639147,316922,263070,295914
653324748496073842,316897,263050,295778
653324748503508537,316925,263088,295769
653324748510943232,316922,263178,295908
653324748518377929,316876,263269,296157
653324748525812624,316863,263216,296053
653324748533247319,316810,263197,295932
653324748540682014,316831,263196,295884
653324748548116709,316819,263110,295789
653324748555551404,316872,263191,295798
653324748562986099,316837,263081,295762
653324748570420794,316807,263139,295872
653324748577855489,316901,263112,295857
653324748585290184,316760,263094,295920
653324748592724879,316925,263118,296051
653324748600159574,316981,263195,295909
653324748607594269,316852,263211,295866
653324748615028964,316950,263046,295885
653324748622463659,317065,263753,296520
653324748629898354,317011,263460,296212
653324748637333049,316852,263308,295967
653324748644767744,316856,263253,295856
653324748652202441,317001,263095,295960
653324748659637136,317015,263197,295914
653324748667071831,317010,263154,295987
653324748674506526,316916,263238,295944
653324748681941221,317500,263278,296083
653324748689375916,317247,263302,295881
653324748696810611,317141,263238,295872
653324748704245306,317043,263210,295850
653324748711680001,317040,263321,295977
653324748719114696,317060,263271,296006
653324748726549391,317091,263261,296001
653324748733984086,317138,263267,296035
653324748741418781,317134,263379,295992
653324748748853476,317110,263400,295955
653324748756288171,317133,263453,296007
653324748763722866,317109,263425,296066
653324748771157561,317160,263412,296149
653324748778592256,317170,263455,296123
653324748785903176,317215,263467,296244
653324748793345152,317130,263479,296153
653324748800787128,317217,263625,296288
653324748808229104,317305,263616,296160
653324748815671080,317422,263630,296198
653324748823113056,317362,263640,296279
653324748830555032,317404,263579,296116
653324748837997008,317352,263555,296182
653324748845438984,317404,263525,296139
653324748852880960,317283,263549,296202
653324748860322936,317309,263549,296281
653324748867764912,316974,263338,296263
653324748875206888,317211,263473,296199
653324748882648864,317192,263356,296131
653324748890090840,317196,263394,296024
653324748897532816,317245,263350,296019
653324748904974792,317294,263206,296086
653324748912416768,317235,263257,295904
653324748919982537,317146,263494,296083
653324748927417232,317117,263395,295953
653324748934851927,317080,263225,295885
653324748942286622,316972,263857,296405
653324748949721317,317006,263521,296052
653324748957156012,317053,263267,295843
653324748964590707,317063,263169,295795
653324748972025402,317076,263117,295736
653324748979460097,317005,263057,295806
653324748986894792,316997,263055,295663
653324748994329487,317026,263096,295781
653324749001764182,317594,262989,295697
653324749009198877,317308,263079,295655
653324749016633572,317107,263004,295749
653324749024068267,317077,263016,295759
653324749031502962,316981,263045,295846
653324749038937657,317001,263072,295693
653324749046372352,316975,262970,295641
653324749053683272,317167,262821,295706
653324749061125248,317006,262803,295758
653324749068567224,317042,262896,295897
653324749076009200,316908,262923,295763
653324749083451176,316890,262976,295594
653324749090893152,316841,262978,295554
653324749098335128,316861,262875,295737
653324749105777104,316877,262855,295715
653324749113219080,316779,262793,295602
653324749120661056,317055,263038,295762
653324749128103032,316922,263039,295664
653324749135545008,316901,263062,295648
653324749142986984,316947,263080,295805
653324749150428960,316897,263005,295812
653324749157870936,316919,263037,295810
653324749165312912,316774,263028,295766
653324749172754888,316888,263050,295703
653324749180196864,316807,263037,295761
653324749187762633,317008,263225,295705
653324749195197328,316721,263049,295793
653324749202632023,316729,262995,295662
653324749210066718,316733,262944,295718
653324749217501413,316729,262942,295680
653324749224936108,316727,262992,295647
653324749232370803,316825,263055,295740
653324749239805498,316813,262904,295788
653324749247240193,316759,262925,295689
653324749254674888,316787,263025,295721
653324749262109583,316784,263378,295662
653324749269544278,316822,263095,295791
653324749276978973,316777,263148,295695
653324749284413668,316753,262904,295577
653324749291848363,316750,262990,295683
653324749299283058,316819,263058,295663
653324749306717753,316789,263040,295642
653324749314152448,316737,262968,295543
653324749321587145,317616,263050,296233
653324749329021840,317096,262991,295914
653324749336456535,316870,263026,295741
653324749343891230,316771,262963,295604
653324749351325925,316772,263042,295681
653324749358760620,316841,262996,295648
653324749366195315,316748,263016,295683
653324749373630010,316763,263067,295649
653324749381064705,316805,263120,295756
653324749388499400,316803,263208,295745
653324749395934095,316812,263050,295615
653324749403368790,316795,262995,295539
653324749410803485,316792,262998,295638
653324749418238180,316739,263012,295686
653324749425672875,316736,262994,295636
653324749433107570,316672,263004,295594
653324749440542265,316716,263179,295669
653324749447976960,316636,263091,295684
653324749455287880,316588,263166,295458
653324749462729856,316761,263064,295624
653324749470171832,316655,263035,295566
653324749477613808,316735,263108,295715
653324749485055784,316662,263028,295714
653324749492497760,316721,263137,295793
653324749499939736,316816,263100,295842
653324749507381712,316819,263003,295887
653324749514823688,316855,263073,295719
653324749522265664,316689,263066,295641
653324749529707640,316750,263062,295790
653324749537149616,316804,263055,295905
653324749544591592,316913,263164,295800
653324749552033568,316777,263275,295835
653324749559475544,316814,263255,295887
653324749566917520,316828,263174,295824
653324749574359496,316845,263148,295806
653324749581801472,316825,263199,295934
653324749589491035,316869,263368,295949
653324749596918448,316800,263055,295900
653324749604345861,316840,263169,295868
653324749611773274,316831,263142,295880
653324749619200687,316876,263161,295975
653324749626628100,316853,263195,295900
653324749634055513,316821,263203,295769
653324749641482926,317454,263825,296479
653324749648910339,317195,263471,296312
653324749656337752,317097,263387,296081
653324749663765165,317075,263264,296059
653324749671192578,317053,263311,295944
653324749678619991,317046,263277,296055
653324749686047404,317092,263298,295983
653324749693474817,317086,263343,295969
653324749700902230,317001,263243,295974
653324749708329643,317053,263402,296046
653324749715757056,317100,263368,295978
653324749722936904,317303,263317,295833
653324749730378880,317091,263305,296048
653324749737820856,317108,263306,296024
653324749745262832,317138,263300,296054
653324749752704808,317221,263217,296188
653324749760146784,317219,263257,296229
653324749767588760,317254,263232,296225
653324749775030736,317120,263203,296147
653324749782472712,317045,263258,295951
653324749789914688,317064,263084,295992
653324749797356664,316918,263103,295940
653324749804798640,316929,263104,295962
653324749812240616,316985,263096,296019
653324749819682592,316950,263097,295978
653324749827124568,316880,262968,295910
653324749834566544,316783,262885,295908
653324749842008520,316886,262922,295850
653324749849450496,316740,262924,295786
653324749857016265,316481,262655,295503
653324749864450960,316494,262813,295571
653324749871885655,316715,262913,295646
653324749879320350,316633,262893,295651
653324749886755045,316708,262892,295716
653324749894189740,316583,262800,295646
653324749901624435,316601,262826,295713
653324749909059130,316759,262854,295605
653324749916493825,316810,262788,295596
653324749923928520,316728,262866,295644
653324749931363215,316686,262849,295703
653324749938797910,316653,262909,295682
653324749946232605,316716,262813,295713
653324749953667300,316665,262821,295621
653324749961101995,317307,263487,296235
653324749968536690,316904,263161,295935
653324749975971385,316845,263013,295741
653324749983406080,316879,263027,295791
653324749990840777,317011,262942,295681
653324749998275472,316749,262904,295724
653324750005710167,316810,262906,295899
653324750013144862,316745,262851,295728
653324750020579557,316685,262834,295721
653324750028014252,316681,262751,295653
653324750035448947,316714,262845,295611
653324750042883642,316718,262876,295654
653324750050318337,316778,262806,295674
653324750057753032,316799,262895,295598
653324750065187727,316789,262855,295546
653324750072622422,316717,262848,295691
653324750080057117,316998,262981,295427
