timestamp,ch1,ch2,ch3
653223594834216448,283865,279399,378335
653223594841654784,283874,279365,378391
653223594849093120,283793,279242,378286
653223594856531456,283773,279186,378290
653223594863969792,283794,279326,378336
653223594871408128,283740,279223,378165
653223594878846464,283579,279252,378130
653223594886284800,283725,279251,378061
653223594893723136,283568,279065,377943
653223594901161472,283642,279076,377925
653223594908599808,283624,279031,377784
653223594916038144,283489,279191,377692
653223594923476480,283404,279068,377708
653223594930914816,283443,279062,377755
653223594938353152,283505,279109,377659
653223594945791488,283361,278912,377598
653223594953229824,283515,278877,377576
653223594960668160,283495,279051,377581
653223594968168393,283618,278930,377372
653223594975603088,283525,279125,377600
653223594983037783,283357,278924,377597
653223594990472478,283444,279021,377640
653223594997907173,283285,279006,377579
653223595005341868,283376,279100,377594
653223595012776563,283271,279037,377555
653223595020211258,283330,278992,377514
653223595027645953,283276,279025,377473
653223595035080648,283335,278991,377497
653223595042515343,283349,278947,377564
653223595049950038,283339,279042,377585
653223595057384733,283247,279016,377571
653223595064819428,283382,279010,377736
653223595072254123,283453,279040,377766
653223595079688818,283436,279061,377720
653223595087123513,283264,278932,377559
653223595094558208,283275,279002,377681
653223595101931008,283198,279182,377794
653223595109369344,283272,279185,377692
653223595116807680,283371,279082,377780
653223595124246016,283435,279131,377794
653223595131684352,283320,279093,377845
653223595139122688,283366,279167,377903
653223595146561024,283374,279197,377826
653223595153999360,283406,279232,377826
653223595161437696,283359,279131,377803
653223595168876032,283408,279257,377978
653223595176314368,283529,279321,378010
653223595183752704,283545,279262,377939
653223595191191040,283539,279286,378093
653223595198629376,283547,279323,378192
653223595206067712,283558,279248,378043
653223595213506048,283639,279389,378072
653223595220944384,283516,279286,378124
653223595228382720,283695,279314,378133
653223595235882953,283557,279195,377947
653223595243317648,283501,279207,378034
653223595250752343,283774,279388,378174
653223595258187038,283626,279504,378222
653223595265621733,283820,279369,378178
653223595273056428,283807,279460,378166
653223595280491123,283860,279543,378352
653223595287925818,283980,279691,378463
653223595295360513,284030,279522,378447
653223595302795208,284068,279592,378487
653223595310229903,284009,279692,378354
653223595317664598,283924,279616,378458
653223595325099293,283909,279614,378548
653223595332533988,283982,279676,378579
653223595339968683,284155,279846,378712
653223595347403378,284035,279833,378674
653223595354838073,284101,279816,378597
653223595362272768,284204,279836,378662
653223595369645568,284051,279639,378679
653223595377083904,284305,279816,378717
653223595384522240,284463,279769,378747
653223595391960576,284466,279648,378778
653223595399398912,284468,279799,378917
653223595406837248,284616,280027,379002
653223595414275584,284641,279970,379002
653223595421713920,284505,279861,379039
653223595429152256,284633,279866,378932
653223595436590592,284636,280027,379090
653223595444028928,284831,280116,379239
653223595451467264,284724,280224,379301
653223595458905600,284724,280241,379362
653223595466343936,284775,280226,379474
653223595473782272,284898,280278,379501
653223595481220608,284764,280290,379613
653223595488658944,284872,280090,379770
653223595496097280,284842,280313,379753
653223595503597513,284822,280225,379760
653223595511032208,284936,280367,379597
653223595518466903,284694,280180,379642
653223595525901598,284727,280239,379590
653223595533336293,284734,280201,379634
653223595540770988,284743,280243,379610
653223595548205683,284636,280228,379504
653223595555640378,284592,280327,379517
653223595563075073,284654,280234,379438
653223595570509768,284594,280111,379239
653223595577944463,284620,280074,379117
653223595585379158,284542,280142,379208
653223595592813853,284522,280052,379212
653223595600248548,284629,280116,379170
653223595607683243,284621,280130,379155
653223595615117938,284641,280034,379088
653223595622552633,284471,280150,379026
653223595629987328,284459,280036,379009
653223595637298248,284572,279724,379170
653223595644740224,284431,279847,379054
653223595652182200,284375,279987,378988
653223595659624176,284462,280033,379006
653223595667066152,284307,280008,378945
653223595674508128,284313,279995,378973
653223595681950104,284333,280049,379012
653223595689392080,284405,279894,378862
653223595696834056,284455,279885,378862
653223595704276032,284440,279980,378892
653223595711718008,284507,280087,378937
653223595719159984,284481,280057,378806
653223595726601960,284521,280101,378970
653223595734043936,284427,280122,378841
653223595741485912,284394,280048,378910
653223595748927888,284365,280084,378953
653223595756369864,284478,280147,378970
653223595763811840,284429,280042,379069
653223595771377609,284611,279958,379045
653223595778812304,284607,280064,378992
653223595786246999,284587,280043,379049
653223595793681694,284534,280177,378969
653223595801116389,284529,280092,379143
653223595808551084,284654,280227,379194
653223595815985779,284671,280346,379219
653223595823420474,284556,280213,379338
653223595830855169,284667,280320,379228
653223595838289864,284683,280383,379335
653223595845724559,284709,280436,379421
653223595853159254,284800,280389,379221
653223595860593949,284862,280405,379314
653223595868028644,284812,280406,379363
653223595875463339,284660,280413,379425
653223595882898034,284598,280297,379490
653223595890332729,284753,280406,379441
653223595897767424,284688,280469,379478
653223595905078344,284900,280407,379441
653223595912520320,284836,280383,379693
653223595919962296,284889,280474,379566
653223595927404272,284784,280353,379592
653223595934846248,284886,280561,379672
653223595942288224,284890,280532,379674
653223595949730200,284947,280481,379734
653223595957172176,285020,280498,379674
653223595964614152,285104,280468,379884
653223595972056128,284975,280551,379923
653223595979498104,284869,280502,379842
653223595986940080,284950,280613,379986
653223595994382056,285129,280692,380036
653223596001824032,285083,280693,379970
653223596009266008,284982,280546,380147
653223596016707984,285163,280702,380212
653223596024149960,285224,280760,380290
653223596031591936,285203,280775,380254
653223596039157705,285131,280844,380352
653223596046592400,285192,280834,380341
653223596054027095,285361,280976,380403
653223596061461790,285314,280865,380496
653223596068896485,285461,280936,380419
653223596076331180,285392,280883,380314
653223596083765875,285281,280989,380480
653223596091200570,285379,280988,380527
653223596098635265,285425,280994,380576
653223596106069960,285544,281028,380549
653223596113504655,285661,280995,380538
653223596120939350,285614,281074,380830
653223596128374045,285775,281175,381043
653223596135808740,285822,281235,381034
653223596143243435,285783,281269,381079
653223596150678130,285735,281294,381142
653223596158112825,285690,281451,381121
653223596165547520,285781,281249,381180
653223596172982217,285956,281468,381022
653223596180416912,285779,281324,381160
653223596187851607,285791,281319,381157
653223596195286302,285852,281412,381244
653223596202720997,285821,281314,381291
653223596210155692,285619,281289,381286
653223596217590387,285645,281238,381182
653223596225025082,285774,281265,381174
653223596232459777,285650,281263,381019
653223596239894472,285663,281252,381092
653223596247329167,285696,281278,380922
653223596254763862,285657,281258,381006
653223596262198557,285675,281345,381005
653223596269633252,285552,281357,380943
653223596277067947,285542,281237,380841
653223596284502642,285637,281339,381002
653223596291937337,285588,281200,380802
653223596299372032,285385,281184,380860
653223596306682952,285456,281414,380643
653223596314124928,285474,281199,380744
653223596321566904,285397,281126,380760
653223596329008880,285368,281079,380717
653223596336450856,285395,281167,380657
653223596343892832,285359,281114,380716
653223596351334808,285373,281218,380660
653223596358776784,285375,281146,380729
653223596366218760,285299,281151,380621
653223596373660736,285365,281159,380712
653223596381102712,285351,281127,380583
653223596388544688,285398,281162,380452
653223596395986664,285319,281057,380461
653223596403428640,285279,281107,380591
653223596410870616,285310,281176,380569
653223596418312592,285334,281121,380589
653223596425754568,285392,281256,380772
653223596433196544,285467,281186,380635
653223596440824210,285451,281249,380618
653223596448255264,285451,281109,380772
653223596455686318,285439,281215,380787
653223596463117372,285435,281233,380745
653223596470548426,285485,281327,380857
653223596477979480,285423,281346,380981
653223596485410534,285496,281316,380849
653223596492841588,285250,281263,380812
653223596500272642,285409,281383,380926
653223596507703696,285315,281296,380827
653223596515134750,285367,281249,380933
653223596522565804,285379,281365,381135
653223596529996858,285342,281360,381085
653223596537427912,285332,281429,381133
653223596544858966,285389,281388,381169
653223596552290020,285365,281495,381239
653223596559721074,285350,281501,381235
653223596567152128,285439,281511,381237
653223596574397512,285644,281810,381396
653223596581839488,285512,281738,381400
653223596589281464,285268,281563,381222
653223596596723440,285490,281536,381364
653223596604165416,285457,281587,381420
653223596611607392,285513,281631,381522
653223596619049368,285515,281687,381606
653223596626491344,285446,281750,381656
653223596633933320,285468,281643,381673
653223596641375296,285660,281630,381617
653223596648817272,285641,281783,381673
653223596656259248,285550,281525,381563
653223596663701224,285609,281610,381546
653223596671143200,285549,281738,381720
653223596678585176,285638,281726,381765
653223596686027152,285750,281815,381681
653223596693469128,285698,281874,381769
653223596700911104,285806,281794,381767
653223596708538770,285842,282004,381611
653223596715969824,286010,282096,382005
653223596723400878,285869,281954,381922
653223596730831932,285809,281969,382030
653223596738262986,285917,282097,382190
653223596745694040,285866,281993,382273
653223596753125094,285834,281977,382278
653223596760556148,286134,282151,382322
653223596767987202,286150,282117,382353
653223596775418256,286128,282176,382431
653223596782849310,286077,282115,382479
653223596790280364,286078,282063,382491
653223596797711418,286281,282153,382483
653223596805142472,286261,282287,382619
653223596812573526,286296,282187,382647
653223596820004580,286320,282261,382766
653223596827435634,286280,282305,382851
653223596834866688,286235,282347,382823
653223596842173952,286439,282583,382564
653223596849612288,286430,282271,382751
653223596857050624,286490,282409,382889
653223596864488960,286372,282378,383037
653223596871927296,286435,282367,383143
653223596879365632,286554,282440,383264
653223596886803968,286618,282439,383168
653223596894242304,286616,282572,383166
653223596901680640,286570,282537,383220
653223596909118976,286613,282564,383272
653223596916557312,286518,282555,383234
653223596923995648,286579,282529,383186
653223596931433984,286596,282458,382919
653223596938872320,286471,282473,383037
653223596946310656,286404,282432,382928
653223596953748992,286518,282413,382868
653223596961187328,286392,282439,382992
653223596968625664,286356,282521,382909
6.53224E+17,286269,282575,382641
653223596983502336,286143,282352,382675
653223596990940672,286248,282338,382747
653223596998379008,286204,282277,382722
653223597005817344,286275,282347,382697
653223597013255680,286304,282394,382753
653223597020694016,286332,282371,382651
653223597028132352,286197,282275,382662
653223597035570688,286026,282288,382611
653223597043009024,285971,282270,382558
653223597050447360,286090,282201,382491
653223597057885696,286143,282268,382587
653223597065324032,286091,282356,382530
653223597072762368,286087,282275,382400
653223597080200704,286065,282248,382422
653223597087639040,286135,282214,382350
653223597095077376,285992,282166,382305
653223597102515712,286037,282096,382370
653223597110015945,285997,281883,382231
653223597117450640,286062,282041,382292
653223597124885335,286040,282193,382336
653223597132320030,286062,282231,382411
653223597139754725,286073,282306,382361
653223597147189420,286141,282238,382388
653223597154624115,286159,282324,382367
653223597162058810,286029,282363,382459
653223597169493505,286059,282241,382344
653223597176928200,286080,282312,382404
653223597184362895,286152,282316,382498
653223597191797590,286107,282350,382570
653223597199232285,286082,282338,382528
653223597206666980,286123,282278,382433
653223597214101675,286287,282282,382522
653223597221536370,286144,282177,382491
653223597228971065,286090,282320,382624
653223597236405760,286164,282167,382602
653223597243778560,286025,282168,382754
653223597251216896,286111,282259,382734
653223597258655232,286187,282325,382717
653223597266093568,286197,282201,382599
653223597273531904,286189,282397,382626
653223597280970240,286191,282377,382586
653223597288408576,286204,282411,382688
653223597295846912,286235,282300,382742
653223597303285248,286225,282307,382705
653223597310723584,286206,282273,382792
653223597318161920,286305,282452,382768
653223597325600256,286293,282481,382937
653223597333038592,286251,282489,382943
653223597340476928,286253,282480,382964
653223597347915264,286289,282486,382970
653223597355353600,286037,282292,383177
653223597362791936,286294,282436,383016
653223597370230272,286385,282419,382974
653223597377730505,286160,282748,382846
653223597385165200,286382,282613,383055
653223597392599895,286431,282559,382931
653223597400034590,286437,282569,383042
653223597407469285,286502,282608,382974
653223597414903980,286579,282574,383185
653223597422338675,286601,282638,383296
653223597429773370,286664,282767,383310
653223597437208065,286723,282782,383306
653223597444642760,286616,282745,383336
653223597452077455,286664,282917,383431
653223597459512150,286682,282975,383479
653223597466946845,286779,282900,383334
653223597474381540,286697,282681,383417
653223597481816235,286776,282765,383372
653223597489250930,286852,282852,383579
653223597496685625,286897,282793,383633
653223597504120320,286955,282956,383639
653223597511493120,287327,282921,383825
653223597518931456,287035,282974,383707
653223597526369792,287135,283043,383789
653223597533808128,287146,282938,383855
653223597541246464,287164,283115,383969
653223597548684800,287038,283122,383985
653223597556123136,287068,283088,384069
653223597563561472,287178,283135,384102
653223597570999808,287165,283044,384130
653223597578438144,287181,283086,384145
653223597585876480,287167,283189,384197
653223597593314816,287138,283194,384270
653223597600753152,287134,283200,384390
653223597608191488,287216,283207,384349
653223597615629824,287259,283277,384269
653223597623068160,287316,283341,384422
653223597630506496,287353,283434,384414
653223597637944832,287377,283412,384478
653223597645321288,287512,283203,384272
653223597652763264,287423,283358,384501
653223597660205240,287179,283254,384334
653223597667647216,287278,283094,384386
653223597675089192,287344,283374,384462
653223597682531168,287190,283250,384316
653223597689973144,287270,283161,384203
653223597697415120,287200,283225,384099
653223597704857096,287095,283087,384046
653223597712299072,287108,283034,383911
653223597719741048,287063,283037,383864
653223597727183024,286949,283172,383778
6.53224E+17,286857,283049,383833
653223597742066976,286953,283068,383787
653223597749508952,286849,283172,383769
653223597756950928,286794,282948,383620
653223597764392904,286889,283068,383557
653223597771834880,286846,282937,383537
653223597779400649,287047,283047,383627
653223597786835344,286860,283039,383530
653223597794270039,286736,282922,383462
653223597801704734,286740,282828,383415
653223597809139429,286707,282918,383333
653223597816574124,286697,282860,383406
653223597824008819,286691,282865,383340
653223597831443514,286632,282872,383077
653223597838878209,286662,282866,383301
653223597846312904,286525,282891,383260
653223597853747599,286385,282867,383184
653223597861182294,286431,282869,383151
653223597868616989,286550,282805,383117
653223597876051684,286600,282832,383207
653223597883486379,286409,282800,383197
653223597890921074,286583,282671,383196
653223597898355769,286612,282738,383105
653223597905790464,286473,282790,383176
653223597913225161,286797,282702,383007
653223597920659856,286669,282706,383116
653223597928094551,286658,282773,383129
653223597935529246,286527,282660,383162
653223597942963941,286590,282838,383313
653223597950398636,286599,282688,383206
653223597957833331,286672,282831,383257
653223597965268026,286555,282859,383183
653223597972702721,286619,282833,383193
653223597980137416,286573,282833,383286
653223597987572111,286616,282862,383121
653223597995006806,286653,282759,383227
653223598002441501,286548,282802,383322
653223598009876196,286576,282785,383339
653223598017310891,286743,282853,383348
653223598024745586,286716,282899,383149
653223598032180281,286689,282836,383276
653223598039614976,286598,282880,383330
653223598046925896,286651,282965,383703
653223598054367872,286677,282902,383509
653223598061809848,286784,282952,383412
653223598069251824,286882,283035,383457
653223598076693800,286861,283030,383345
653223598084135776,286792,282958,383353
653223598091577752,286824,282852,383340
653223598099019728,286794,282934,383467
653223598106461704,286809,283036,383543
653223598113903680,286694,282869,383487
653223598121345656,286658,283056,383628
653223598128787632,286596,283104,383684
653223598136229608,286555,282953,383569
653223598143671584,286760,282992,383567
653223598151113560,286737,283015,383689
653223598158555536,286906,283044,383667
653223598165997512,286936,283078,383695
653223598173439488,286951,283092,383779
653223598181067154,287298,283003,383636
653223598188498208,287133,283034,383750
653223598195929262,287076,283152,383696
653223598203360316,287112,283207,383912
653223598210791370,287030,283146,383959
653223598218222424,287001,283148,383874
653223598225653478,287055,283225,383978
653223598233084532,287097,283258,384059
653223598240515586,287167,283274,384105
653223598247946640,287187,283257,384094
653223598255377694,287187,283204,384089
653223598262808748,287122,283370,384135
653223598270239802,287225,283392,384231
653223598277670856,287251,283374,384287
653223598285101910,287356,283283,384336
653223598292532964,287429,283362,384389
653223598299964018,287364,283505,384504
653223598307395072,287333,283532,384498
653223598314702336,287652,283721,384334
653223598322140672,287518,283682,384389
653223598329579008,287476,283383,384605
653223598337017344,287573,283604,384783
653223598344455680,287551,283675,384635
653223598351894016,287664,283638,384847
653223598359332352,287575,283484,384874
653223598366770688,287582,283603,384922
653223598374209024,287603,283732,384918
653223598381647360,287649,283795,385035
653223598389085696,287564,283738,385066
653223598396524032,287668,283719,385070
653223598403962368,287609,283725,385083
653223598411400704,287585,283828,385067
653223598418839040,287611,283940,385163
653223598426277376,287725,283777,385097
653223598433715712,287630,283703,385012
653223598441154048,287627,283784,384990
653223598448654281,287810,284007,385108
653223598456088976,287701,283957,385067
653223598463523671,287748,283896,384881
653223598470958366,287511,283662,384780
653223598478393061,287545,283677,384674
653223598485827756,287421,283569,384611
653223598493262451,287383,283531,384636
653223598500697146,287319,283515,384506
653223598508131841,287337,283527,384426
653223598515566536,287339,283575,384360
653223598523001231,287375,283513,384267
653223598530435926,287234,283545,384329
653223598537870621,287188,283561,384352
653223598545305316,287196,283499,384371
653223598552740011,287187,283535,384095
653223598560174706,287132,283495,384148
653223598567609401,287091,283420,384090
653223598575044096,287025,283478,383991
653223598582416896,286974,283274,384162
653223598589855232,287014,283362,383860
653223598597293568,287026,283370,383890
653223598604731904,287010,283396,383786
653223598612170240,287089,283431,383697
653223598619608576,287011,283316,383742
653223598627046912,287001,283387,383849
653223598634485248,286916,283410,383820
653223598641923584,286951,283356,383790
653223598649361920,286876,283388,383755
653223598656800256,286771,283348,383758
653223598664238592,286852,283297,383722
653223598671676928,286817,283293,383703
653223598679115264,286900,283332,383695
653223598686553600,287002,283352,383612
653223598693991936,287057,283416,383692
653223598701430272,287023,283459,383654
653223598708868608,287026,283399,383781
653223598716245064,286927,283292,383439
653223598723687040,286857,283295,383643
653223598731129016,286929,283316,383484
653223598738570992,286931,283282,383520
653223598746012968,286902,283440,383580
653223598753454944,286933,283347,383623
653223598760896920,286801,283460,383611
653223598768338896,286846,283428,383646
653223598775780872,286962,283446,383586
653223598783222848,286889,283419,383693
653223598790664824,286975,283341,383689
653223598798106800,286964,283368,383590
653223598805548776,286926,283479,383625
653223598812990752,286941,283491,383686
653223598820432728,286981,283478,383822
653223598827874704,287064,283473,383812
653223598835316680,286951,283474,383782
653223598842758656,287050,283209,383574
653223598850324425,287191,283254,383693
653223598857759120,287003,283438,383760
653223598865193815,287015,283502,383760
653223598872628510,286902,283261,383729
653223598880063205,287052,283519,383855
653223598887497900,286968,283478,383849
653223598894932595,287044,283500,383914
653223598902367290,287056,283576,383941
653223598909801985,287141,283466,383865
653223598917236680,287235,283503,383823
653223598924671375,287168,283428,383860
653223598932106070,287172,283514,384006
653223598939540765,287265,283600,384026
653223598946975460,287287,283549,384068
653223598954410155,287222,283623,383982
653223598961844850,287312,283583,384048
653223598969279545,287345,283616,384104
653223598976714240,287444,283703,384221
653223598984148937,287466,283752,384397
653223598991583632,287515,283671,384403
653223598999018327,287400,283639,384267
653223599006453022,287409,283598,384292
653223599013887717,287431,283760,384272
653223599021322412,287431,283630,384397
653223599028757107,287474,283752,384255
653223599036191802,287462,283726,384424
653223599043626497,287446,283755,384429
653223599051061192,287456,283700,384401
653223599058495887,287544,283755,384515
653223599065930582,287504,283749,384563
653223599073365277,287566,283694,384557
653223599080799972,287578,283735,384549
653223599088234667,287656,283777,384735
653223599095669362,287731,283892,384667
653223599103104057,287800,283875,384649
653223599110538752,287722,283840,384704
653223599117911552,287678,284064,384966
653223599125349888,287807,284006,384834
653223599132788224,287795,283927,384811
653223599140226560,287976,283999,384909
653223599147664896,287848,284016,384905
653223599155103232,287957,284056,384983
653223599162541568,287900,284094,385012
653223599169979904,288026,284080,385052
653223599177418240,287912,284090,385054
653223599184856576,287939,284081,384981
653223599192294912,287869,284051,384837
653223599199733248,287984,283917,384883
653223599207171584,287969,284012,384776
653223599214609920,287831,283889,384713
653223599222048256,287812,283982,384583
653223599229486592,287850,283976,384565
653223599236924928,287810,283908,384568
653223599244363264,287619,283949,384483
653223599251801600,287374,283699,384174
653223599259239936,287593,283693,384268
653223599266678272,287339,283751,384146
653223599274116608,287504,283696,384169
653223599281554944,287452,283587,383980
653223599288993280,287548,283656,384060
653223599296431616,287454,283536,384065
653223599303869952,287452,283510,383943
653223599311308288,287327,283507,383899
653223599318746624,287392,283607,383684
653223599326184960,287253,283664,383650
653223599333623296,287349,283570,383697
653223599341061632,287254,283481,383584
653223599348499968,287182,283537,383577
653223599355938304,286872,283734,383450
653223599363376640,287105,283629,383437
653223599370814976,287003,283412,383379
653223599378253312,287146,283454,383476
653223599385753545,287161,283078,383570
653223599393188240,287027,283233,383310
653223599400622935,287002,283365,383332
653223599408057630,287049,283319,383395
653223599415492325,287127,283397,383414
653223599422927020,287046,283298,383306
653223599430361715,287079,283237,383327
653223599437796410,287061,283222,383287
653223599445231105,286940,283329,383272
653223599452665800,286989,283257,383332
653223599460100495,287037,283356,383304
653223599467535190,287009,283376,383330
653223599474969885,287021,283335,383169
653223599482404580,287079,283405,383114
653223599489839275,287202,283245,383104
653223599497273970,286829,283249,383100
653223599504708665,286909,283159,382972
653223599512143360,287077,283244,383037
653223599519454280,287237,283003,383085
653223599526896256,287112,283222,383063
653223599534338232,286946,283290,383124
653223599541780208,287000,283239,383181
653223599549222184,287046,283311,383235
653223599556664160,287108,283299,383215
653223599564106136,287139,283258,383157
653223599571548112,287078,283248,383025
653223599578990088,287120,283302,383095
653223599586432064,287111,283189,382977
653223599593874040,287123,283260,383076
653223599601316016,287006,283331,383057
653223599608757992,287021,283326,383109
653223599616199968,287076,283344,383160
653223599623641944,287156,283193,383116
653223599631083920,287131,283265,383178
653223599638525896,287098,283419,382925
653223599645967872,287105,283309,383030
653223599653595538,287072,283510,383195
653223599661026592,287214,283493,383240
653223599668457646,287166,283502,383142
653223599675888700,287152,283366,383242
653223599683319754,287142,283423,383312
653223599690750808,287222,283505,383281
653223599698181862,287155,283544,383208
653223599705612916,287261,283502,383301
653223599713043970,287223,283378,383272
653223599720475024,287371,283416,383428
653223599727906078,287342,283546,383543
653223599735337132,287252,283517,383505
653223599742768186,287290,283411,383381
653223599750199240,287378,283562,383430
653223599757630294,287324,283514,383506
653223599765061348,287454,283375,383575
653223599772492402,287493,283406,383578
653223599779923456,287513,283599,383647
653223599787168840,287782,283436,383586
653223599794610816,287674,283423,383671
653223599802052792,287438,283600,383702
653223599809494768,287504,283592,383699
653223599816936744,287544,283668,383723
653223599824378720,287584,283670,383828
653223599831820696,287594,283696,383825
653223599839262672,287618,283678,383849
653223599846704648,287652,283823,383902
653223599854146624,287684,283817,383955
653223599861588600,287676,283829,383949
653223599869030576,287603,283926,383992
653223599876472552,287693,283817,384019
653223599883914528,287757,283591,384069
653223599891356504,287677,283770,384073
653223599898798480,287823,283763,384187
653223599906240456,287873,283885,384135
653223599913682432,287880,283950,384249
653223599921310098,288098,284170,383920
653223599928741152,288111,284119,384234
653223599936172206,287871,283977,384098
653223599943603260,287813,283912,384163
653223599951034314,287948,283900,384080
653223599958465368,287788,283848,384086
653223599965896422,287665,283823,384019
653223599973327476,287657,283713,383867
653223599980758530,287668,283631,383744
653223599988189584,287694,283561,383682
653223599995620638,287677,283613,383635
653223600003051692,287600,283674,383600
653223600010482746,287603,283652,383282
653223600017913800,287417,283661,383335
653223600025344854,287386,283525,383177
653223600032775908,287489,283472,383005
653223600040206962,287411,283499,382919
653223600047638016,287355,283466,382884
653223600054945280,287526,283329,382569
653223600062383616,287356,283445,382697
653223600069821952,287291,283431,382650
653223600077260288,287184,283354,382532
653223600084698624,287067,283252,382456
653223600092136960,286877,283220,382341
653223600099575296,286938,283275,382294
653223600107013632,286950,283111,382176
653223600114451968,286876,283040,381990
653223600121890304,286835,283132,382008
653223600129328640,286608,283067,381907
653223600136766976,286623,282906,381985
653223600144205312,286740,283025,381733
653223600151643648,286576,282941,381774
653223600159081984,286451,282907,381751
653223600166520320,286449,282850,381808
653223600173958656,286538,282893,381765
653223600181396992,286582,282904,381581
653223600188773448,286729,282546,381877
653223600196215424,286503,282820,381566
653223600203657400,286507,282902,381529
653223600211099376,286493,282860,381392
653223600218541352,286538,282749,381489
653223600225983328,286482,282799,381479
653223600233425304,286440,282726,381368
653223600240867280,286425,282736,381453
653223600248309256,286521,282834,381490
653223600255751232,286387,282896,381408
653223600263193208,286260,282661,381270
653223600270635184,286383,282640,381221
653223600278077160,286369,282698,381349
653223600285519136,286392,282624,381244
653223600292961112,286479,282710,381214
653223600300403088,286535,282743,381236
653223600307845064,286483,282691,381159
653223600315287040,286323,282763,381222
653223600322790912,286565,282961,381525
653223600330229248,286336,282751,381334
653223600337667584,286433,282739,381286
653223600345105920,286329,282720,381185
653223600352544256,286328,282668,381135
653223600359982592,286369,282752,381058
653223600367420928,286294,282568,381054
653223600374859264,286417,282608,381115
653223600382297600,286372,282669,381078
653223600389735936,286281,282579,381059
653223600397174272,286385,282648,381153
653223600404612608,286383,282752,381150
653223600412050944,286457,282712,381185
653223600419489280,286456,282583,381143
653223600426927616,286484,282672,381105
653223600434365952,286510,282750,381207
653223600441804288,286411,282733,381253
653223600449242624,286426,282763,381238
653223600456742857,286557,282685,381466
653223600464177552,286542,282754,381318
653223600471612247,286541,282751,381308
653223600479046942,286578,282725,381306
653223600486481637,286608,282611,381316
653223600493916332,286604,282800,381373
653223600501351027,286606,282884,381439
653223600508785722,286604,282791,381451
653223600516220417,286445,282873,381427
653223600523655112,286403,282811,381463
653223600531089807,286556,282730,381461
653223600538524502,286641,282710,381385
653223600545959197,286680,282767,381434
653223600553393892,286695,282926,381519
653223600560828587,286803,282822,381466
653223600568263282,286710,282889,381615
653223600575697977,286749,282808,381599
653223600583132672,286665,282778,381650
653223600590505472,287093,283139,381590
653223600597943808,286818,283000,381630
653223600605382144,286856,282975,381744
653223600612820480,286846,282907,381709
653223600620258816,286867,283011,381803
653223600627697152,286963,283013,381859
653223600635135488,286929,282999,381880
653223600642573824,286932,282987,381973
653223600650012160,286982,282969,381981
653223600657450496,287005,282954,381948
653223600664888832,286933,283123,381951
653223600672327168,286925,283008,382012
653223600679765504,286953,282986,381997
653223600687203840,287099,283135,382149
653223600694642176,287108,283187,382139
653223600702080512,287261,283255,382124
653223600709518848,287099,283206,382124
653223600716957184,287226,283126,382080
653223600724395520,286941,283176,382029
653223600731833856,287047,283174,381983
653223600739272192,286996,283162,381930
653223600746710528,287103,283241,381879
653223600754148864,287072,283192,381945
653223600761587200,287066,283155,381602
653223600769025536,286932,282893,381586
653223600776463872,286936,282886,381441
653223600783902208,286882,282933,381422
653223600791340544,286788,282907,381386
653223600798778880,286701,282931,381237
653223600806217216,286562,282793,381115
653223600813655552,286591,282823,381014
653223600821093888,286686,282736,380870
653223600828532224,286344,282668,380770
653223600835970560,286348,282663,380638
653223600843408896,286298,282626,380632
653223600850847232,286345,282626,380566
653223600858347465,286673,282478,380207
653223600865782160,286448,282327,380221
653223600873216855,286264,282377,380125
653223600880651550,286030,282177,380067
653223600888086245,286010,282275,379994
653223600895520940,286063,282275,379859
653223600902955635,286037,282173,379781
653223600910390330,285893,282116,379797
653223600917825025,285844,282047,379680
653223600925259720,285768,282040,379595
653223600932694415,285714,281955,379546
653223600940129110,285762,282083,379404
653223600947563805,285686,281908,379375
653223600954998500,285696,281958,379339
653223600962433195,285772,281900,379228
653223600969867890,285678,282011,379351
653223600977302585,285600,281882,379222
653223600984737280,285694,281845,379187
653223600992110080,285507,281708,379001
653223600999548416,285507,281685,379032
653223601006986752,285535,281805,379118
653223601014425088,285595,281794,379180
653223601021863424,285611,281719,379143
653223601029301760,285546,281699,379066
653223601036740096,285634,281782,379197
653223601044178432,285536,281685,379001
653223601051616768,285499,281582,379053
653223601059055104,285384,281603,379052
653223601066493440,285434,281600,379024
653223601073931776,285426,281622,378874
653223601081370112,285337,281796,378932
653223601088808448,285410,281647,378810
653223601096246784,285459,281646,378833
653223601103685120,285394,281737,378873
653223601111123456,285431,281601,378810
653223601118561792,285361,281571,378860
653223601126123922,285632,281459,378858
653223601133554976,285409,281441,378798
653223601140986030,285407,281456,378843
653223601148417084,285356,281592,378834
653223601155848138,285489,281668,378853
653223601163279192,285475,281625,378848
653223601170710246,285380,281604,378807
653223601178141300,285412,281587,378895
653223601185572354,285485,281658,378882
653223601193003408,285504,281562,378721
653223601200434462,285383,281585,378801
653223601207865516,285390,281472,378670
653223601215296570,285486,281570,378976
653223601222727624,285339,281560,378939
653223601230158678,285362,281673,378942
653223601237589732,285382,281309,378990
653223601245020786,285393,281579,378951
653223601252451840,285470,281608,378916
653223601259697224,285322,281246,378960
653223601267139200,285385,281248,378730
653223601274581176,285438,281502,378920
653223601282023152,285423,281689,378918
653223601289465128,285614,281719,378931
653223601296907104,285585,281693,379057
653223601304349080,285584,281600,379164
653223601311791056,285548,281572,379123
653223601319233032,285622,281616,379165
653223601326675008,285567,281664,379209
653223601334116984,285477,281667,379279
653223601341558960,285493,281712,379232
653223601349000936,285567,281713,379330
653223601356442912,285595,281785,379517
653223601363884888,285753,281814,379471
653223601371326864,285688,281679,379493
653223601378768840,285773,281744,379457
653223601386210816,285806,281796,379446
653223601393776585,285907,281449,379513
653223601401211280,285993,281578,379578
653223601408645975,285843,281715,379546
653223601416080670,285834,281804,379589
653223601423515365,285929,281907,379633
653223601430950060,285855,281884,379630
653223601438384755,285957,281904,379781
653223601445819450,285923,281882,379911
653223601453254145,285858,281862,379769
653223601460688840,285877,281906,379860
653223601468123535,286029,281806,379818
653223601475558230,286168,281942,379962
653223601482992925,286028,282001,380091
653223601490427620,286087,281874,380033
653223601497862315,286104,281874,380008
653223601505297010,286131,281881,379925
653223601512731705,285997,281901,380028
653223601520166400,285993,281896,379978
653223601527539200,285913,281940,379678
653223601534977536,285989,281870,379750
653223601542415872,285816,281793,379709
653223601549854208,285854,281853,379625
653223601557292544,285808,281777,379482
653223601564730880,285842,281738,379369
653223601572169216,285826,281699,379209
653223601579607552,285772,281703,379223
653223601587045888,285594,281642,379199
653223601594484224,285550,281549,379040
653223601601922560,285424,281439,378983
653223601609360896,285472,281358,378880
653223601616799232,285410,281338,378742
653223601624237568,285375,281245,378724
653223601631675904,285387,281340,378550
653223601639114240,285251,281319,378466
653223601646552576,285144,281136,378324
653223601653990912,285134,281151,378351
653223601661429248,284910,280824,378469
653223601668867584,284910,280828,378225
653223601676305920,284961,280986,378048
653223601683744256,284920,281015,378005
653223601691182592,284821,280932,377897
653223601698620928,284829,280852,377628
653223601706059264,284634,280783,377610
653223601713497600,284673,280673,377541
653223601720935936,284608,280539,377493
653223601728374272,284557,280533,377407
653223601735812608,284633,280512,377393
653223601743250944,284630,280555,377326
653223601750689280,284654,280679,377385
653223601758127616,284546,280646,377411
653223601765565952,284537,280650,377327
653223601773004288,284485,280530,377322
653223601780442624,284544,280501,377247
653223601787880960,284467,280453,377224
653223601795319296,284643,280341,377253
653223601802757632,284525,280420,377181
653223601810195968,284489,280468,377102
653223601817634304,284453,280448,377156
653223601825072640,284439,280491,377088
653223601832510976,284470,280581,377042
653223601839949312,284523,280529,377013
653223601847387648,284475,280494,377084
653223601854825984,284495,280499,377140
653223601862264320,284449,280468,377060
653223601869702656,284276,280420,377004
653223601877140992,284141,280340,376955
653223601884579328,284175,280300,376972
653223601892017664,284084,280228,376859
6.53224E+17,284237,280346,376966
653223601906894336,284259,280299,376901
653223601914332672,284331,280241,376970
653223601921771008,284418,280315,377001
653223601929271241,284237,280151,377195
653223601936705936,284339,280248,377122
653223601944140631,284316,280260,377101
653223601951575326,284319,280255,376938
653223601959010021,284326,280268,376964
653223601966444716,284375,280272,377096
653223601973879411,284405,280345,377087
653223601981314106,284401,280298,377077
653223601988748801,284327,280293,377104
653223601996183496,284249,280308,377168
653223602003618191,284324,280285,376987
653223602011052886,284323,280235,377219
653223602018487581,284395,280282,377119
653223602025922276,284305,280395,377212
653223602033356971,284377,280190,377056
653223602040791666,284398,280232,377238
653223602048226361,284503,280272,377317
653223602055661056,284492,280223,377215
653223602063033856,284660,279963,377379
653223602070472192,284583,280167,377433
653223602077910528,284557,280393,377412
653223602085348864,284494,280330,377300
653223602092787200,284579,280371,377504
653223602100225536,284603,280365,377514
653223602107663872,284588,280466,377510
653223602115102208,284491,280354,377517
653223602122540544,284496,280422,377548
653223602129978880,284529,280344,377418
653223602137417216,284604,280287,377487
653223602144855552,284564,280402,377610
653223602152293888,284743,280410,377687
653223602159732224,284707,280457,377749
653223602167170560,284622,280474,377726
653223602174608896,284615,280310,377797
653223602182047232,284700,280434,377847
653223602189485568,284812,280500,377836
653223602196985801,284622,280543,377869
653223602204420496,284728,280450,377932
653223602211855191,284704,280492,377994
653223602219289886,284805,280482,378168
653223602226724581,284871,280569,378184
653223602234159276,284940,280700,378108
653223602241593971,284882,280751,378258
653223602249028666,284941,280671,378225
653223602256463361,284990,280596,378175
653223602263898056,284950,280794,378294
653223602271332751,284981,280838,378307
653223602278767446,285152,280795,378475
653223602286202141,285035,280827,378467
653223602293636836,284912,280731,378559
653223602301071531,285144,280720,378623
653223602308506226,285200,280803,378594
653223602315940921,285177,280833,378566
653223602323375616,285132,280778,378591
653223602330748416,285189,280674,378737
653223602338186752,285116,280707,378680
653223602345625088,285103,280827,378560
653223602353063424,285016,280774,378483
653223602360501760,285150,280773,378430
653223602367940096,285127,280693,378538
653223602375378432,284994,280662,378340
653223602382816768,284875,280565,378192
653223602390255104,284763,280578,378063
653223602397693440,284850,280635,378081
653223602405131776,284734,280462,377817
653223602412570112,284710,280453,377773
653223602420008448,284595,280350,377737
653223602427446784,284542,280371,377624
653223602434885120,284585,280290,377627
653223602442323456,284579,280258,377474
653223602449761792,284442,280263,377415
653223602457200128,284325,280147,377287
653223602464638464,284366,280222,377311
653223602472076800,284341,280102,377167
653223602479515136,284276,279902,377239
653223602486953472,284175,279997,377179
653223602494391808,284156,280007,377028
653223602501830144,284236,279908,376860
653223602509268480,284182,279884,376803
653223602516706816,284156,279844,376800
653223602524145152,283996,279769,376785
653223602531583488,283921,279818,376804
653223602539021824,283950,279665,376740
653223602546460160,283935,279628,376633
653223602553898496,283872,279540,376560
653223602561336832,283905,279537,376635
653223602568775168,283827,279427,376440
653223602576213504,283834,279527,376474
653223602583651840,283825,279582,376524
653223602591090176,283929,279527,376445
653223602598590409,283790,279627,376327
653223602606025104,283840,279513,376521
653223602613459799,283727,279557,376460
653223602620894494,283777,279495,376408
653223602628329189,283721,279573,376333
653223602635763884,283811,279611,376387
653223602643198579,283786,279542,376406
653223602650633274,283650,279435,376390
653223602658067969,283755,279522,376444
653223602665502664,283692,279470,376427
653223602672937359,283768,279510,376379
653223602680372054,283743,279572,376407
653223602687806749,283698,279484,376316
653223602695241444,283690,279464,376255
653223602702676139,283712,279460,376279
653223602710110834,283643,279359,376267
653223602717545529,283650,279405,376322
653223602724980224,283730,279255,376206
653223602732353024,283930,279444,376305
653223602739791360,283915,279478,376354
653223602747229696,283673,279469,376272
653223602754668032,283770,279232,376387
653223602762106368,283626,279239,376356
653223602769544704,283578,279263,376385
653223602776983040,283525,279249,376336
653223602784421376,283618,279201,376364
653223602791859712,283692,279298,376435
653223602799298048,283696,279403,376542
653223602806736384,283749,279347,376542
653223602814174720,283809,279300,376540
653223602821613056,283862,279396,376592
653223602829051392,283944,279251,376507
653223602836489728,283907,279387,376556
653223602843928064,283855,279486,376504
653223602851366400,283856,279430,376640
653223602858804736,283752,279493,376703
653223602866366866,284054,279632,376972
653223602873797920,284030,279425,376725
653223602881228974,283962,279493,376800
653223602888660028,284023,279543,376890
653223602896091082,283939,279472,376876
653223602903522136,283937,279543,376934
653223602910953190,284083,279508,376933
653223602918384244,284077,279613,377073
653223602925815298,284007,279655,377066
653223602933246352,283976,279558,377056
653223602940677406,284011,279497,377045
653223602948108460,284094,279456,377061
653223602955539514,284012,279530,377139
653223602962970568,284084,279547,377113
653223602970401622,284118,279558,377259
653223602977832676,284196,279690,377320
653223602985263730,284302,279757,377239
653223602992694784,284293,279744,377252
653223603000002048,284497,279718,377417
653223603007440384,284310,279758,377395
653223603014878720,284340,279766,377537
653223603022317056,284314,279791,377638
653223603029755392,284269,279853,377631
653223603037193728,284318,279820,377582
653223603044632064,284474,279815,377606
653223603052070400,284429,279798,377674
653223603059508736,284455,279845,377794
653223603066947072,284471,279883,377790
653223603074385408,284432,279861,377854
653223603081823744,284484,279817,377855
653223603089262080,284496,279859,377884
653223603096700416,284501,279889,377917
653223603104138752,284593,279851,377961
653223603111577088,284651,279948,378046
653223603119015424,284542,279937,378004
653223603126453760,284490,279860,377941
653223603133892096,284423,279978,378015
653223603141330432,284397,279925,378005
653223603148768768,284517,279900,377874
653223603156207104,284360,279805,377752
653223603163645440,284466,279814,377649
653223603171083776,284467,279753,377580
653223603178522112,284424,279624,377445
653223603185960448,284402,279553,377248
653223603193398784,284323,279542,377156
653223603200837120,284156,279596,377121
653223603208275456,284029,279526,377103
653223603215713792,283998,279343,377082
653223603223152128,284120,279418,377017
653223603230590464,284043,279401,376954
653223603238028800,283939,279272,376810
653223603245467136,284039,279325,376865
653223603252905472,284022,279297,376767
653223603260343808,283812,279189,376628
653223603267782144,283982,278916,376364
653223603275220480,283825,279087,376558
653223603282658816,283756,278918,376582
653223603290097152,283685,279020,376575
653223603297535488,283568,279023,376501
653223603304973824,283566,278890,376611
653223603312412160,283490,278941,376594
653223603319850496,283429,278891,376504
653223603327288832,283295,279028,376532
653223603334727168,283376,278876,376424
653223603342165504,283284,278786,376478
653223603349603840,283329,278746,376428
653223603357042176,283535,278901,376503
653223603364480512,283616,278978,376398
653223603371918848,283521,278859,376405
653223603379357184,283510,278860,376411
653223603386795520,283524,279003,376442
653223603394233856,283478,278959,376340
653223603401672192,283519,278711,376412
653223603409110528,283531,278842,376433
653223603416548864,283585,278773,376445
653223603423987200,283625,278824,376283
653223603431425536,283635,278830,376209
653223603438863872,283585,278813,376315
653223603446302208,283596,278938,376405
653223603453740544,283679,278943,376511
653223603461178880,283578,278886,376506
653223603468617216,283603,278787,376478
653223603476055552,283612,278724,376394
653223603483493888,283548,278789,376477
653223603490932224,283553,278787,376459
653223603498370560,283676,278893,376420
653223603505808896,283683,278909,376456
653223603513247232,283529,278909,376457
653223603520685568,283588,278838,376480
653223603528123904,283707,278898,376446
653223603535562240,283640,278905,376333
653223603543000576,283669,278948,376473
653223603550438912,283752,278861,376594
653223603557877248,283753,278895,376622
653223603565315584,283769,278780,376654
653223603572753920,283728,278920,376621
653223603580192256,283818,278927,376701
653223603587630592,283862,278991,376851
653223603595068928,283783,278840,376800
653223603602507264,283817,278859,376842
653223603609945600,283706,278923,376791
653223603617383936,283827,279040,376993
653223603624822272,283878,279045,376832
653223603632260608,283801,278918,376920
653223603639698944,283801,278918,377057
653223603647137280,283882,278857,376990
653223603654575616,284026,278990,377171
653223603662013952,284054,279140,377240
653223603669514185,284248,279168,377117
653223603676948880,284020,279104,377310
653223603684383575,284017,279156,377381
653223603691818270,284098,279160,377331
653223603699252965,284065,279196,377434
653223603706687660,284160,279242,377541
653223603714122355,284115,279199,377464
653223603721557050,284189,279131,377349
653223603728991745,284305,279220,377554
653223603736426440,284138,279296,377664
653223603743861135,284217,279273,377638
653223603751295830,284227,279368,377799
653223603758730525,284335,279429,377834
653223603766165220,284377,279359,377863
653223603773599915,284459,279350,377958
653223603781034610,284421,279403,378031
653223603788469305,284432,279407,377956
6.53224E+17,284463,279394,378124
653223603803276800,284317,279458,378117
653223603810715136,284461,279498,378190
653223603818153472,284566,279486,378298
653223603825591808,284469,279474,378339
653223603833030144,284356,279403,378304
653223603840468480,284484,279471,378338
653223603847906816,284599,279507,378414
653223603855345152,284676,279545,378505
653223603862783488,284782,279669,378382
653223603870221824,284640,279486,378466
653223603877660160,284664,279650,378582
653223603885098496,284660,279606,378566
653223603892536832,284571,279667,378548
653223603899975168,284586,279486,378483
653223603907413504,284578,279364,378246
653223603914851840,284509,279478,378421
653223603922290176,284453,279345,378246
653223603929728512,284466,279425,378235
653223603937228745,284555,279446,378444
653223603944663440,284394,279300,378133
653223603952098135,284440,279266,378133
653223603959532830,284390,279253,377887
653223603966967525,284271,279218,377776
653223603974402220,284231,279110,377811
653223603981836915,284049,279133,377684
653223603989271610,284033,278976,377632
653223603996706305,284034,278956,377459
6.53224E+17,283887,278826,377500
653223604011575695,283894,278755,377221
653223604019010390,283869,278838,377262
653223604026445085,283777,278786,377266
653223604033879780,283864,278707,377170
653223604041314475,283803,278748,377176
653223604048749170,283894,278651,377130
653223604056183865,283920,278641,377121
653223604063618560,283865,278653,377000
653223604071053257,283859,278528,377104
653223604078487952,283818,278584,376933
653223604085922647,283675,278529,376871
653223604093357342,283667,278439,376844
653223604100792037,283604,278439,376759
653223604108226732,283674,278468,376820
653223604115661427,283671,278471,376864
653223604123096122,283635,278435,377027
653223604130530817,283448,278445,376915
653223604137965512,283416,278315,376789
653223604145400207,283420,278363,376780
653223604152834902,283463,278276,376804
653223604160269597,283515,278349,376781
653223604167704292,283342,278400,376730
653223604175138987,283392,278266,376779
653223604182573682,283607,278196,376655
653223604190008377,283507,278360,376808
653223604197443072,283557,278226,376819
653223604204753992,283809,278257,376486
653223604212195968,283715,278135,376665
653223604219637944,283569,278199,376647
653223604227079920,283435,278128,376761
653223604234521896,283368,278239,376714
653223604241963872,283488,278253,376782
653223604249405848,283442,278359,376913
653223604256847824,283545,278187,376865
653223604264289800,283498,278154,376914
653223604271731776,283446,278265,376835
653223604279173752,283389,278148,376819
653223604286615728,283498,278253,376944
653223604294057704,283449,278301,376906
653223604301499680,283437,278164,376863
653223604308941656,283420,278213,376921
653223604316383632,283423,278098,376898
653223604323825608,283532,278236,377062
653223604331267584,283574,278090,376901
653223604338895250,283490,278163,376821
653223604346326304,283531,278227,376901
653223604353757358,283683,278328,376991
653223604361188412,283718,278116,377155
653223604368619466,283652,278218,377249
653223604376050520,283612,278178,377243
653223604383481574,283723,278241,377223
653223604390912628,283690,278150,377135
653223604398343682,283769,278401,377328
653223604405774736,283754,278366,377292
653223604413205790,283653,278313,377422
653223604420636844,283728,278236,377446
653223604428067898,283851,278319,377323
653223604435498952,283855,278422,377365
653223604442930006,283730,278421,377403
653223604450361060,283864,278487,377497
653223604457792114,283866,278465,377604
653223604465223168,283913,278408,377521
653223604472468552,284230,278209,377757
653223604479910528,284122,278468,377781
653223604487352504,284147,278426,377780
653223604494794480,284050,278369,377827
653223604502236456,284113,278529,377907
653223604509678432,284104,278617,377911
653223604517120408,284068,278551,377910
653223604524562384,284124,278611,377994
653223604532004360,284141,278568,378011
653223604539446336,284195,278633,378064
653223604546888312,284195,278759,378161
653223604554330288,284189,278648,378176
653223604561772264,284248,278667,378166
653223604569214240,284233,278750,378249
653223604576656216,284359,278787,378420
653223604584098192,284279,278833,378401
653223604591540168,284331,278768,378362
653223604598982144,284290,278514,378383
653223604606609810,284344,278406,378474
653223604614040864,284390,278691,378404
653223604621471918,284418,278789,378491
653223604628902972,284427,278911,378624
653223604636334026,284498,278917,378727
653223604643765080,284383,278875,378709
653223604651196134,284341,278807,378634
653223604658627188,284420,278747,378548
653223604666058242,284334,278782,378535
653223604673489296,284398,278683,378486
653223604680920350,284268,278726,378365
653223604688351404,284263,278668,378305
653223604695782458,284206,278789,378237
653223604703213512,284181,278824,378249
653223604710644566,284133,278665,378117
653223604718075620,284116,278611,377951
653223604725506674,283994,278552,377958
653223604732937728,284023,278308,377716
653223604740244992,284073,278444,377633
653223604747683328,283968,278338,377619
653223604755121664,283887,278152,377637
6.53224E+17,283803,278132,377605
653223604769998336,283796,278138,377633
653223604777436672,283548,278229,377570
653223604784875008,283661,278189,377552
653223604792313344,283634,278115,377474
653223604799751680,283627,278038,377385
653223604807190016,283654,277929,377397
653223604814628352,283423,277948,377204
653223604822066688,283391,277797,377157
653223604829505024,283404,277733,377072
653223604836943360,283474,277603,377088
653223604844381696,283350,277563,376888
653223604851820032,283351,277665,376843
653223604859258368,283291,277614,376871
653223604866696704,283257,277475,376844
653223604874073160,283218,277318,377127
653223604881515136,283177,277510,376915
653223604888957112,283265,277447,376882
653223604896399088,283225,277630,376772
653223604903841064,283222,277609,376804
653223604911283040,283091,277414,376766
653223604918725016,283018,277561,376720
653223604926166992,283141,277440,376752
653223604933608968,283190,277353,376748
653223604941050944,283155,277294,376711
653223604948492920,283170,277312,376728
653223604955934896,283056,277389,376786
653223604963376872,283026,277468,376758
653223604970818848,283071,277286,376556
653223604978260824,282957,277325,376665
653223604985702800,283150,277364,376635
653223604993144776,283053,277350,376666
653223605000586752,283123,277246,376698
653223605008214418,282959,276876,376959
653223605015645472,282986,277072,376816
653223605023076526,283057,277223,376786
653223605030507580,283049,277363,376672
653223605037938634,283067,277257,376697
653223605045369688,283025,277390,376709
653223605052800742,283002,277307,376765
653223605060231796,283051,277189,376672
653223605067662850,283091,277237,376667
653223605075093904,283061,277260,376609
653223605082524958,283030,277338,376822
653223605089956012,283026,277220,376661
653223605097387066,283071,277194,376822
653223605104818120,283193,277285,376836
653223605112249174,283102,277185,376864
653223605119680228,283189,277294,376979
653223605127111282,283193,277336,376935
653223605134542336,283244,277400,376937
653223605141849600,283181,277063,376989
653223605149287936,283180,277309,377091
653223605156726272,283301,277385,377152
653223605164164608,283176,277375,377090
653223605171602944,283057,277243,377079
653223605179041280,283177,277438,377137
653223605186479616,283186,277425,377215
653223605193917952,283228,277390,377187
653223605201356288,283306,277404,377293
653223605208794624,283230,277462,377313
653223605216232960,283329,277459,377512
653223605223671296,283345,277433,377439
653223605231109632,283393,277436,377423
653223605238547968,283383,277451,377477
653223605245986304,283579,277467,377567
653223605253424640,283396,277616,377544
653223605260862976,283485,277681,377510
653223605268301312,283467,277754,377622
653223605275739648,283189,277359,377373
653223605283177984,283420,277733,377500
653223605290616320,283597,277727,377659
653223605298054656,283554,277705,377772
653223605305492992,283660,277628,377798
653223605312931328,283544,277761,377803
653223605320369664,283605,277807,377811
6.53224E+17,283791,277808,377928
653223605335246336,283729,277887,377975
653223605342684672,283864,277784,378031
653223605350123008,283807,277901,377982
653223605357561344,283889,277983,378140
653223605364999680,283908,277898,378094
653223605372438016,283861,277937,378277
653223605379876352,283878,277899,378368
653223605387314688,283849,278050,378429
653223605394753024,283928,278035,378381
653223605402191360,283949,277896,378363
653223605409691593,284035,277790,378345
653223605417126288,284025,278008,378501
653223605424560983,284124,278122,378506
653223605431995678,284132,277911,378517
653223605439430373,283968,277951,378409
653223605446865068,283941,278054,378347
653223605454299763,284025,277948,378390
653223605461734458,284088,278016,378381
653223605469169153,284058,277883,378413
653223605476603848,283891,277883,378315
653223605484038543,283759,277852,378221
653223605491473238,283820,277783,378078
653223605498907933,283785,277697,377898
653223605506342628,283709,277727,377720
653223605513777323,283704,277665,377811
653223605521212018,283557,277602,377764
653223605528646713,283568,277523,377583
653223605536081408,283412,277491,377647
653223605543392328,283575,277724,377637
653223605550834304,283489,277530,377461
653223605558276280,283258,277443,377373
653223605565718256,283257,277387,377317
653223605573160232,283165,277314,377193
653223605580602208,283115,277136,377205
653223605588044184,283079,277136,377110
653223605595486160,283123,277183,377052
653223605602928136,282928,277104,376990
653223605610370112,283033,277060,377045
653223605617812088,282900,276985,376887
653223605625254064,282960,277016,376888
653223605632696040,282847,276919,376860
653223605640138016,282886,276912,376893
653223605647579992,282835,276844,376730
653223605655021968,282776,276933,376791
653223605662463944,282764,276815,376637
653223605669905920,282822,276767,376572
653223605677471689,282608,276652,376683
653223605684906384,282700,276795,376692
653223605692341079,282653,276749,376649
653223605699775774,282735,276772,376705
653223605707210469,282779,276766,376732
653223605714645164,282778,276712,376647
653223605722079859,282851,276801,376701
653223605729514554,282719,276796,376743
653223605736949249,282636,276777,376629
653223605744383944,282667,276746,376652
653223605751818639,282625,276864,376613
653223605759253334,282637,276587,376549
653223605766688029,282796,276696,376692
653223605774122724,282676,276695,376677
653223605781557419,282672,276669,376644
653223605788992114,282769,276689,376589
653223605796426809,282734,276772,376552
653223605803861504,282666,276693,376479
653223605811296201,282968,276371,376433
653223605818730896,282832,276526,376444
653223605826165591,282719,276506,376604
653223605833600286,282752,276621,376679
653223605841034981,282653,276764,376695
653223605848469676,282568,276813,376598
653223605855904371,282665,276805,376637
653223605863339066,282711,276745,376647
653223605870773761,282730,276676,376614
653223605878208456,282675,276757,376703
653223605885643151,282621,276723,376764
653223605893077846,282668,276852,376762
653223605900512541,282733,276823,376802
653223605907947236,282761,276723,376813
653223605915381931,282790,276811,376855
653223605922816626,282708,276776,376821
653223605930251321,282700,276810,376929
653223605937686016,282771,276734,376922
653223605944996936,282679,276864,377074
653223605952438912,282764,276913,377043
653223605959880888,282821,276856,376990
653223605967322864,282798,276836,377021
653223605974764840,282789,276866,376991
653223605982206816,282857,276901,377056
653223605989648792,282978,276939,377222
653223605997090768,283022,276934,377235
653223606004532744,283011,276958,377093
653223606011974720,282971,276977,377150
653223606019416696,282884,276947,377263
653223606026858672,282958,276981,377262
653223606034300648,282960,276985,377268
653223606041742624,283105,276969,377344
653223606049184600,282966,277136,377469
653223606056626576,283076,277115,377417
653223606064068552,283034,277032,377407
653223606071510528,283157,277055,377598
653223606079138194,283452,277560,377402
653223606086569248,283245,277327,377516
653223606094000302,283286,277277,377726
653223606101431356,283191,277229,377783
653223606108862410,283267,277244,377824
653223606116293464,283149,277266,377717
653223606123724518,283234,277380,377810
653223606131155572,283334,277369,377814
653223606138586626,283431,277400,377807
653223606146017680,283377,277522,378059
653223606153448734,283281,277309,378049
653223606160879788,283402,277437,378071
653223606168310842,283452,277436,377988
653223606175741896,283552,277568,378270
653223606183172950,283615,277598,378283
653223606190604004,283608,277650,378315
653223606198035058,283728,277526,378192
653223606205466112,283725,277655,378434
653223606212773376,283255,277712,378300
653223606220211712,283450,277525,378355
653223606227650048,283554,277610,378515
653223606235088384,283675,277754,378531
653223606242526720,283739,277783,378420
653223606249965056,283745,277598,378297
653223606257403392,283587,277575,378316
653223606264841728,283558,277661,378370
653223606272280064,283569,277545,378296
653223606279718400,283522,277518,378170
653223606287156736,283436,277476,378075
653223606294595072,283447,277437,377893
653223606302033408,283401,277395,377846
653223606309471744,283271,277438,377883
653223606316910080,283292,277207,377777
653223606324348416,283098,277266,377623
653223606331786752,283073,277220,377596
653223606339225088,283127,277243,377591
653223606346725321,283093,276954,377651
653223606354160016,283097,276694,377587
653223606361594711,283047,276896,377425
653223606369029406,282983,277001,377272
653223606376464101,282899,277051,377218
653223606383898796,282860,276995,377215
653223606391333491,282922,276971,377178
653223606398768186,282804,276895,376963
653223606406202881,282768,276835,377023
653223606413637576,282762,276897,377036
653223606421072271,282782,276882,376905
653223606428506966,282778,276783,376848
653223606435941661,282729,276784,376911
653223606443376356,282599,276798,376786
653223606450811051,282589,276737,376702
653223606458245746,282549,276799,376778
653223606465680441,282573,276637,376612
653223606473115136,282557,276661,376632
653223606480487936,282534,276352,376763
653223606487926272,282452,276505,376643
653223606495364608,282507,276512,376623
653223606502802944,282517,276560,376604
653223606510241280,282563,276606,376680
653223606517679616,282459,276658,376620
653223606525117952,282613,276542,376634
653223606532556288,282450,276631,376669
653223606539994624,282310,276551,376628
653223606547432960,282387,276544,376547
653223606554871296,282464,276600,376543
653223606562309632,282513,276556,376661
653223606569747968,282429,276562,376639
653223606577186304,282378,276526,376583
653223606584624640,282362,276483,376529
653223606592062976,282262,276557,376564
653223606599501312,282393,276545,376600
653223606606939648,282333,276525,376446
653223606614377984,282094,276311,376436
653223606621816320,282103,276502,376507
653223606629254656,282256,276526,376638
653223606636692992,282312,276425,376611
653223606644131328,282301,276623,376665
653223606651569664,282465,276609,376707
6.53224E+17,282385,276683,376656
653223606666446336,282369,276711,376776
653223606673884672,282310,276585,376797
653223606681323008,282343,276542,376764
653223606688761344,282387,276609,376679
653223606696199680,282392,276607,376621
653223606703638016,282509,276670,376793
653223606711076352,282565,276776,376835
653223606718514688,282562,276728,376804
653223606725953024,282491,276756,376872
653223606733391360,282552,276725,376947
653223606740829696,282607,276756,376907
653223606748329929,282568,276818,377075
653223606755764624,282542,276691,376991
653223606763199319,282604,276813,376887
653223606770634014,282703,276802,376846
653223606778068709,282634,276765,377033
653223606785503404,282640,276778,377123
653223606792938099,282731,276816,377079
653223606800372794,282687,276772,377135
653223606807807489,282721,276756,377152
653223606815242184,282693,276829,377297
653223606822676879,282817,277016,377335
653223606830111574,282848,276971,377275
653223606837546269,282847,276927,377434
653223606844980964,282750,277095,377504
653223606852415659,282858,277034,377530
653223606859850354,282859,277099,377511
653223606867285049,282994,277009,377527
653223606874719744,282934,276932,377560
653223606882092544,283271,277228,377716
653223606889530880,283110,277246,377685
653223606896969216,283063,277115,377727
653223606904407552,282979,277223,377717
653223606911845888,283112,277217,377723
653223606919284224,282985,277184,377759
653223606926722560,283110,277269,377877
653223606934160896,283208,277399,377905
653223606941599232,283184,277336,377978
653223606949037568,283188,277521,378063
653223606956475904,283115,277472,378092
653223606963914240,283281,277325,378143
653223606971352576,283303,277392,378171
653223606978790912,283381,277524,378304
653223606986229248,283319,277548,378375
653223606993667584,283250,277521,378378
653223607001105920,283359,277572,378466
653223607008544256,283443,277607,378484
653223607016044489,283350,277463,378171
653223607023479184,283346,277512,378406
653223607030913879,283503,277748,378504
653223607038348574,283569,277709,378510
653223607045783269,283574,277636,378599
653223607053217964,283642,277705,378552
653223607060652659,283537,277689,378563
653223607068087354,283490,277788,378473
653223607075522049,283450,277696,378454
653223607082956744,283453,277576,378331
653223607090391439,283408,277626,378276
653223607097826134,283228,277569,378133
653223607105260829,283215,277489,378105
653223607112695524,283282,277492,378110
653223607120130219,283196,277442,378005
653223607127564914,283241,277468,377782
653223607134999609,283081,277499,377869
653223607142434304,283075,277357,377815
653223607149807104,283330,277105,377878
653223607157245440,283132,277161,377746
653223607164683776,283041,277311,377614
653223607172122112,283058,277217,377430
653223607179560448,282988,277240,377536
653223607186998784,282864,277274,377398
653223607194437120,282864,277260,377300
653223607201875456,282750,277106,377241
653223607209313792,282830,277156,377235
653223607216752128,282752,277221,377291
653223607224190464,282874,277161,377174
653223607231628800,282803,277176,377268
653223607239067136,282750,277072,377136
653223607246505472,282771,277080,377107
653223607253943808,282706,277050,377053
653223607261382144,282683,277065,377225
653223607268820480,282782,277099,377172
653223607276258816,282652,277110,377016
653223607283697152,282403,276761,376753
653223607291135488,282480,276903,376955
653223607298573824,282449,277089,376996
653223607306012160,282572,276983,377071
653223607313450496,282562,276976,377007
653223607320888832,282547,276910,376950
653223607328327168,282626,277100,377071
653223607335765504,282443,276999,377078
653223607343203840,282527,277009,377031
653223607350642176,282621,277024,377125
653223607358080512,282504,277029,377067
653223607365518848,282466,277018,376987
653223607372957184,282550,277074,376958
653223607380395520,282578,276992,376952
653223607387833856,282608,276979,377069
653223607395272192,282562,276917,377015
653223607402710528,282479,276916,377018
653223607410148864,282529,276963,376930
653223607417587200,282580,277037,376769
653223607425025536,282598,277089,376847
653223607432463872,282522,277004,377005
653223607439902208,282543,277062,376964
653223607447340544,282606,277086,377045
653223607454778880,282504,276999,377098
653223607462217216,282597,277057,377060
653223607469655552,282725,277064,377105
653223607477093888,282704,277159,377160
653223607484532224,282562,277141,377183
653223607491970560,282556,277118,377239
653223607499408896,282722,277164,377224
653223607506847232,282682,277242,377244
653223607514285568,282711,277248,377238
653223607521723904,282757,277284,377205
653223607529162240,282818,277355,377232
653223607536600576,282800,277319,377310
653223607544038912,282778,277375,377465
653223607551539145,283036,277458,377203
653223607558973840,282779,277406,377324
653223607566408535,282777,277454,377464
653223607573843230,282754,277262,377427
653223607581277925,282904,277337,377374
653223607588712620,282896,277327,377419
653223607596147315,282774,277409,377589
653223607603582010,282740,277363,377573
653223607611016705,282781,277523,377612
653223607618451400,282931,277472,377699
653223607625886095,283022,277485,377757
653223607633320790,282851,277314,377729
653223607640755485,282860,277466,377859
653223607648190180,282979,277526,377700
653223607655624875,283077,277597,377742
653223607663059570,283152,277601,377786
653223607670494265,282954,277648,377913
653223607677928960,282927,277527,377879
653223607685301760,282865,277567,378277
653223607692740096,283145,277743,378161
653223607700178432,283203,277728,378057
653223607707616768,283180,277688,378093
653223607715055104,283087,277667,378040
653223607722493440,283284,277841,378265
653223607729931776,283272,277848,378295
653223607737370112,283406,277871,378236
653223607744808448,283358,277956,378298
653223607752246784,283434,277792,378261
653223607759685120,283391,277874,378416
653223607767123456,283328,277956,378434
653223607774561792,283449,277976,378624
653223607782000128,283557,277873,378600
653223607789438464,283564,277991,378595
653223607796876800,283593,277915,378546
653223607804315136,283660,278074,378690
653223607811753472,283619,278068,378939
653223607819253705,283227,277848,379021
653223607826688400,283503,278061,378887
653223607834123095,283572,278062,378808
653223607841557790,283639,278077,378759
653223607848992485,283621,278120,378579
653223607856427180,283626,278051,378467
653223607863861875,283461,277970,378429
653223607871296570,283461,278023,378384
653223607878731265,283330,278024,378351
653223607886165960,283364,278079,378287
653223607893600655,283313,278154,378193
653223607901035350,283375,277948,378140
653223607908470045,283085,277901,378064
653223607915904740,283184,277808,377845
653223607923339435,283103,277826,377858
653223607930774130,283013,277779,377772
653223607938208825,283003,277717,377800
653223607945643520,283022,277763,377586
653223607953016320,282711,277906,377705
653223607960454656,282780,277771,377554
653223607967892992,282839,277707,377569
653223607975331328,282865,277610,377482
653223607982769664,282671,277501,377360
6.53224E+17,282811,277635,377486
653223607997646336,282752,277617,377244
653223608005084672,282742,277620,377085
653223608012523008,282799,277567,377238
653223608019961344,282606,277563,377252
653223608027399680,282710,277513,377149
653223608034838016,282530,277522,377218
653223608042276352,282578,277462,377126
653223608049714688,282482,277508,377013
653223608057153024,282499,277485,376984
653223608064591360,282567,277492,377062
653223608072029696,282544,277589,376944
653223608079468032,282433,277406,376925
653223608086906368,282374,276995,376946
653223608094344704,282337,277206,377014
653223608101783040,282509,277324,377101
653223608109221376,282507,277338,377136
653223608116659712,282665,277428,377023
653223608124098048,282386,277276,376959
653223608131536384,282448,277480,376995
653223608138974720,282433,277515,376985
653223608146413056,282405,277512,376946
653223608153851392,282547,277496,377009
653223608161289728,282517,277535,376935
653223608168728064,282581,277627,376917
653223608176166400,282590,277561,377000
653223608183604736,282416,277411,377099
653223608191043072,282460,277544,376996
653223608198481408,282535,277510,377043
653223608205919744,282592,277528,377153
653223608213358080,282388,277513,377030
653223608220858313,282499,277623,376846
653223608228293008,282425,277479,376865
653223608235727703,282470,277504,377054
653223608243162398,282530,277521,377115
653223608250597093,282591,277580,377187
653223608258031788,282688,277490,377047
653223608265466483,282683,277514,376989
653223608272901178,282717,277548,377161
653223608280335873,282720,277575,377000
653223608287770568,282675,277666,377259
653223608295205263,282725,277886,377244
653223608302639958,282665,277739,377225
653223608310074653,282633,277587,377206
653223608317509348,282767,277707,377214
653223608324944043,282789,277715,377363
653223608332378738,282740,277644,377342
653223608339813433,282652,277754,377346
653223608347248128,282669,277547,377352
653223608354620928,283123,277545,377526
653223608362059264,282875,277618,377393
653223608369497600,282888,277796,377589
653223608376935936,282969,277854,377578
653223608384374272,282935,277804,377611
653223608391812608,282967,277881,377588
653223608399250944,282942,277814,377548
653223608406689280,282891,277758,377654
653223608414127616,282955,277790,377742
653223608421565952,283025,277773,377718
653223608429004288,283166,277886,377625
653223608436442624,283055,277972,377740
653223608443880960,283144,277934,377666
653223608451319296,283097,278057,377889
653223608458757632,283062,278128,378071
653223608466195968,283125,277993,377875
653223608473634304,283126,278059,377997
653223608481072640,283214,278071,377978
653223608488510976,283529,278419,378227
653223608495949312,283379,278234,378238
653223608503387648,283359,278189,378205
653223608510825984,283357,278287,378179
653223608518264320,283375,278263,378188
653223608525702656,283315,278195,378186
653223608533140992,283428,278355,378309
653223608540579328,283474,278314,378402
653223608548017664,283522,278360,378409
6.53224E+17,283656,278399,378442
653223608562894336,283591,278352,378472
653223608570332672,283686,278329,378613
653223608577771008,283637,278461,378630
653223608585209344,283564,278466,378621
653223608592647680,283457,278399,378638
653223608600086016,283489,278295,378750
653223608607524352,283584,278329,378585
653223608614962688,283701,278435,378605
653223608622462921,283729,278391,378705
653223608629897616,283562,278320,378573
653223608637332311,283603,278490,378599
653223608644767006,283618,278419,378559
653223608652201701,283609,278452,378544
653223608659636396,283660,278506,378602
653223608667071091,283600,278457,378387
653223608674505786,283457,278423,378262
653223608681940481,283421,278531,378249
653223608689375176,283393,278498,378048
653223608696809871,283455,278420,378051
653223608704244566,283226,278329,377919
653223608711679261,283093,278363,377863
653223608719113956,283139,278264,377801
653223608726548651,283124,278289,377856
653223608733983346,283127,278212,377685
653223608741418041,283078,278192,377613
653223608748852736,282957,278103,377499
653223608756163656,283149,278209,377434
653223608763605632,282976,278204,377290
653223608771047608,282740,278074,377164
653223608778489584,282756,277988,377129
653223608785931560,282704,277979,377025
653223608793373536,282736,277973,377048
653223608800815512,282740,278014,377024
653223608808257488,282753,277975,376940
653223608815699464,282520,277825,376781
653223608823141440,282557,277836,376814
653223608830583416,282436,277851,376736
653223608838025392,282432,277722,376744
653223608845467368,282465,277718,376625
653223608852909344,282436,277735,376594
653223608860351320,282490,277789,376652
653223608867793296,282353,277636,376642
653223608875235272,282480,277589,376540
653223608882677248,282387,277706,376646
653223608890243017,282593,277899,376382
653223608897677712,282518,277751,376526
653223608905112407,282533,277783,376477
653223608912547102,282483,277789,376598
653223608919981797,282572,277796,376594
653223608927416492,282513,277797,376644
653223608934851187,282522,277813,376617
653223608942285882,282426,277774,376498
653223608949720577,282386,277789,376515
653223608957155272,282362,277545,376451
653223608964589967,282454,277823,376430
653223608972024662,282183,277792,376412
653223608979459357,282336,277637,376340
653223608986894052,282308,277723,376388
653223608994328747,282340,277630,376313
653223609001763442,282314,277687,376222
653223609009198137,282371,277714,376402
653223609016632832,282454,277673,376545
653223609024067529,282324,277448,376558
653223609031502224,282408,277562,376411
653223609038936919,282488,277651,376463
653223609046371614,282359,277724,376412
653223609053806309,282382,277722,376392
653223609061241004,282486,277741,376508
653223609068675699,282509,277641,376544
653223609076110394,282448,277572,376396
653223609083545089,282493,277698,376353
653223609090979784,282341,277773,376518
653223609098414479,282388,277704,376387
653223609105849174,282435,277847,376584
653223609113283869,282474,277784,376542
653223609120718564,282535,277804,376725
653223609128153259,282496,277949,376628
653223609135587954,282645,277781,376607
653223609143022649,282565,277885,376759
653223609150457344,282671,277901,376595
653223609157768264,282328,277619,376471
653223609165210240,282303,277807,376538
653223609172652216,282469,277856,376693
653223609180094192,282599,278006,376805
653223609187536168,282534,277873,376799
653223609194978144,282509,277830,376749
653223609202420120,282452,277967,376901
653223609209862096,282545,278002,376899
653223609217304072,282612,278038,376857
653223609224746048,282718,278107,376871
653223609232188024,282763,278217,376856
6.53224E+17,282706,278272,376865
653223609247071976,282720,278291,376979
653223609254513952,282811,278244,377124
653223609261955928,282889,278218,377183
653223609269397904,282834,278283,377168
653223609276839880,282922,278118,377236
653223609284281856,282977,278131,377261
653223609291909522,282998,277948,377091
653223609299340576,282837,278212,377316
653223609306771630,283060,278365,377375
653223609314202684,283091,278300,377495
653223609321633738,283169,278265,377406
653223609329064792,283153,278253,377631
653223609336495846,283203,278456,377566
653223609343926900,283247,278445,377514
653223609351357954,283381,278482,377553
653223609358789008,283246,278437,377633
653223609366220062,283279,278568,377819
653223609373651116,283313,278652,377710
653223609381082170,283454,278555,377823
653223609388513224,283472,278668,377926
653223609395944278,283376,278683,377860
653223609403375332,283429,278635,377948
653223609410806386,283399,278772,378056
653223609418237440,283495,278660,378089
653223609425544704,283798,278473,377999
653223609432983040,283615,278627,378050
653223609440421376,283571,278758,378027
653223609447859712,283510,278605,378118
653223609455298048,283638,278740,378108
653223609462736384,283527,278702,378090
653223609470174720,283552,278756,378125
653223609477613056,283436,278723,377902
653223609485051392,283416,278764,377755
653223609492489728,283318,278647,377630
653223609499928064,283234,278571,377580
653223609507366400,283299,278616,377599
653223609514804736,283126,278497,377432
653223609522243072,283000,278526,377314
653223609529681408,282967,278483,377259
653223609537119744,283033,278485,377278
653223609544558080,282965,278456,377174
653223609551996416,282784,278321,376997
653223609559434752,282602,278155,377115
653223609566873088,282669,278309,377022
653223609574311424,282677,278231,376759
653223609581749760,282597,278258,376662
653223609589188096,282570,278084,376614
653223609596626432,282441,278026,376457
653223609604064768,282512,278121,376449
653223609611503104,282435,278096,376443
653223609618941440,282314,278021,376287
653223609626379776,282347,278013,376176
653223609633818112,282385,277914,376070
653223609641256448,282369,277903,376024
653223609648694784,282312,277819,376054
653223609656133120,282236,277937,376043
653223609663571456,282327,277871,375953
653223609671009792,282238,277774,375779
653223609678448128,282279,277703,375676
653223609685886464,282283,277836,375769
653223609693386697,282362,278096,375652
653223609700821392,282276,277969,375806
653223609708256087,282125,277738,375773
653223609715690782,282097,277719,375814
653223609723125477,282043,277744,375657
653223609730560172,282117,277757,375750
653223609737994867,282135,277808,375663
653223609745429562,282044,277700,375701
653223609752864257,282113,277835,375727
653223609760298952,282030,277877,375658
653223609767733647,282033,277811,375707
653223609775168342,282086,277764,375644
653223609782603037,282129,277829,375654
653223609790037732,282087,277795,375554
653223609797472427,281999,277699,375579
653223609804907122,282030,277760,375590
653223609812341817,282124,277720,375571
653223609819776512,282129,277815,375518
653223609827087432,282345,277446,375494
653223609834529408,282054,277566,375488
653223609841971384,282099,277761,375600
653223609849413360,282152,277707,375598
653223609856855336,282119,277812,375499
653223609864297312,281890,277702,375564
653223609871739288,281954,277616,375479
653223609879181264,282058,277731,375541
653223609886623240,282032,277712,375632
653223609894065216,282047,277655,375669
653223609901507192,282166,277803,375628
653223609908949168,282197,277874,375773
653223609916391144,282095,277838,375751
653223609923833120,282101,277744,375697
653223609931275096,282239,277788,375723
653223609938717072,282062,277813,375756
653223609946159048,282245,277956,375678
653223609953601024,282160,277847,375703
653223609961166793,282235,277968,375650
653223609968601488,282197,277929,375640
653223609976036183,282114,277815,375792
653223609983470878,282171,277956,375962
653223609990905573,282276,277980,375904
653223609998340268,282333,277851,375907
653223610005774963,282377,277948,375985
653223610013209658,282419,277940,375906
653223610020644353,282441,278022,375943
653223610028079048,282408,277967,375997
653223610035513743,282414,278063,375991
653223610042948438,282435,277988,376170
653223610050383133,282526,278022,376199
653223610057817828,282596,278069,376273
653223610065252523,282567,278086,376382
653223610072687218,282578,278131,376364
653223610080121913,282487,278188,376413
653223610087556608,282575,278045,376335
653223610094991305,282821,277927,376458
6.53224E+17,282695,278091,376419
653223610109860695,282689,278139,376509
653223610117295390,282655,278253,376545
653223610124730085,282709,278268,376494
653223610132164780,282610,278332,376616
653223610139599475,282674,278229,376688
653223610147034170,282718,278257,376679
653223610154468865,282875,278372,376626
653223610161903560,282872,278433,376772
653223610169338255,282869,278380,376852
653223610176772950,282849,278501,376872
653223610184207645,282984,278437,376930
653223610191642340,282821,278474,377030
653223610199077035,282968,278462,377034
653223610206511730,282924,278529,377088
653223610213946425,282971,278554,377054
653223610221381120,283085,278516,377013
653223610228753920,283430,278814,376940
653223610236192256,283309,278701,377146
653223610243630592,283171,278576,377260
653223610251068928,283276,278639,377350
653223610258507264,283243,278669,377304
653223610265945600,283261,279033,377767
653223610273383936,283209,278847,377511
653223610280822272,283345,278857,377516
653223610288260608,283310,278729,377521
653223610295698944,283348,278924,377662
653223610303137280,283334,278879,377616
653223610310575616,283178,278915,377465
653223610318013952,283118,278759,377381
653223610325452288,283166,278677,377325
653223610332890624,283143,278758,377298
653223610340328960,283207,278778,377112
653223610347767296,283145,278727,377278
653223610355205632,283360,278730,377073
653223610362705865,282922,278397,377081
653223610370140560,283022,278571,377018
653223610377575255,282847,278387,376814
653223610385009950,282669,278446,376684
653223610392444645,282745,278469,376481
653223610399879340,282782,278465,376379
653223610407314035,282738,278494,376474
653223610414748730,282645,278369,376379
653223610422183425,282526,278333,376266
653223610429618120,282475,278206,376219
653223610437052815,282440,278137,376074
653223610444487510,282457,278109,376020
653223610451922205,282466,278084,376017
653223610459356900,282379,278132,375934
653223610466791595,282250,278091,375904
653223610474226290,282269,278091,375865
653223610481660985,282217,278139,375593
653223610489095680,282201,278109,375711
653223610496530377,282378,278360,375333
653223610503965072,282216,278118,375505
653223610511399767,282230,278045,375279
653223610518834462,282203,277903,375409
653223610526269157,282087,277960,375429
653223610533703852,282030,278018,375337
653223610541138547,282015,278079,375477
653223610548573242,281900,277954,375381
653223610556007937,281954,277787,375350
653223610563442632,281962,277980,375242
653223610570877327,282014,277901,375182
653223610578312022,281936,277954,375241
653223610585746717,281825,277887,375242
653223610593181412,281925,277873,375294
653223610600616107,281984,277873,375164
653223610608050802,281943,277949,375321
653223610615485497,281862,277979,375392
653223610622920192,281775,278004,375333
653223610630231112,282082,278012,375034
653223610637673088,282046,278027,375147
653223610645115064,281920,277957,375179
653223610652557040,282009,277928,375172
653223610659999016,282019,277984,375315
653223610667440992,281915,277898,375207
653223610674882968,282074,277932,375350
653223610682324944,282021,277934,375283
653223610689766920,282014,277954,375180
653223610697208896,282040,277909,375258
653223610704650872,281948,277936,375296
653223610712092848,281859,277943,375417
653223610719534824,281825,277807,375331
653223610726976800,281915,277802,375247
653223610734418776,282033,277833,375283
653223610741860752,282022,277843,375201
653223610749302728,282109,277929,375436
653223610756744704,282123,278030,375409
653223610764310473,282116,277731,375383
653223610771745168,282080,277897,375372
653223610779179863,282140,278005,375557
653223610786614558,282135,277977,375355
653223610794049253,282124,277924,375401
653223610801483948,282147,277975,375443
653223610808918643,282203,278020,375438
653223610816353338,282239,278017,375407
653223610823788033,282066,278034,375502
653223610831222728,282135,277891,375596
653223610838657423,282092,277967,375688
653223610846092118,282215,278035,375723
653223610853526813,282276,278012,375777
653223610860961508,282375,278062,375818
653223610868396203,282225,278143,375707
653223610875830898,282226,278157,375790
653223610883265593,282312,278167,375843
653223610890700288,282310,278180,375932
653223610898073088,281991,278159,376206
653223610905511424,282322,278269,376126
653223610912949760,282304,278209,376104
653223610920388096,282424,278231,376013
653223610927826432,282433,278328,376057
653223610935264768,282411,278343,376069
653223610942703104,282521,278344,376168
653223610950141440,282625,278445,376147
653223610957579776,282577,278384,376223
653223610965018112,282495,278454,376234
653223610972456448,282610,278452,376163
653223610979894784,282623,278423,376324
653223610987333120,282575,278540,376496
653223610994771456,282597,278369,376418
653223611002209792,282642,278498,376472
653223611009648128,282757,278443,376573
653223611017086464,282839,278555,376580
653223611024524800,282834,278528,376519
653223611032025033,283019,278245,376862
653223611039459728,282879,278357,376803
653223611046894423,282773,278581,376865
653223611054329118,282898,278654,376861
653223611061763813,282783,278678,376857
653223611069198508,282902,278737,376850
653223611076633203,282956,278849,376997
653223611084067898,282975,278703,376984
653223611091502593,283098,278654,377004
653223611098937288,283212,278801,376957
653223611106371983,283103,278801,376941
653223611113806678,283174,278848,377224
653223611121241373,283090,278913,377210
653223611128676068,283241,278946,377305
653223611136110763,283330,278883,377348
653223611143545458,283283,278921,377335
653223611150980153,283302,279040,377460
653223611158414848,283340,279030,377459
653223611165787648,283589,279233,377342
653223611173225984,283334,279128,377482
653223611180664320,283433,279168,377564
653223611188102656,283436,279064,377405
653223611195540992,283288,279044,377474
653223611202979328,283229,279030,377427
653223611210417664,283271,279044,377415
6.53224E+17,283165,278950,377297
653223611225294336,283084,278874,377038
653223611232732672,283075,278889,377009
653223611240171008,282993,278896,377006
653223611247609344,282969,278858,376814
653223611255047680,282942,278907,376851
653223611262486016,283001,278804,376796
653223611269924352,283074,278685,376763
653223611277362688,283023,278616,376657
653223611284801024,282911,278651,376622
653223611292239360,282873,278588,376620
653223611299677696,282625,278666,376679
653223611307116032,282655,278719,376505
653223611314554368,282635,278661,376420
653223611321992704,282668,278579,376250
653223611329431040,282565,278401,376260
653223611336869376,282477,278421,376118
653223611344307712,282564,278409,376159
653223611351746048,282444,278296,376089
653223611359184384,282523,278386,376054
653223611366622720,282455,278409,375876
653223611374061056,282426,278319,375798
653223611381499392,282337,278283,375758
653223611388937728,282330,278317,375619
653223611396376064,282295,278211,375642
653223611403814400,282267,278204,375769
653223611411252736,282323,278227,375727
653223611418691072,282240,278249,375773
653223611426129408,282226,278248,375611
653223611433629641,282143,278020,375677
653223611441064336,282220,278149,375700
653223611448499031,282065,278263,375610
653223611455933726,282069,278131,375598
653223611463368421,282250,278129,375630
653223611470803116,282108,278167,375619
653223611478237811,282111,278137,375686
653223611485672506,281951,278113,375614
653223611493107201,282029,278062,375570
653223611500541896,282000,278046,375509
653223611507976591,282130,278097,375555
653223611515411286,282149,278144,375514
653223611522845981,282108,278135,375579
653223611530280676,282196,278210,375417
653223611537715371,282219,278086,375513
653223611545150066,282094,278016,375517
653223611552584761,282004,278028,375439
653223611560019456,282204,277999,375519
653223611567392256,282103,278076,375221
653223611574830592,282096,277984,375422
653223611582268928,282124,278087,375523
653223611589707264,282237,278160,375660
653223611597145600,282120,278037,375660
653223611604583936,282159,278159,375640
653223611612022272,282184,278106,375575
653223611619460608,282035,278183,375699
653223611626898944,282134,278097,375644
653223611634337280,282172,278088,375533
653223611641775616,282234,278019,375695
653223611649213952,282182,278082,375663
653223611656652288,282214,278090,375643
653223611664090624,282223,278064,375746
653223611671528960,282269,278097,375799
653223611678967296,282329,278054,375729
653223611686405632,282371,278232,375797
653223611693843968,282341,278358,375780
653223611701344201,282296,278148,375776
653223611708778896,282439,278214,375887
653223611716213591,282377,278318,375950
653223611723648286,282447,278388,376054
653223611731082981,282462,278280,375951
653223611738517676,282523,278307,376082
653223611745952371,282480,278334,375939
653223611753387066,282432,278344,375983
653223611760821761,282591,278435,376142
653223611768256456,282682,278430,376053
653223611775691151,282677,278446,376143
653223611783125846,282689,278450,375985
653223611790560541,282717,278487,376133
653223611797995236,282717,278526,376106
653223611805429931,282695,278604,376425
653223611812864626,282606,278613,376348
653223611820299321,282768,278582,376321
653223611827734016,282674,278624,376311
653223611835106816,283114,278833,376164
653223611842545152,282984,278754,376248
653223611849983488,282901,278614,376419
653223611857421824,282910,278702,376473
653223611864860160,282862,278687,376586
653223611872298496,282958,278627,376745
653223611879736832,282887,278550,376719
653223611887175168,282872,278604,376737
653223611894613504,282897,278638,376873
653223611902051840,283019,278677,376893
653223611909490176,283017,278670,376996
653223611916928512,282876,278845,377064
653223611924366848,283150,278715,377074
653223611931805184,283227,278820,377099
653223611939243520,283264,278859,377196
653223611946681856,283189,278933,377201
653223611954120192,283290,278903,377243
653223611961558528,283356,278896,377226
653223611968996864,283366,279089,377305
653223611976435200,283431,279143,377306
653223611983873536,283361,279015,377362
653223611991311872,283481,279062,377463
653223611998750208,283419,278959,377376
653223612006188544,283565,279020,377580
653223612013626880,283497,279089,377520
653223612021065216,283497,278968,377632
653223612028503552,283479,279171,377729
653223612035941888,283588,279171,377801
653223612043380224,283599,279314,377841
653223612050818560,283643,279339,377893
653223612058256896,283700,279169,377945
653223612065695232,283767,279245,377974
653223612073133568,283741,279164,377894
653223612080571904,283647,279190,377856
653223612088010240,283720,279163,377770
653223612095448576,283563,279276,377814
653223612102948809,283804,278899,377665
653223612110383504,283652,279026,377445
653223612117818199,283455,279040,377488
653223612125252894,283484,279171,377474
653223612132687589,283462,279095,377283
653223612140122284,283324,279054,377217
653223612147556979,283307,278983,377244
653223612154991674,283282,278982,377155
653223612162426369,283260,278981,377040
653223612169861064,283316,278942,377134
653223612177295759,283010,278964,376976
653223612184730454,283026,278780,376920
653223612192165149,283051,278896,376879
653223612199599844,283089,278787,376915
653223612207034539,282808,278768,376927
653223612214469234,282983,278704,376813
653223612221903929,282916,278728,376655
653223612229338624,282885,278603,376611
653223612236773321,283004,278565,376447
653223612244208016,282937,278453,376541
653223612251642711,282922,278524,376478
653223612259077406,282798,278529,376422
653223612266512101,282937,278633,376518
653223612273946796,282779,278573,376411
653223612281381491,282677,278541,376411
653223612288816186,282765,278512,376393
653223612296250881,282860,278461,376445
653223612303685576,282812,278536,376485
653223612311120271,282778,278569,376510
653223612318554966,282653,278465,376390
653223612325989661,282668,278445,376421
653223612333424356,282621,278327,376316
653223612340859051,282711,278448,376272
653223612348293746,282573,278414,376392
653223612355728441,282432,278385,376292
653223612363163136,282482,278419,376358
653223612370474056,282560,278324,376362
653223612377916032,282767,278455,376301
653223612385358008,282592,278440,376368
653223612392799984,282579,278432,376357
653223612400241960,282669,278503,376259
653223612407683936,282704,278437,376357
653223612415125912,282641,278505,376333
653223612422567888,282546,278520,376359
653223612430009864,282659,278273,376250
653223612437451840,282726,278312,376239
653223612444893816,282725,278318,376319
653223612452335792,282599,278440,376410
653223612459777768,282569,278347,376336
653223612467219744,282599,278309,376317
653223612474661720,282706,278333,376394
653223612482103696,282573,278360,376249
653223612489545672,282618,278325,376335
653223612496987648,282805,278366,376469
653223612504553417,282892,278087,376454
653223612511988112,282799,278130,376494
653223612519422807,282711,278415,376410
653223612526857502,282652,278396,376528
653223612534292197,282734,278508,376474
653223612541726892,282823,278498,376521
653223612549161587,282728,278481,376456
653223612556596282,282762,278429,376556
653223612564030977,282757,278496,376570
653223612571465672,282852,278516,376724
653223612578900367,282848,278442,376769
653223612586335062,282845,278555,376676
653223612593769757,282943,278554,376763
653223612601204452,282864,278444,376789
653223612608639147,282949,278572,376859
653223612616073842,283006,278549,376856
653223612623508537,282935,278656,376866
653223612630943232,283006,278434,377041
653223612638316032,283045,278580,376837
653223612645754368,283136,278677,376850
653223612653192704,283094,278579,377033
653223612660631040,283142,278692,377140
653223612668069376,283173,278803,377211
653223612675507712,283278,278874,377176
653223612682946048,283286,278811,377176
653223612690384384,283274,278840,377222
653223612697822720,283235,278867,377094
653223612705261056,283340,278861,377288
653223612712699392,283268,278955,377420
653223612720137728,283322,278758,377425
653223612727576064,283414,278685,377570
653223612735014400,283464,278823,377484
653223612742452736,283409,278795,377468
653223612749891072,283378,278922,377608
653223612757329408,283307,278949,377663
653223612764767744,283462,279049,377690
653223612772206080,283464,278617,377901
653223612779644416,283571,278763,377926
653223612787082752,283485,278848,377906
653223612794521088,283596,279132,377959
653223612801959424,283673,279076,377901
653223612809397760,283666,279115,378059
653223612816836096,283699,279185,378036
653223612824274432,283716,279140,378192
653223612831712768,283737,279237,378135
653223612839151104,283754,279241,378194
653223612846589440,283760,279198,378246
653223612854027776,283779,279069,378266
653223612861466112,283890,279232,378244
653223612868904448,283940,279348,378434
653223612876342784,283855,279234,378314
653223612883781120,283957,279285,378494
653223612891219456,283879,279422,378518
653223612898657792,283946,279410,378633
653223612906158025,283810,279442,378518
653223612913592720,283933,279430,378586
653223612921027415,283812,279373,378549
653223612928462110,283870,279335,378540
653223612935896805,283856,279378,378351
653223612943331500,283852,279334,378150
653223612950766195,283870,279362,378011
653223612958200890,283686,279250,378021
653223612965635585,283678,279181,377935
653223612973070280,283650,279134,377855
653223612980504975,283612,279131,377825
653223612987939670,283584,279071,377641
653223612995374365,283557,279050,377624
653223613002809060,283584,279003,377638
653223613010243755,283496,278977,377515
653223613017678450,283356,278949,377476
653223613025113145,283391,279084,377448
653223613032547840,283378,278903,377403
653223613039920640,283184,278828,377190
653223613047358976,283273,278836,377289
653223613054797312,283034,278792,377100
653223613062235648,283143,278826,377061
653223613069673984,283107,278708,377022
653223613077112320,283158,278703,377003
653223613084550656,283204,278726,377055
653223613091988992,283241,278679,376975
653223613099427328,283075,278626,376941
653223613106865664,283162,278685,376932
6.53224E+17,283062,278591,376871
653223613121742336,283110,278506,376902
653223613129180672,282908,278540,376898
653223613136619008,283025,278465,376843
653223613144057344,282918,278474,376683
653223613151495680,282934,278495,376743
653223613158934016,282835,278473,376715
653223613166372352,282994,278319,376710
653223613173872585,282612,278051,376866
653223613181307280,282843,278138,376846
653223613188741975,282868,278200,376774
653223613196176670,282887,278337,376794
653223613203611365,282957,278346,376764
653223613211046060,282916,278367,376734
653223613218480755,282983,278302,376863
653223613225915450,282935,278456,376772
653223613233350145,282804,278454,376708
653223613240784840,282893,278384,376815
653223613248219535,282768,278314,376666
653223613255654230,282776,278352,376591
653223613263088925,282864,278283,376663
653223613270523620,282932,278328,376786
653223613277958315,282972,278298,376732
653223613285393010,282962,278345,376763
653223613292827705,282937,278320,376745
653223613300262400,283136,278330,376725
653223613307635200,282847,278319,376818
653223613315073536,282923,278333,376859
653223613322511872,282979,278320,376781
653223613329950208,282966,278311,376821
653223613337388544,282960,278306,376891
653223613344826880,283036,278287,376914
653223613352265216,282973,278400,376924
653223613359703552,282998,278429,376915
653223613367141888,283036,278444,377014
653223613374580224,282837,278346,376986
653223613382018560,282954,278490,376874
653223613389456896,283007,278428,376948
653223613396895232,283124,278409,376956
653223613404333568,283145,278428,376976
653223613411771904,283107,278463,376888
653223613419210240,283142,278426,376887
653223613426648576,283107,278343,376992
653223613434086912,283303,278464,377230
653223613441525248,283429,278921,377328
653223613448963584,283326,278686,377262
653223613456401920,283317,278736,377333
653223613463840256,283295,278506,377271
653223613471278592,283351,278602,377351
653223613478716928,283336,278614,377295
653223613486155264,283172,278474,377420
653223613493593600,283256,278626,377528
653223613501031936,283280,278551,377521
653223613508470272,283389,278712,377561
653223613515908608,283385,278794,377705
653223613523346944,283334,278825,377804
653223613530785280,283478,278759,377730
653223613538223616,283444,278624,377679
653223613545661952,283541,278784,377690
653223613553100288,283483,278842,377852
653223613560538624,283581,278764,377876
653223613567976960,283672,278712,378009
653223613575477193,283836,278955,377995
653223613582911888,283661,278910,378004
653223613590346583,283544,278806,378037
653223613597781278,283654,278875,378254
653223613605215973,283666,278840,378131
653223613612650668,283694,278896,378261
653223613620085363,283781,279016,378217
653223613627520058,283883,278996,378139
653223613634954753,283824,279098,378299
653223613642389448,283868,279033,378367
653223613649824143,283760,279180,378449
653223613657258838,283889,279016,378356
653223613664693533,283973,279037,378324
653223613672128228,283948,279096,378482
653223613679562923,284060,279117,378493
653223613686997618,284057,279139,378631
653223613694432313,283992,279308,378700
653223613701867008,283956,279213,378740
653223613709301705,283851,279254,378800
653223613716736400,284109,279336,378868
653223613724171095,284234,279163,379002
653223613731605790,284159,279254,378921
653223613739040485,284324,279377,378971
653223613746475180,284119,279366,378852
653223613753909875,284258,279300,378965
653223613761344570,284229,279336,378792
653223613768779265,284045,279258,378790
653223613776213960,283998,279335,378696
653223613783648655,284105,279129,378629
653223613791083350,284070,279015,378518
653223613798518045,283928,279055,378520
653223613805952740,283823,278986,378410
653223613813387435,283820,278925,378343
653223613820822130,283795,279034,378330
653223613828256825,283834,278876,378217
653223613835691520,283728,278698,378076
653223613843002440,283694,279055,377778
653223613850444416,283552,278838,377771
653223613857886392,283558,278632,377740
653223613865328368,283546,278666,377671
653223613872770344,283456,278700,377684
653223613880212320,283395,278667,377535
653223613887654296,283286,278637,377584
653223613895096272,283438,278623,377530
653223613902538248,283332,278562,377477
653223613909980224,283279,278509,377337
653223613917422200,283309,278508,377185
653223613924864176,283248,278404,377105
653223613932306152,283089,278190,377047
653223613939748128,283154,278166,377090
653223613947190104,282976,278282,377136
653223613954632080,282872,278258,377109
653223613962074056,282807,278113,377049
653223613969516032,282872,278130,376830
653223613977081801,283049,277833,376829
653223613984516496,282890,277923,376837
653223613991951191,282868,277989,376743
653223613999385886,282812,278055,376942
653223614006820581,282920,278068,376924
653223614014255276,282698,278022,376820
653223614021689971,282811,277936,376878
653223614029124666,282757,277940,376872
653223614036559361,282822,277984,376968
653223614043994056,282837,277995,376838
653223614051428751,282918,277936,376722
653223614058863446,282999,277938,376777
653223614066298141,282839,277979,376728
653223614073732836,282889,277926,376624
653223614081167531,282897,277991,376523
653223614088602226,282806,277942,376655
653223614096036921,282767,277840,376563
653223614103471616,282721,277748,376601
653223614110844416,282549,277514,376685
653223614118282752,282710,277763,376606
653223614125721088,282714,277750,376467
653223614133159424,282604,277715,376539
653223614140597760,282716,277841,376632
653223614148036096,282716,277676,376591
653223614155474432,282785,277719,376601
653223614162912768,282813,277635,376520
653223614170351104,282864,277809,376617
653223614177789440,282713,277881,376681
653223614185227776,282768,277862,376623
653223614192666112,282870,277866,376603
653223614200104448,282786,277942,376742
653223614207542784,282955,277880,376758
653223614214981120,282855,277836,376766
653223614222419456,282815,277764,376702
653223614229857792,282913,277855,376789
653223614237296128,282903,277727,376798
653223614244672584,282945,277612,377027
653223614252114560,282851,277643,376888
653223614259556536,282944,277874,376897
653223614266998512,282841,277735,376882
653223614274440488,282776,277788,376881
653223614281882464,283010,277902,376965
653223614289324440,282992,277945,376857
653223614296766416,282998,277920,376862
653223614304208392,283029,277902,376962
653223614311650368,282937,277936,377150
653223614319092344,283084,277883,377083
653223614326534320,283111,277940,377149
653223614333976296,283145,278003,377073
653223614341418272,283004,277899,377184
653223614348860248,283011,277899,377140
653223614356302224,283030,278008,377139
653223614363744200,283067,278087,377227
653223614371186176,283120,278021,377205
653223614378813842,283224,277696,377155
653223614386244896,283184,277794,377160
653223614393675950,283237,278082,377289
653223614401107004,283313,278124,377228
653223614408538058,283205,278181,377416
653223614415969112,283305,278108,377483
653223614423400166,283324,278158,377569
653223614430831220,283415,278131,377491
653223614438262274,283428,278192,377456
653223614445693328,283400,278280,377623
653223614453124382,283523,278334,377630
653223614460555436,283613,278344,377698
653223614467986490,283632,278353,377662
653223614475417544,283478,278328,377775
653223614482848598,283513,278268,377772
653223614490279652,283574,278275,377817
653223614497710706,283664,278347,377907
653223614505141760,283777,278418,377960
653223614512387144,283771,278287,377778
653223614519829120,283847,278490,377941
653223614527271096,283896,278555,378081
653223614534713072,284001,278624,378090
653223614542155048,283854,278607,378195
653223614549597024,283916,278664,378245
6.53224E+17,283968,278655,378196
653223614564480976,283956,278483,378183
653223614571922952,284064,278597,378140
653223614579364928,284054,278660,378201
653223614586806904,283946,278644,378196
653223614594248880,283904,278590,378215
653223614601690856,283887,278517,378079
653223614609132832,283848,278388,378061
653223614616574808,283871,278541,377977
653223614624016784,283702,278551,377938
653223614631458760,283686,278484,377783
653223614638900736,283599,278570,377758
653223614646404608,283361,278262,377654
653223614653842944,283428,278199,377492
653223614661281280,283596,278269,377410
653223614668719616,283647,278122,377394
653223614676157952,283529,278060,377281
653223614683596288,283363,278064,377160
653223614691034624,283362,278124,377136
653223614698472960,283203,278011,377036
653223614705911296,283327,278124,377062
653223614713349632,283267,277967,376974
653223614720787968,283022,277880,376722
653223614728226304,283047,277877,376761
653223614735664640,283085,277885,376690
653223614743102976,282927,277711,376626
653223614750541312,282841,277636,376576
653223614757979648,282931,277764,376510
653223614765417984,282945,277739,376532
653223614772856320,282901,277600,376434
653223614780356553,282715,277449,376480
653223614787791248,282805,277443,376400
653223614795225943,282935,277374,376390
653223614802660638,282829,277468,376401
653223614810095333,282819,277476,376213
653223614817530028,282767,277300,376191
653223614824964723,282847,277386,376183
653223614832399418,282876,277421,376239
653223614839834113,282731,277338,376182
653223614847268808,282743,277406,376062
653223614854703503,282736,277386,376241
653223614862138198,282658,277446,376207
653223614869572893,282615,277353,376268
653223614877007588,282666,277266,376251
653223614884442283,282661,277283,376178
653223614891876978,282634,277261,376171
653223614899311673,282744,277333,376187
653223614906746368,282551,277437,376190
653223614914119168,282762,277615,376012
653223614921557504,282731,277404,376109
653223614928995840,282713,277381,376044
653223614936434176,282555,277318,376207
653223614943872512,282616,277293,376232
653223614951310848,282671,277241,376236
653223614958749184,282637,277290,376212
653223614966187520,282688,277188,376184
653223614973625856,282556,277220,376186
653223614981064192,282517,277327,376255
653223614988502528,282528,277285,376298
653223614995940864,282337,277309,376276
653223615003379200,282431,277238,376392
653223615010817536,282411,277234,376413
653223615018255872,282444,277229,376375
653223615025694208,282510,277221,376279
653223615033132544,282555,277251,376267
653223615040570880,282565,277204,376309
653223615048009216,282812,277306,376160
653223615055447552,282702,277203,376200
653223615062885888,282669,277117,376405
653223615070324224,282549,277260,376432
653223615077762560,282480,277165,376501
653223615085200896,282640,277249,376573
653223615092639232,282679,277267,376549
653223615100077568,282620,277240,376463
653223615107515904,282578,277309,376564
653223615114954240,282607,277321,376630
653223615122392576,282659,277400,376639
653223615129830912,282612,277406,376805
653223615137269248,282626,277197,376677
653223615144707584,282695,277301,376825
653223615152145920,282763,277252,376694
653223615159584256,282756,277391,376794
653223615167022592,282814,277412,376741
653223615174460928,282745,277522,376910
653223615182023058,283044,277785,377086
653223615189454112,282891,277700,376989
653223615196885166,282954,277616,377058
653223615204316220,282948,277546,376989
653223615211747274,282702,277547,377027
653223615219178328,282676,277658,377122
653223615226609382,282845,277608,377215
653223615234040436,282856,277642,377196
653223615241471490,282841,277626,377176
653223615248902544,282992,277672,377167
653223615256333598,282892,277686,377220
653223615263764652,283047,277620,377207
653223615271195706,282916,277552,377243
653223615278626760,283149,277626,377375
653223615286057814,283190,277552,377470
653223615293488868,283089,277509,377581
653223615300919922,283131,277664,377541
653223615308350976,283172,277604,377604
653223615315596360,283391,277632,377576
653223615323038336,283340,277716,377635
653223615330480312,283309,277697,377721
653223615337922288,283341,277812,377935
653223615345364264,283316,277693,377884
653223615352806240,283320,277834,377924
653223615360248216,283386,277834,377931
653223615367690192,283544,277991,377915
653223615375132168,283534,277934,378043
653223615382574144,283551,278011,378131
653223615390016120,283593,278052,377996
653223615397458096,283616,278069,378042
653223615404900072,283542,278016,378006
653223615412342048,283476,277955,377971
653223615419784024,283405,277843,378002
6.53224E+17,283367,277831,377914
653223615434667976,283434,277839,377835
653223615442109952,283343,277820,377821
653223615449675721,283411,277549,377629
653223615457110416,283195,277713,377610
653223615464545111,283182,277745,377610
653223615471979806,283136,277627,377613
653223615479414501,283059,277662,377422
653223615486849196,283015,277690,377391
653223615494283891,282991,277611,377239
653223615501718586,282890,277516,377082
653223615509153281,282915,277414,377049
653223615516587976,282909,277404,377004
653223615524022671,282919,277405,377045
653223615531457366,282575,277358,376949
653223615538892061,282757,277245,376899
653223615546326756,282756,277326,376825
653223615553761451,282702,277246,376709
653223615561196146,282483,277218,376664
653223615568630841,282527,277055,376640
653223615576065536,282552,277207,376578
653223615583376456,282829,276865,376798
653223615590818432,282657,276994,376697
653223615598260408,282552,276999,376429
653223615605702384,282306,277024,376567
653223615613144360,282333,277016,376475
653223615620586336,282405,277005,376398
653223615628028312,282405,276921,376435
653223615635470288,282441,277072,376419
653223615642912264,282270,277041,376343
653223615650354240,282336,277071,376436
653223615657796216,282325,277038,376387
653223615665238192,282348,277055,376327
653223615672680168,282312,277077,376352
653223615680122144,282308,277085,376432
653223615687564120,282306,277002,376421
653223615695006096,282267,276997,376258
653223615702448072,282254,276985,376375
653223615709890048,282325,277031,376432
653223615717455817,282527,276682,376591
653223615724890512,282522,276785,376470
653223615732325207,282352,276954,376333
653223615739759902,282331,277067,376353
653223615747194597,282344,277003,376241
653223615754629292,282354,276949,376253
653223615762063987,282385,276910,376313
653223615769498682,282347,276938,376367
653223615776933377,282325,276989,376352
653223615784368072,282329,276874,376319
653223615791802767,282448,276930,376376
653223615799237462,282240,276926,376403
653223615806672157,282247,276884,376304
653223615814106852,282325,276830,376313
653223615821541547,282276,276926,376319
653223615828976242,282282,276842,376324
653223615836410937,282358,276862,376342
653223615843845632,282403,276955,376484
653223615851218432,282248,277180,376543
653223615858656768,282415,277101,376542
653223615866095104,282415,277057,376337
653223615873533440,282324,276941,376340
653223615880971776,282431,276946,376401
653223615888410112,282575,276952,376459
653223615895848448,282403,276850,376422
653223615903286784,282456,276989,376537
653223615910725120,282414,277057,376631
653223615918163456,282492,276882,376548
653223615925601792,282527,277072,376680
653223615933040128,282604,277101,376764
653223615940478464,282597,277070,376678
653223615947916800,282583,277051,376690
653223615955355136,282749,276999,376706
653223615962793472,282592,277153,376723
653223615970231808,282635,277125,376748
653223615977670144,282752,277113,376916
653223615985046600,283020,277322,376689
653223615992488576,282798,277372,376764
653223615999930552,282788,277221,376870
653223616007372528,282787,277200,376848
653223616014814504,282802,277260,376987
653223616022256480,282753,277224,376925
653223616029698456,282769,277356,377130
653223616037140432,282885,277376,377146
653223616044582408,282868,277428,377320
653223616052024384,282899,277329,377242
653223616059466360,282919,277297,377232
653223616066908336,282920,277297,377256
653223616074350312,282995,277258,377197
653223616081792288,283040,277462,377217
653223616089234264,282996,277453,377399
653223616096676240,283103,277496,377439
653223616104118216,283092,277448,377437
653223616111560192,283176,277556,377450
653223616119187858,283020,277721,377598
653223616126618912,283079,277667,377678
653223616134049966,283223,277758,377802
653223616141481020,283242,277681,377707
653223616148912074,283215,277774,377678
653223616156343128,283312,277739,377839
653223616163774182,283422,277753,377806
653223616171205236,283379,277688,377810
653223616178636290,283220,277764,377769
653223616186067344,283259,277689,377859
653223616193498398,283292,277758,377860
653223616200929452,283142,277660,377778
653223616208360506,283254,277714,377539
653223616215791560,283216,277589,377465
653223616223222614,283186,277575,377290
653223616230653668,283127,277562,377256
653223616238084722,283238,277539,377202
653223616245515776,283145,277522,377173
653223616252823040,283085,277056,377246
653223616260261376,282941,277197,377109
653223616267699712,282688,277225,376907
653223616275138048,282684,277216,376839
653223616282576384,282631,277207,376732
653223616290014720,282584,277077,376839
653223616297453056,282525,277172,376702
653223616304891392,282589,277095,376550
653223616312329728,282569,277183,376604
653223616319768064,282404,277075,376565
653223616327206400,282436,276949,376554
653223616334644736,282407,277003,376538
653223616342083072,282294,276963,376477
653223616349521408,282344,276879,376293
653223616356959744,282390,276898,376339
653223616364398080,282221,276740,376251
653223616371836416,282181,276730,376203
653223616379274752,282318,276935,376161
653223616386651208,282504,276915,376315
653223616394093184,282448,276908,376221
653223616401535160,282358,276890,376088
653223616408977136,282325,276811,376079
653223616416419112,282278,276895,376036
653223616423861088,282155,276834,376067
653223616431303064,282207,276843,376017
653223616438745040,282067,276771,376146
653223616446187016,282123,276770,376106
653223616453628992,282199,276747,376121
653223616461070968,282114,276753,376134
653223616468512944,282187,276827,376239
653223616475954920,282211,276887,376233
653223616483396896,282011,276939,376150
653223616490838872,282163,276779,376061
653223616498280848,282100,276737,375950
653223616505722824,282206,276767,376084
653223616513164800,282107,276758,376131
653223616520730569,282041,276626,375822
653223616528165264,282077,276783,376076
653223616535599959,282230,276631,376087
653223616543034654,282217,276705,376068
653223616550469349,282288,276783,376190
653223616557904044,282134,276845,376051
653223616565338739,282117,276873,376161
653223616572773434,282154,276816,376058
653223616580208129,282214,276828,376153
653223616587642824,282252,276771,376251
653223616595077519,282368,276935,376197
653223616602512214,282317,276877,376009
653223616609946909,282363,276862,376045
653223616617381604,282316,276867,376191
653223616624816299,282305,276897,376280
653223616632250994,282311,276929,376291
653223616639685689,282277,276774,376260
653223616647120384,282363,276809,376129
653223616654555081,282226,276476,376344
653223616661989776,282105,276647,376279
653223616669424471,282316,276864,376337
653223616676859166,282182,276919,376289
653223616684293861,282335,276979,376434
653223616691728556,282320,276986,376216
653223616699163251,282470,276920,376391
653223616706597946,282467,276912,376463
653223616714032641,282559,276928,376482
653223616721467336,282591,276984,376415
653223616728902031,282636,276959,376358
653223616736336726,282528,277024,376652
653223616743771421,282454,277064,376665
653223616751206116,282652,277061,376705
653223616758640811,282705,277122,376766
653223616766075506,282531,277195,376777
653223616773510201,282470,277015,376783
653223616780944896,282573,277100,376795
653223616788255816,282377,276871,376573
653223616795697792,282591,277182,376902
653223616803139768,282652,277228,376927
653223616810581744,282638,277279,376794
653223616818023720,282720,277341,377176
653223616825465696,282677,277306,377069
653223616832907672,282722,277358,377137
653223616840349648,282699,277331,377149
653223616847791624,282833,277343,377120
653223616855233600,282976,277351,377137
653223616862675576,282901,277419,377249
653223616870117552,282891,277391,377201
653223616877559528,283027,277471,377303
653223616885001504,282897,277308,377385
653223616892443480,282959,277538,377486
653223616899885456,283184,277569,377493
653223616907327432,282939,277609,377546
653223616914769408,283035,277641,377555
653223616922397074,283103,277570,377502
653223616929828128,283230,277652,377454
653223616937259182,283087,277745,377633
653223616944690236,282967,277629,377700
653223616952121290,283176,277659,377735
653223616959552344,283127,277677,377608
653223616966983398,283208,277642,377500
653223616974414452,283286,277666,377433
653223616981845506,283215,277631,377512
653223616989276560,283209,277645,377457
653223616996707614,282989,277587,377419
653223617004138668,282973,277577,377191
653223617011569722,282967,277397,377146
653223617019000776,282798,277438,377134
653223617026431830,282868,277320,376848
653223617033862884,282699,277329,376874
653223617041293938,282564,277257,376815
653223617048724992,282590,277194,376759
653223617056032256,282817,277545,376836
653223617063470592,282610,277338,376613
653223617070908928,282572,277224,376536
653223617078347264,282514,277205,376303
653223617085785600,282453,277068,376378
653223617093223936,282447,276984,376463
653223617100662272,282367,277001,376460
653223617108100608,282323,277026,376268
653223617115538944,282276,276938,376264
653223617122977280,282192,276946,376100
653223617130415616,282193,276936,376148
653223617137853952,282198,276802,375994
653223617145292288,282135,276830,375891
653223617152730624,282145,276813,375967
