timestamp,ch1,ch2,ch3
653328586906135844,23416,-6567,26110
6.53329E+17,23210,-7003,25979
653328586921016156,23232,-7113,25976
653328586928456312,23045,-7265,25898
653328586935896468,23964,-6297,26727
653328586943336624,23341,-7010,26100
653328586950776780,22986,-7169,25683
653328586958216936,22854,-7183,25532
653328586965657092,23828,-7206,26478
653328586973097248,23344,-7245,25847
653328586980537404,23129,-7257,25493
653328586987977560,23071,-7258,25367
653328586995417716,23045,-7159,25288
653328587002857872,23041,-7067,25173
653328587010298028,23159,-7079,25188
653328587017738184,23355,-7033,25267
653328587025178340,23506,-7093,25175
653328587032618496,23554,-7072,25163
653328587040197924,23454,-6682,25129
653328587047629888,23642,-6757,25086
653328587055061852,23859,-6697,25113
653328587062493816,23973,-6853,25257
653328587069925780,24042,-6759,25296
653328587077357744,24038,-6853,25428
653328587084789708,24138,-6774,25580
653328587092221672,24118,-6799,25548
653328587099653636,24100,-6847,25628
653328587107085600,24007,-6852,25568
653328587114517564,24080,-6829,25799
653328587121949528,24034,-6847,25817
653328587129381492,24033,-6819,25802
653328587136813456,24055,-6793,25771
653328587144245420,23940,-6795,25753
653328587151677384,23848,-6764,25869
653328587159109348,23892,-6782,25907
653328587166541312,23896,-6875,26035
653328587173834020,23879,-6923,26017
653328587181274176,23799,-6869,25891
653328587188714332,23755,-6877,25806
653328587196154488,23775,-6773,25914
653328587203594644,23922,-6756,25846
653328587211034800,23978,-6723,25737
653328587218474956,24066,-6740,25668
653328587225915112,24172,-6697,25623
653328587233355268,24273,-6576,25645
653328587240795424,24312,-6549,25605
653328587248235580,24229,-6731,25669
653328587255675736,24197,-5544,26666
653328587263115892,24310,-6133,25921
653328587270556048,24544,-6275,25726
653328587277996204,24527,-6360,25561
653328587285436360,25632,-5446,26592
653328587292876516,25117,-6006,25988
653328587300316672,24958,-6179,25811
653328587307834203,24652,-6498,25611
653328587315269808,25768,-6398,25708
653328587322705413,25128,-6341,25852
653328587330141018,25025,-6402,25965
653328587337576623,24933,-6452,26003
653328587345012228,24882,-6206,25971
653328587352447833,24845,-6337,26021
653328587359883438,24963,-6184,25972
653328587367319043,24879,-6341,25875
653328587374754648,24892,-6324,25964
653328587382190253,24816,-6208,25884
653328587389625858,24936,-6208,25904
653328587397061463,24931,-6174,25890
653328587404497068,24916,-6183,25936
653328587411932673,24972,-6284,25698
653328587419368278,24933,-6354,25749
653328587426803883,24828,-6427,25673
653328587434239488,24994,-6362,25707
653328587441690569,25130,-6702,25484
653328587449125264,24830,-6666,25270
653328587456559959,24836,-6692,25131
653328587463994654,24804,-6674,24974
653328587471429349,24708,-6658,25018
653328587478864044,24725,-6714,24931
653328587486298739,24770,-6700,24900
653328587493733434,24774,-6766,24898
653328587501168129,24798,-6721,24818
653328587508602824,24632,-6723,24781
653328587516037519,24555,-6745,24776
653328587523472214,24530,-6971,24730
653328587530906909,24467,-7032,24583
653328587538341604,24338,-7122,24458
653328587545776299,24106,-7216,24372
653328587553210994,24070,-7139,24230
653328587560645689,24120,-7237,24083
653328587568080384,23878,-7349,23933
653328587575468671,24076,-6530,23831
653328587582906096,23884,-7046,23633
653328587590343521,23743,-7296,23622
653328587597780946,23609,-7320,23445
653328587605218371,24578,-6472,24389
653328587612655796,24049,-6993,23755
653328587620093221,23832,-7352,23331
653328587627530646,23860,-7398,23273
653328587634968071,25006,-7353,23234
653328587642405496,24597,-7346,23212
653328587649842921,24464,-7248,23141
653328587657280346,24358,-7119,22952
653328587664717771,24516,-7283,22904
653328587672155196,24634,-7154,22892
653328587679592621,24703,-7041,22788
653328587687030046,24979,-7041,22833
653328587694467471,25033,-7041,22813
653328587701904896,25210,-6934,22868
653328587709357805,25215,-7075,23120
653328587716794320,25358,-7033,23075
653328587724230835,25311,-6851,23000
653328587731667350,25317,-6824,22822
653328587739103865,25503,-6782,22956
653328587746540380,25492,-6943,22849
653328587753976895,25605,-6916,22946
653328587761413410,25571,-6795,22831
653328587768849925,25607,-6845,22820
653328587776286440,25574,-6920,22880
653328587783722955,25731,-6952,22978
653328587791159470,25603,-6800,22860
653328587798595985,25545,-6954,22840
653328587806032500,25438,-6920,22978
653328587813469015,25409,-6828,22918
653328587820905530,25290,-6856,22961
653328587828342045,25180,-6905,22783
653328587835778560,25172,-6964,22667
653328587843215085,25068,-6933,22829
653328587850651600,25128,-7079,22679
653328587858088115,25001,-7145,22434
653328587865524630,25095,-6992,22616
653328587872961145,25121,-6924,22580
653328587880397660,25141,-6863,22683
653328587887834175,25196,-6842,22830
653328587895270690,25168,-6762,22996
653328587902707205,25342,-6595,23019
653328587910143720,25579,-6603,23128
653328587917580235,25611,-6487,23141
653328587925016750,25834,-5241,24318
653328587932453265,25844,-5822,23772
653328587939889780,25889,-6082,23533
653328587947326295,25924,-6181,23558
653328587954762810,27073,-5583,24708
653328587962199325,26623,-5977,24300
653328587969635840,26335,-5985,24215
653328587977087835,26014,-6054,24393
653328587984523440,26259,-6082,24339
653328587991959045,26387,-6060,24526
653328587999394650,26655,-6050,24538
653328588006830255,26737,-5963,24526
653328588014265860,26798,-5977,24694
653328588021701465,26895,-5963,24728
653328588029137070,26942,-6023,24548
653328588036572675,27090,-5950,24696
653328588044008280,27165,-5788,24669
653328588051443885,27188,-5825,24430
653328588058879490,27390,-5674,24484
653328588066315095,27457,-5729,24361
653328588073750700,27650,-5613,24374
653328588081186305,27632,-5610,24428
653328588088621910,27706,-5532,24322
653328588096057515,27836,-5480,24400
653328588103493120,28077,-5317,24561
653328588110913261,27993,-5471,24471
653328588118349776,28077,-5268,24570
653328588125786291,28126,-5135,24530
653328588133222806,28317,-5167,24638
653328588140659321,28337,-5044,24441
653328588148095836,28411,-5014,24375
653328588155532351,28506,-5012,24357
653328588162968866,28528,-4955,24181
653328588170405381,28579,-4888,24182
653328588177841896,28688,-4775,24096
653328588185278411,28773,-4876,24113
653328588192714926,28837,-4738,24109
653328588200151441,28847,-4856,24028
653328588207587956,28932,-4747,24133
653328588215024471,29013,-4676,24117
653328588222460986,29095,-4586,24218
653328588229897501,29155,-4528,24209
653328588237334016,29120,-4513,24184
653328588244816968,29257,-3728,25414
653328588252250752,29251,-4326,24828
653328588259684536,29272,-4394,24556
653328588267118320,29165,-4522,24429
653328588274552104,30220,-3486,25335
653328588281985888,29598,-4117,24845
653328588289419672,29284,-4411,24511
653328588296853456,29179,-4648,24369
653328588304287240,29996,-4858,24303
653328588311721024,29519,-4874,24225
653328588319154808,29232,-4854,24115
653328588326588592,28982,-5040,23981
653328588334022376,28921,-5009,23923
653328588341456160,28930,-5076,23883
653328588348889944,28992,-5127,23836
653328588356323728,29002,-5068,23794
653328588363757512,28918,-5093,23741
653328588371191296,28998,-5134,23719
653328588378547712,28733,-5428,23690
653328588385986048,28744,-5340,23662
653328588393424384,28825,-5199,23806
653328588400862720,28911,-5116,23824
653328588408301056,28823,-5175,23634
653328588415739392,28875,-5166,23608
653328588423177728,28755,-5078,23730
653328588430616064,28659,-5138,23662
653328588438054400,28638,-5329,23646
653328588445492736,28613,-5341,23584
653328588452931072,28680,-5310,23465
653328588460369408,28667,-5377,23450
653328588467807744,28445,-5407,23450
653328588475246080,28496,-5450,23474
653328588482684416,28480,-5562,23279
653328588490122752,28540,-5532,23353
653328588497561088,28515,-5525,23213
653328588504999424,28509,-5557,23035
653328588512484187,28418,-5677,22963
653328588519919792,28533,-5698,23079
653328588527355397,28456,-5643,23022
653328588534791002,28507,-5559,23174
653328588542226607,28519,-5454,23313
653328588549662212,28593,-5460,23455
653328588557097817,28551,-5546,23491
653328588564533422,28570,-4577,23955
653328588571969027,28528,-5108,23873
653328588579404632,28430,-5374,24053
653328588586840237,28503,-5512,24135
653328588594275842,29603,-4542,25351
653328588601711447,28979,-5159,24839
653328588609147052,28708,-5495,24702
653328588616582657,28543,-5558,24787
653328588624018262,29453,-5709,24815
653328588631453867,28748,-5826,24849
653328588638889472,28508,-5851,24735
653328588646309613,28623,-5899,24999
653328588653746128,28443,-5845,24787
653328588661182643,28420,-5637,24801
653328588668619158,28257,-5862,24643
653328588676055673,28157,-6016,24471
653328588683492188,28229,-5980,24374
653328588690928703,28070,-6089,24341
653328588698365218,27969,-6040,24206
653328588705801733,27848,-6027,24014
653328588713238248,27796,-5962,24145
653328588720674763,27809,-6087,23955
653328588728111278,27689,-6219,23860
653328588735547793,27650,-6198,23763
653328588742984308,27739,-6054,23722
653328588750420823,27710,-5935,23523
653328588757857338,27655,-5934,23455
653328588765293853,27663,-5943,23316
653328588772730368,27707,-5975,23161
653328588780182363,27496,-5843,23311
653328588787617968,27448,-5915,23230
653328588795053573,27467,-5877,23263
653328588802489178,27597,-5913,23103
653328588809924783,27611,-6031,23397
653328588817360388,27602,-5935,23464
653328588824795993,27692,-5937,23530
653328588832231598,27633,-5816,23570
653328588839667203,27720,-6047,23822
653328588847102808,27703,-5936,23777
653328588854538413,27587,-6071,23888
653328588861974018,27717,-6062,24060
653328588869409623,27646,-6132,24134
653328588876845228,27648,-6154,24166
653328588884280833,27694,-5716,24340
653328588891716438,27731,-5894,24356
653328588899152043,27714,-6177,24422
653328588906587648,27717,-6274,24435
653328588914007789,29031,-5344,25785
653328588921444304,28306,-5846,25145
653328588928880819,27953,-6027,24885
653328588936317334,27743,-6217,24596
653328588943753849,28662,-6340,25487
653328588951190364,28054,-6377,25034
653328588958626879,27720,-6509,24751
653328588966063394,27494,-6471,24672
653328588973499909,27431,-6416,24645
653328588980936424,27369,-6550,24753
653328588988372939,27323,-6436,24843
653328588995809454,27295,-6356,24901
653328589003245969,27062,-6369,24848
653328589010682484,26989,-6446,24946
653328589018118999,26890,-6409,24861
653328589025555514,26863,-6526,24872
653328589032992029,26757,-6499,24823
653328589040428544,26656,-6675,24700
653328589047926966,26330,-7103,24725
653328589055359840,26218,-7129,24471
653328589062792714,26125,-7004,24204
653328589070225588,26039,-7191,23859
653328589077658462,25960,-7346,23538
653328589085091336,25617,-7438,23041
653328589092524210,25716,-7572,22749
653328589099957084,25537,-7761,22397
653328589107389958,25410,-7921,21923
653328589114822832,25290,-8054,21538
653328589122255706,25089,-8184,21213
653328589129688580,24803,-8353,20970
653328589137121454,24646,-8554,20713
653328589144554328,24487,-8734,20527
653328589151987202,24077,-8962,20167
653328589159420076,23830,-9110,20130
653328589166852950,23679,-9286,20035
653328589174285824,23424,-9368,19929
653328589181610386,23362,-9601,19779
653328589189049632,23034,-9725,19737
653328589196488878,22756,-9802,19610
653328589203928124,22516,-9890,19510
653328589211367370,22280,-9984,19265
653328589218806616,22024,-10185,19106
653328589226245862,22014,-10287,18895
653328589233685108,21970,-9343,19719
653328589241124354,21468,-9977,18970
653328589248563600,21271,-10323,18515
653328589256002846,21073,-10564,18166
653328589263442092,21989,-10185,18995
653328589270881338,21136,-10621,18205
653328589278320584,20787,-10867,17644
653328589285759830,20524,-11071,17343
653328589293199076,20308,-11102,17160
653328589300638322,20187,-11317,16939
653328589308077568,20075,-11511,16826
653328589315594185,19886,-11183,16454
653328589323028880,19883,-11421,16458
653328589330463575,19730,-11696,16463
653328589337898270,19700,-11857,16407
653328589345332965,19538,-11848,16372
653328589352767660,19430,-11887,16234
653328589360202355,19342,-12075,16192
653328589367637050,19189,-12016,15896
653328589375071745,19151,-12136,15797
653328589382506440,19051,-12089,15775
653328589389941135,18927,-12187,15668
653328589397375830,18824,-12329,15597
653328589404810525,18662,-12341,15567
653328589412245220,18686,-12551,15686
653328589419679915,18593,-12546,15476
653328589427114610,18414,-12735,15307
653328589434549305,18278,-12694,15346
6.53329E+17,18131,-12776,15131
653328589449403227,18208,-13012,14763
653328589456838832,18162,-13172,14423
653328589464274437,18043,-13125,14118
653328589471710042,17841,-13274,13643
653328589479145647,17781,-13353,13247
653328589486581252,17648,-13510,12870
653328589494016857,17663,-13688,12602
653328589501452462,17563,-13682,12413
653328589508888067,17442,-13775,12128
653328589516323672,17217,-13927,11748
653328589523759277,17019,-14077,11419
653328589531194882,16911,-14238,11014
653328589538630487,16885,-14360,10512
653328589546066092,16639,-14553,10084
653328589553501697,16491,-13723,10621
653328589560937302,16295,-14398,9651
653328589568372907,16030,-14930,8954
653328589575808512,15849,-15215,8760
653328589583228653,16444,-14462,9667
653328589590665168,15927,-15124,8869
653328589598101683,15342,-15559,8397
653328589605538198,15021,-15881,8160
653328589612974713,15418,-16156,7937
653328589620411228,14840,-16362,7932
653328589627847743,14463,-16538,7849
653328589635284258,14259,-16674,7748
653328589642720773,13983,-16924,7449
653328589650157288,13795,-17005,7327
653328589657593803,13612,-17271,7039
653328589665030318,13383,-17359,6811
653328589672466833,13297,-17453,6700
653328589679903348,13134,-17592,6502
653328589687339863,12941,-17763,6342
653328589694776378,12850,-17931,6207
653328589702212893,12695,-18039,6105
653328589709649408,12560,-18251,6050
653328589717116873,12312,-18530,5804
653328589724551568,12269,-18553,5794
653328589731986263,12324,-18501,5981
653328589739420958,12101,-18553,5844
653328589746855653,11982,-18850,5740
653328589754290348,11778,-18730,5744
653328589761725043,11705,-18875,5827
653328589769159738,11622,-18895,5804
653328589776594433,11583,-18851,5894
653328589784029128,11476,-18880,6078
653328589791463823,11472,-19049,6118
653328589798898518,11407,-18915,6352
653328589806333213,11348,-18953,6427
653328589813767908,11257,-18894,6650
653328589821202603,11284,-18843,7043
653328589828637298,11246,-18700,7278
653328589836071993,11461,-18593,7580
653328589843506688,11484,-18461,7982
653328589850894975,11554,-18665,8485
653328589858332400,11656,-18389,8840
653328589865769825,11684,-18177,9027
653328589873207250,12003,-17061,10360
653328589880644675,11958,-17488,10036
653328589888082100,12177,-17555,10199
653328589895519525,12438,-17477,10403
653328589902956950,13578,-16412,11548
653328589910394375,13359,-16714,11406
653328589917831800,13334,-16831,11390
653328589925269225,13439,-16786,11481
653328589932706650,14388,-16805,11548
653328589940144075,13985,-16714,11689
653328589947581500,13907,-16761,11705
653328589955018925,13858,-16610,11873
653328589962456350,13931,-16609,11898
653328589969893775,13911,-16549,11800
653328589977331200,13988,-16553,11656
653328589984846006,13927,-16686,11913
653328589992278880,13896,-16704,11855
653328589999711754,13959,-16731,11825
653328590007144628,14014,-16837,11792
653328590014577502,14025,-16848,11894
653328590022010376,13967,-16866,12066
653328590029443250,13966,-16862,11961
653328590036876124,13814,-16936,11951
653328590044308998,13786,-16986,12044
653328590051741872,13900,-17046,12084
653328590059174746,13703,-17022,12021
653328590066607620,13566,-17006,12031
653328590074040494,13612,-17022,12091
653328590081473368,13656,-16895,12255
653328590088906242,13535,-16923,12234
653328590096339116,13540,-16913,12272
653328590103771990,13426,-16961,12280
653328590111204864,13398,-16952,12405
653328590118529426,13371,-17049,12338
653328590125968672,13416,-16900,12549
653328590133407918,13517,-16870,12828
653328590140847164,13528,-16881,12942
653328590148286410,13520,-16695,13130
653328590155725656,13634,-16623,13062
653328590163164902,13573,-16636,13151
653328590170604148,13663,-16614,13321
653328590178043394,13660,-16494,13490
653328590185482640,13767,-16486,13421
653328590192921886,13711,-15433,13474
653328590200361132,13817,-15879,13588
653328590207800378,13784,-16078,13725
653328590215239624,13871,-16099,13697
653328590222678870,14883,-15144,14840
653328590230118116,14504,-15692,14400
653328590237557362,14233,-15872,14113
653328590244996608,14163,-15878,14105
653328590252482285,14987,-16199,14251
653328590259918800,14508,-15990,14209
653328590267355315,14322,-15928,14051
653328590274791830,14387,-15773,14230
653328590282228345,14343,-15832,14276
653328590289664860,14286,-15751,14387
653328590297101375,14318,-15820,14443
653328590304537890,14389,-15758,14513
653328590311974405,14352,-15619,14487
653328590319410920,14413,-15548,14616
653328590326847435,14442,-15576,14534
653328590334283950,14490,-15624,14465
653328590341720465,14534,-15503,14616
653328590349156980,14572,-15436,14588
653328590356593495,14630,-15326,14691
653328590364030010,14727,-15360,14699
653328590371466525,14820,-15276,14774
653328590378903040,14883,-15264,14697
653328590386385992,15088,-15470,14765
653328590393819776,15010,-15508,14765
653328590401253560,15040,-15481,14822
653328590408687344,14985,-15385,14833
653328590416121128,15026,-15353,14908
653328590423554912,15093,-15241,15053
653328590430988696,14908,-15217,14932
653328590438422480,15093,-15130,15088
653328590445856264,15200,-15084,15186
653328590453290048,15259,-14918,15230
653328590460723832,15202,-14928,15663
653328590468157616,15223,-14882,15545
653328590475591400,15278,-14819,15600
653328590483025184,15244,-14819,15609
653328590490458968,15258,-14811,15587
653328590497892752,15317,-14706,15640
653328590505326536,15217,-14604,15626
653328590512760320,15466,-14432,15732
653328590520147693,15629,-14820,15669
653328590527584208,15588,-14561,15742
653328590535020723,15643,-14557,15773
653328590542457238,16593,-13342,16862
653328590549893753,16040,-13852,16330
653328590557330268,15868,-13961,16145
653328590564766783,15800,-13981,16082
653328590572203298,16992,-14024,17212
653328590579639813,16484,-13902,16606
653328590587076328,16189,-13948,16410
653328590594512843,16211,-13877,16398
653328590601949358,16218,-13810,16434
653328590609385873,16195,-13690,16536
653328590616822388,16235,-13632,16636
653328590624258903,16274,-13648,16677
653328590631695418,16364,-13509,16734
653328590639131933,16374,-13484,16883
653328590646568448,16479,-13304,16843
653328590654004973,16328,-13309,17217
653328590661441488,16525,-13435,16866
653328590668878003,16601,-13342,16912
653328590676314518,16663,-13252,17177
653328590683751033,16749,-13110,17288
653328590691187548,16756,-12857,17444
653328590698624063,16699,-12839,17404
653328590706060578,16665,-12897,17320
653328590713497093,16817,-12806,17472
653328590720933608,16986,-12710,17740
653328590728370123,16850,-12635,17716
653328590735806638,16898,-12529,17818
653328590743243153,17005,-12519,17867
653328590750679668,17084,-12443,18069
653328590758116183,17150,-12418,18112
653328590765552698,17207,-12391,18178
653328590772989213,17423,-12300,18246
653328590780425728,17415,-12356,18240
653328590787877723,17408,-12199,18081
653328590795313328,17486,-12135,18378
653328590802748933,17595,-12077,18402
653328590810184538,17481,-11957,18502
653328590817620143,17569,-12027,18638
653328590825055748,17558,-11936,18802
653328590832491353,17588,-12049,18872
653328590839926958,17661,-12033,18902
653328590847362563,17533,-11991,18910
653328590854798168,17544,-11938,18844
653328590862233773,17565,-10953,19852
653328590869669378,17328,-11693,19265
653328590877104983,17244,-11903,19103
653328590884540588,17372,-12109,18976
653328590891976193,18288,-11122,19867
653328590899411798,17813,-11699,19242
653328590906847403,17386,-12046,18931
653328590914283008,17191,-12073,18874
653328590921765046,17857,-12105,18980
653328590929197920,17448,-12155,18799
653328590936630794,17092,-12223,18623
653328590944063668,17038,-12242,18555
653328590951496542,17019,-12179,18456
653328590958929416,16926,-12193,18541
653328590966362290,17021,-12151,18573
653328590973795164,16997,-12091,18612
653328590981228038,16980,-12181,18574
653328590988660912,16860,-12315,18473
653328590996093786,16909,-12251,18619
653328591003526660,16946,-12160,18663
653328591010959534,17026,-12043,18681
653328591018392408,16998,-12036,18559
653328591025825282,16891,-12107,18415
653328591033258156,16855,-12113,18336
653328591040691030,17054,-12035,18486
653328591048123904,16979,-12089,18379
653328591055494893,17073,-12197,18419
653328591062931408,16985,-12233,18382
653328591070367923,17015,-12126,18240
653328591077804438,16997,-12182,18266
653328591085240953,16875,-11974,18236
653328591092677468,16901,-12022,18167
653328591100113983,16994,-11938,18160
653328591107550498,17003,-11955,18072
653328591114987013,17005,-12021,18021
653328591122423528,16991,-12038,17907
653328591129860043,16887,-12016,17967
653328591137296558,16906,-12086,18006
653328591144733073,16932,-11916,17972
653328591152169588,16896,-11969,18042
653328591159606103,16841,-11949,18013
653328591167042618,16928,-11950,18041
653328591174479133,16855,-11940,18006
653328591181915648,16882,-10894,18998
653328591189336703,16852,-11580,18466
653328591196774128,16723,-11953,18233
653328591204211553,16680,-11959,18101
653328591211648978,17661,-11005,19079
653328591219086403,17277,-11469,18484
653328591226523828,16953,-11721,18142
653328591233961253,16946,-11728,17895
653328591241398678,17830,-11920,17958
653328591248836103,17277,-11833,17964
653328591256273528,16958,-11796,17952
653328591263710953,16858,-11918,17808
653328591271148378,16854,-11787,17886
653328591278585803,16826,-11790,17825
653328591286023228,16765,-11691,17930
653328591293460653,16769,-11692,17855
653328591300898078,16912,-11660,18002
653328591308335503,16887,-11576,17989
653328591315772928,16772,-11690,17971
653328591323210367,16945,-11358,17751
653328591330647792,16990,-11419,17883
653328591338085217,17045,-11374,17988
653328591345522642,17058,-11503,18103
653328591352960067,17024,-11520,18157
653328591360397492,17331,-11476,18363
653328591367834917,17084,-11428,18207
653328591375272342,17207,-11310,18340
653328591382709767,17336,-11337,18352
653328591390147192,17276,-11391,18416
653328591397584617,17204,-11346,18533
653328591405022042,17259,-11239,18480
653328591412459467,17310,-11200,18542
653328591419896892,17233,-11199,18622
653328591427334317,17295,-10995,18681
653328591434771742,17469,-11025,18766
653328591442209167,17411,-11067,18834
653328591449646592,17509,-11155,18855
653328591457130441,17671,-10940,19022
653328591464565136,17691,-10928,18947
653328591471999831,17633,-10974,19066
653328591479434526,17545,-10914,18959
653328591486869221,17674,-10925,19093
653328591494303916,17603,-11064,19060
653328591501738611,17691,-9888,19240
653328591509173306,17576,-10350,19125
653328591516608001,17748,-10641,19344
653328591524042696,17724,-10641,19377
653328591531477391,18856,-9593,20460
653328591538912086,18226,-10147,19811
653328591546346781,18061,-10484,19598
653328591553781476,17869,-10557,19597
653328591561216171,18929,-10532,20402
653328591568650866,18363,-10530,20042
653328591576085561,18223,-10588,19918
653328591583520256,18057,-10516,19702
653328591590877586,18041,-10383,19686
653328591598316832,18067,-10419,19738
653328591605756078,17967,-10302,19815
653328591613195324,17885,-10258,19934
653328591620634570,17945,-10212,19940
653328591628073816,18078,-10249,20090
653328591635513062,18279,-10117,20332
653328591642952308,18203,-10088,20363
653328591650391554,18300,-9962,20365
653328591657830800,18342,-10077,20514
653328591665270046,18355,-10048,20614
653328591672709292,18411,-9968,20584
653328591680148538,18553,-9880,20846
653328591687587784,18461,-9900,20880
653328591695027030,18315,-9982,20846
653328591702466276,18411,-9927,21036
653328591709905522,18472,-9948,21205
653328591717344768,18490,-9917,21214
653328591724830445,18412,-9876,21611
653328591732266960,18323,-9957,21543
653328591739703475,18202,-10015,21488
653328591747139990,18211,-10049,21632
653328591754576505,18147,-10080,21659
653328591762013020,18143,-10044,21646
653328591769449535,18157,-10223,21596
653328591776886050,18073,-10269,21552
653328591784322565,17969,-10318,21428
653328591791759080,17798,-10330,21427
653328591799195595,17701,-10400,21345
653328591806632110,17632,-10517,21339
653328591814068625,17672,-10523,21271
653328591821505140,17689,-10507,21401
653328591828941655,17593,-10569,21402
653328591836378170,17577,-10701,21246
653328591843814685,17508,-10795,21149
653328591851251200,17357,-9768,22086
653328591858703195,17350,-10550,21471
653328591866138800,17349,-10625,21456
653328591873574405,17230,-10651,21336
653328591881010010,18166,-9713,22226
653328591888445615,17536,-10321,21635
653328591895881220,17212,-10630,21276
653328591903316825,16988,-10818,21182
653328591910752430,17320,-11000,21219
653328591918188035,16954,-11013,21107
653328591925623640,16735,-11003,21102
653328591933059245,16554,-11084,21042
653328591940494850,16636,-11080,21061
653328591947930455,16507,-10994,20892
653328591955366060,16487,-11048,20654
653328591962801665,16432,-11153,20584
653328591970237270,16490,-11071,20532
653328591977672875,16420,-11179,20479
653328591985108480,16364,-11158,20415
653328591992528621,16521,-10972,20570
653328591999965136,16497,-11010,20447
653328592007401651,16350,-11043,20292
653328592014838166,16251,-11134,20241
653328592022274681,16125,-11189,20046
653328592029711196,16236,-11107,20112
653328592037147711,16250,-11203,20177
653328592044584226,16300,-11179,20099
653328592052020741,16294,-11183,20069
653328592059457256,16122,-11222,20036
653328592066893771,16034,-11305,20080
653328592074330286,16023,-11337,20154
653328592081766801,15912,-11275,20100
653328592089203316,15963,-11340,19968
653328592096639831,15992,-11418,19951
653328592104076346,15868,-11309,19784
653328592111512861,15788,-11324,19923
653328592118949376,15719,-11472,19916
653328592126385901,15737,-11483,19885
653328592133822416,15708,-11437,19694
653328592141258931,15755,-11373,19688
653328592148695446,15840,-11429,19770
653328592156131961,15871,-11458,19744
653328592163568476,15792,-11406,19731
653328592171004991,15664,-10424,20462
653328592178441506,15693,-10958,20003
653328592185878021,15752,-11156,19800
653328592193314536,15682,-11442,19755
653328592200751051,16535,-10389,20709
653328592208187566,15948,-10995,20225
653328592215624081,15768,-11238,19973
653328592223060596,15579,-11256,19828
653328592230497111,16536,-11356,19881
653328592237933626,15982,-11400,19864
653328592245370141,15677,-11355,19845
653328592252806656,15558,-11421,19872
653328592260258651,15853,-11595,19845
653328592267694256,15680,-11575,19903
653328592275129861,15546,-11469,19875
653328592282565466,15379,-11465,19885
653328592290001071,15342,-11511,19987
653328592297436676,15409,-11351,19882
653328592304872281,15366,-11387,19884
653328592312307886,15356,-11480,19895
653328592319743491,15340,-11441,19975
653328592327179096,15309,-11476,19916
653328592334614701,15387,-11425,19860
653328592342050306,15378,-11473,19820
653328592349485911,15550,-11305,20043
653328592356921516,15556,-11248,20172
653328592364357121,15487,-11271,20119
653328592371792726,15487,-11322,20155
653328592379228331,15487,-11307,20180
653328592386663936,15415,-11292,20137
653328592394053120,15305,-11251,20358
653328592401491456,15349,-11147,20276
653328592408929792,15465,-11122,20300
653328592416368128,15509,-11079,20310
653328592423806464,15506,-11051,20334
653328592431244800,15569,-10879,20197
653328592438683136,15626,-11019,20304
653328592446121472,15601,-11046,20327
653328592453559808,15675,-10980,20431
653328592460998144,15717,-11043,20481
653328592468436480,15737,-11077,20440
653328592475874816,15675,-10946,20365
653328592483313152,15639,-11034,20480
653328592490751488,15799,-10786,20495
653328592498189824,15729,-10789,20536
653328592505628160,15644,-10771,20556
653328592513066496,15627,-10877,20562
653328592520504832,16459,-9913,21592
653328592527989595,16068,-10625,21319
653328592535425200,15883,-10675,21029
653328592542860805,15769,-10760,20942
653328592550296410,16854,-10759,21862
653328592557732015,16184,-10723,21286
653328592565167620,15991,-10752,21060
653328592572603225,15875,-10661,21011
653328592580038830,15698,-10722,20919
653328592587474435,15704,-10791,21013
653328592594910040,15682,-10899,20958
653328592602345645,15664,-10871,20910
653328592609781250,15624,-10962,20874
653328592617216855,15653,-10910,20769
653328592624652460,15473,-10982,20720
653328592632088065,15458,-11029,20634
653328592639523670,15357,-11086,20551
653328592646959275,15264,-11147,20636
653328592654394880,15265,-11261,20482
653328592661845961,15405,-11470,20210
653328592669280656,15362,-11299,20294
653328592676715351,15204,-11360,20227
653328592684150046,15097,-11286,20209
653328592691584741,15068,-11289,20224
653328592699019436,15216,-11355,20206
653328592706454131,15190,-11424,20340
653328592713888826,15203,-11363,20199
653328592721323521,15090,-11397,20181
653328592728758216,15071,-11440,20180
653328592736192911,15110,-11454,20205
653328592743627606,15117,-11406,20199
653328592751062301,15091,-11451,20120
653328592758496996,15076,-11412,20247
653328592765931691,14987,-11488,20333
653328592773366386,14941,-11406,20261
653328592780801081,14968,-11474,20242
653328592788235776,14956,-11494,20202
653328592795624063,14889,-11593,20400
653328592803061488,14833,-11618,20403
653328592810498913,14938,-11597,20330
653328592817936338,14930,-11674,20271
653328592825373763,14840,-11507,20169
653328592832811188,14951,-11471,20206
653328592840248613,14802,-10526,21262
653328592847686038,14804,-11106,20762
653328592855123463,14862,-11321,20447
653328592862560888,14778,-11460,20280
653328592869998313,15830,-10440,21215
653328592877435738,15391,-11025,20659
653328592884873163,15070,-11234,20488
653328592892310588,14881,-11339,20442
653328592899748013,15926,-11401,20355
653328592907185438,15394,-11487,20324
653328592914622863,15086,-11532,20240
653328592922060288,15019,-11625,20358
653328592929544137,14870,-11575,20268
653328592936978832,14810,-11622,20302
653328592944413527,14803,-11569,20305
653328592951848222,14796,-11589,20272
653328592959282917,14802,-11649,20271
653328592966717612,14912,-11666,20266
653328592974152307,14901,-11510,20316
653328592981587002,14864,-11561,20169
653328592989021697,14856,-11463,20380
653328592996456392,14839,-11476,20361
653328593003891087,14855,-11472,20293
653328593011325782,14947,-11448,20221
653328593018760477,14865,-11372,20294
653328593026195172,14820,-11394,20270
653328593033629867,14903,-11401,20298
653328593041064562,14887,-11356,20281
653328593048499257,14951,-11277,20271
653328593055933952,14958,-11278,20339
653328593063337709,14771,-11210,20346
653328593070774224,14866,-11367,20325
653328593078210739,14895,-11321,20293
653328593085647254,15044,-11293,20414
653328593093083769,15051,-11164,20469
653328593100520284,15071,-11201,20434
653328593107956799,15107,-11154,20490
653328593115393314,15077,-11121,20521
653328593122829829,15243,-11116,20536
653328593130266344,15245,-11102,20490
653328593137702859,15143,-11215,20440
653328593145139374,15185,-11091,20408
653328593152575889,15273,-11166,20445
653328593160012404,15379,-10352,20569
653328593167448919,15410,-10670,20556
653328593174885434,15416,-10989,20464
653328593182321949,15536,-11124,20535
653328593189758464,16551,-10024,21623
653328593197179519,15813,-10463,21332
653328593204616944,15739,-10735,20912
653328593212054369,15584,-10895,20748
653328593219491794,16641,-11022,21402
653328593226929219,16144,-10899,20975
653328593234366644,15863,-10763,20931
653328593241804069,15773,-10786,20869
653328593249241494,15715,-10847,20772
653328593256678919,15686,-10744,20925
653328593264116344,15807,-10674,20994
653328593271553769,15960,-10595,20935
653328593278991194,15963,-10632,20957
653328593286428619,16136,-10704,21116
653328593293866044,16130,-10603,21247
653328593301303469,16079,-10606,21136
653328593308740894,16212,-10386,21130
653328593316178319,16101,-10426,21206
653328593323615744,16234,-10412,21287
653328593331068653,16485,-10405,21261
653328593338505168,16388,-10285,21506
653328593345941683,16365,-10422,21520
653328593353378198,16385,-10349,21658
653328593360814713,16439,-10301,21582
653328593368251228,16517,-10233,21663
653328593375687743,16607,-10350,21501
653328593383124258,16569,-10295,21625
653328593390560773,16682,-10257,21790
653328593397997288,16688,-10224,21852
653328593405433803,16613,-10347,21789
653328593412870318,16732,-10322,22000
653328593420306833,16685,-10311,21943
653328593427743348,16700,-10245,21880
653328593435179863,16607,-10317,21776
653328593442616378,16708,-10312,21897
653328593450052893,16760,-10514,21875
653328593457489408,16793,-10431,21930
653328593464910463,16752,-10757,22117
653328593472347888,16676,-10566,21850
653328593479785313,16776,-10479,21824
653328593487222738,16790,-10462,21832
653328593494660163,16835,-10516,21870
653328593502097588,16811,-10682,21755
653328593509535013,16886,-9604,22684
653328593516972438,16848,-10033,22120
653328593524409863,16902,-10354,21885
653328593531847288,16824,-10451,21763
653328593539284713,17878,-9817,22635
653328593546722138,17253,-10398,22140
653328593554159563,16951,-10555,21901
653328593561596988,16899,-10602,21969
653328593569034413,16866,-10548,21923
653328593576471838,16862,-10713,22023
653328593583909263,16857,-10715,21962
653328593591346688,16818,-10656,21984
653328593598799597,16899,-10891,21898
653328593606236112,16741,-10737,21986
653328593613672627,16718,-10737,22133
653328593621109142,16656,-10732,22216
653328593628545657,16622,-10811,22208
653328593635982172,16658,-10738,22267
653328593643418687,16765,-10791,22188
653328593650855202,16798,-10755,22283
653328593658291717,16753,-10667,22338
653328593665728232,16616,-10697,22334
653328593673164747,16688,-10744,22481
653328593680601262,16701,-10871,22536
653328593688037777,16722,-10750,22694
653328593695474292,16675,-10840,22694
653328593702910807,16663,-10758,22754
653328593710347322,16646,-10798,22727
653328593717783837,16614,-10894,22836
653328593725220352,16649,-10929,22992
653328593732672347,16946,-11135,22960
653328593740107952,16723,-11125,23004
653328593747543557,16579,-11065,23024
653328593754979162,16731,-10976,23230
653328593762414767,16609,-10942,23285
653328593769850372,16567,-10864,23366
653328593777285977,16627,-10919,23411
653328593784721582,16659,-11003,23349
653328593792157187,16656,-11014,23413
653328593799592792,16607,-10947,23428
653328593807028397,16663,-10883,23470
653328593814464002,16854,-10896,23735
653328593821899607,16826,-11002,23636
653328593829335212,16966,-9962,24698
653328593836770817,16982,-10331,24071
653328593844206422,17035,-10655,23848
653328593851642027,17072,-10729,23684
653328593859077632,18231,-9655,24831
653328593866497773,17871,-10084,24665
653328593873934288,17483,-10435,24326
653328593881370803,17360,-10522,24259
653328593888807318,18412,-10637,24180
653328593896243833,17929,-10485,24113
653328593903680348,17662,-10488,24223
653328593911116863,17742,-10352,24192
653328593918553378,17652,-10249,24088
653328593925989893,17704,-10155,24070
653328593933426408,17962,-10065,24032
653328593940862923,17978,-10014,24047
653328593948299438,18182,-9896,24135
653328593955735953,18159,-9904,24036
653328593963172468,18268,-9917,24122
653328593970608983,18463,-9825,24110
653328593978045498,18594,-9519,24061
653328593985482013,18787,-9409,24079
653328593992918528,18939,-9316,24160
653328594000370523,19036,-9167,24303
653328594007806128,19254,-8960,24240
653328594015241733,19349,-8947,24088
653328594022677338,19557,-8979,24053
653328594030112943,19661,-9012,24008
653328594037548548,19820,-9041,23867
653328594044984153,19988,-9017,23798
653328594052419758,20095,-8820,23806
653328594059855363,20172,-8750,23704
653328594067290968,20429,-8582,23725
653328594074726573,20502,-8475,23820
653328594082162178,20567,-8475,23918
653328594089597783,20734,-8395,24053
653328594097033388,20870,-8296,24072
653328594104468993,21162,-8210,24112
653328594111904598,21220,-8022,24080
653328594119340203,21276,-8070,24027
653328594126775808,21425,-7915,24021
653328594134195949,21312,-7746,24207
653328594141632464,21696,-7640,24145
653328594149068979,21827,-7187,24025
653328594156505494,21957,-7176,24123
653328594163942009,21947,-7222,24204
653328594171378524,22084,-7208,24308
653328594178815039,23242,-6129,25525
653328594186251554,22889,-6449,25020
653328594193688069,22673,-6694,24647
653328594201124584,22612,-6801,24718
653328594208561099,23638,-6770,25775
653328594215997614,23185,-6694,25306
653328594223434129,22902,-6650,25118
653328594230870644,22847,-6617,25087
653328594238307159,22734,-6494,25299
653328594245743674,22821,-6653,25413
653328594253180189,22793,-6586,25611
653328594260616704,22835,-6578,26006
653328594268037759,22599,-6153,25982
653328594275475184,22583,-6314,26180
653328594282912609,22681,-6321,26420
653328594290350034,22747,-6232,26603
653328594297787459,22715,-6317,26818
653328594305224884,22674,-6202,26968
653328594312662309,22644,-6154,27046
653328594320099734,22600,-6131,27176
653328594327537159,22645,-6132,27301
653328594334974584,22652,-6104,27521
653328594342412009,22698,-6071,27555
653328594349849434,22647,-6049,27731
653328594357286859,22734,-6060,27897
653328594364724284,22806,-6057,27779
653328594372161709,22728,-6094,27789
653328594379599134,22861,-6027,27825
653328594387036559,22799,-5977,27631
653328594394473984,22996,-6051,27637
653328594401988790,23031,-6325,27278
653328594409421664,22941,-6183,26975
653328594416854538,23032,-6136,27240
653328594424287412,23032,-6062,27449
653328594431720286,23037,-6032,27379
653328594439153160,23104,-5933,27462
653328594446586034,23102,-5924,27463
653328594454018908,23149,-5826,27518
653328594461451782,23157,-5850,27425
653328594468884656,23248,-5870,27357
653328594476317530,23266,-5745,27400
653328594483750404,23312,-5744,27345
653328594491183278,23379,-5765,27269
653328594498616152,23422,-4696,28378
653328594506049026,23472,-5233,27747
653328594513481900,23465,-5419,27361
653328594520914774,23536,-5486,27273
653328594528347648,24594,-4513,28219
653328594535672210,24380,-5282,27822
653328594543111456,23995,-5506,27381
653328594550550702,23777,-5464,27171
653328594557989948,24729,-5306,27147
653328594565429194,24252,-5253,27138
653328594572868440,24096,-5173,27150
653328594580307686,24169,-5193,27154
653328594587746932,24065,-5050,27163
653328594595186178,24148,-4969,27019
653328594602625424,24184,-4988,26818
653328594610064670,24208,-4934,26761
653328594617503916,24195,-4906,26828
653328594624943162,24297,-4752,26858
653328594632382408,24346,-4771,26745
653328594639821654,24389,-4729,26796
653328594647260900,24436,-4558,26992
653328594654700146,24582,-4450,26924
653328594662139392,24704,-4431,27088
653328594669625069,25008,-4553,26842
653328594677061584,24914,-4384,26856
653328594684498099,24763,-4326,26776
653328594691934614,24802,-4240,26773
653328594699371129,24794,-4198,26786
653328594706807644,24994,-4136,26832
653328594714244159,25052,-4087,26850
653328594721680674,24956,-4072,26812
653328594729117189,25031,-3995,26891
653328594736553704,25061,-3947,26845
653328594743990219,25110,-3877,27091
653328594751426734,25126,-3836,27063
653328594758863249,24990,-3796,27141
653328594766299764,24997,-3759,27167
653328594773736279,25031,-3763,27284
653328594781172794,24992,-3642,27262
653328594788609309,25043,-3560,27356
653328594796045824,25090,-3563,27441
653328594803497819,25269,-3839,27416
653328594810933424,25193,-3663,27584
653328594818369029,25248,-2453,27751
653328594825804634,25180,-3011,27639
653328594833240239,25196,-3221,27696
653328594840675844,25124,-3351,27609
653328594848111449,26329,-2301,28805
653328594855547054,25689,-2826,28258
653328594862982659,25520,-3055,27926
653328594870418264,25382,-3133,27859
653328594877853869,26530,-3138,28301
653328594885289474,26044,-3166,27924
653328594892725079,25860,-3080,27714
653328594900160684,25638,-3170,27639
653328594907596289,25679,-3086,27484
653328594915031894,25621,-3135,27547
653328594922467499,25764,-3063,27440
653328594929903104,25754,-2900,27427
653328594937354185,25709,-3123,27471
653328594944788880,25911,-2837,27377
653328594952223575,26016,-2824,27233
653328594959658270,26011,-2763,27042
653328594967092965,26151,-2582,27072
653328594974527660,26106,-2602,27139
653328594981962355,26167,-2591,27182
653328594989397050,26235,-2469,27236
653328594996831745,26289,-2240,27194
653328595004266440,26339,-2258,27187
653328595011701135,26250,-2182,27243
653328595019135830,26266,-2098,27212
653328595026570525,26261,-2005,27285
653328595034005220,26389,-1924,27275
653328595041439915,26410,-1848,27171
653328595048874610,26467,-1756,27266
653328595056309305,26443,-1698,27338
6.53329E+17,26393,-1699,27287
653328595071147757,26788,-1800,27156
653328595078584272,26669,-1641,27319
653328595086020787,26489,-1516,27296
653328595093457302,26611,-1549,27236
653328595100893817,26704,-1432,27393
653328595108330332,26747,-1453,27456
653328595115766847,26587,-1499,27314
653328595123203362,26637,-1379,27398
653328595130639877,26596,-1443,27441
653328595138076392,26601,-1508,27266
653328595145512907,26622,-1491,27318
653328595152949422,26559,-1565,27276
653328595160385937,26581,-1561,27220
653328595167822452,26528,-559,28368
653328595175258967,26534,-1262,27621
653328595182695482,26523,-1531,27365
653328595190131997,26559,-1606,27129
653328595197568512,27580,-622,28140
653328595204958610,27029,-1398,27402
653328595212397856,26580,-1521,27006
653328595219837102,26556,-1655,26970
653328595227276348,26924,-1646,26890
653328595234715594,26574,-1792,26834
653328595242154840,26493,-1937,26730
653328595249594086,26364,-1797,26526
653328595257033332,26327,-1779,26492
653328595264472578,26251,-1765,26444
653328595271911824,26317,-1788,26421
653328595279351070,26282,-1724,26369
653328595286790316,26290,-1760,26278
653328595294229562,26153,-1770,26142
653328595301668808,26315,-1829,26166
653328595309108054,26386,-1833,26139
653328595316547300,26429,-1728,26201
653328595323986546,26368,-1777,26146
653328595331425792,26340,-1822,26039
653328595338911469,26308,-1886,25997
653328595346347984,26350,-1668,25897
653328595353784499,26363,-1660,25864
653328595361221014,26325,-1617,25815
653328595368657529,26395,-1635,25586
653328595376094044,26355,-1677,25610
653328595383530559,26310,-1732,25601
653328595390967074,26215,-1664,25557
653328595398403589,26315,-1587,25597
653328595405840104,26328,-1728,25553
653328595413276619,26248,-1619,25480
653328595420713134,26160,-1536,25403
653328595428149649,26352,-1549,25511
653328595435586164,26404,-1478,25521
653328595443022679,26379,-1428,25412
653328595450459194,26406,-1432,25503
653328595457895709,26454,-1423,25526
653328595465332224,26519,-1328,25517
653328595472784219,26159,-1170,25504
653328595480219824,26303,-1168,25464
653328595487655429,26491,-119,26034
653328595495091034,26564,-806,25689
653328595502526639,26577,-1022,25442
653328595509962244,26632,-1078,25196
653328595517397849,27648,-237,26151
653328595524833454,27176,-843,25419
653328595532269059,26904,-1089,24999
653328595539704664,26700,-1182,24856
653328595547140269,27761,-1226,24634
653328595554575874,27245,-1291,24619
653328595562011479,27112,-1276,24650
653328595569447084,26899,-1214,24593
653328595576882689,26865,-1238,24549
653328595584318294,26887,-1107,24612
653328595591753899,26931,-1197,24633
653328595599189504,26802,-1166,24732
653328595606609645,26764,-776,24819
653328595614046160,26776,-833,24709
653328595621482675,26874,-881,24694
653328595628919190,26874,-848,24754
653328595636355705,26925,-927,24813
653328595643792220,26880,-994,24797
653328595651228735,26918,-884,24738
653328595658665250,27001,-833,24679
653328595666101765,27093,-685,24806
653328595673538280,27084,-683,24879
653328595680974795,27068,-676,24878
653328595688411310,27072,-746,24932
653328595695847825,27157,-819,24872
653328595703284340,27142,-797,24860
653328595710720855,27180,-653,24714
653328595718157370,27254,-623,24736
653328595725593885,27112,-551,24749
653328595733030400,27095,-518,24813
653328595740482395,27203,-563,25031
6.53329E+17,27216,-654,24969
653328595755353605,27269,-741,24797
653328595762789210,27266,-783,24867
653328595770224815,27248,-698,24916
653328595777660420,27273,-696,24887
653328595785096025,27336,-634,24909
653328595792531630,27357,-585,24796
653328595799967235,27263,-598,24785
653328595807402840,27237,-425,24788
653328595814838445,27335,-585,24822
653328595822274050,27337,-510,24831
653328595829709655,27313,-541,24875
653328595837145260,28147,565,25959
653328595844580865,27798,-21,25351
653328595852016470,27666,-166,24951
653328595859452075,27607,-199,24941
653328595866887680,28606,-358,25826
653328595874338761,27832,-514,25147
653328595881773456,27711,-282,24924
653328595889208151,27658,-367,24845
653328595896642846,27678,-342,24918
653328595904077541,27712,-262,24878
653328595911512236,27783,-171,24947
653328595918946931,27765,-229,24873
653328595926381626,27754,-153,24964
653328595933816321,27646,-186,24844
653328595941251016,27695,-204,24826
653328595948685711,27811,-149,24746
653328595956120406,27857,-80,24737
653328595963555101,27955,-49,24805
653328595970989796,27869,102,24765
653328595978424491,28018,29,24708
653328595985859186,28035,197,24798
653328595993293881,28048,115,24798
653328596000728576,28125,150,24872
653328596008085906,28235,273,25020
653328596015525152,28256,167,25039
653328596022964398,28143,43,24745
653328596030403644,28113,75,24794
653328596037842890,28014,-30,24818
653328596045282136,28063,-107,24658
653328596052721382,28016,-84,24566
653328596060160628,27837,-117,24443
653328596067599874,27841,-167,24443
653328596075039120,27849,-196,24452
653328596082478366,27762,-341,24365
653328596089917612,27766,-371,24220
653328596097356858,27807,-482,24188
653328596104796104,27800,-376,24060
653328596112235350,27795,-330,24134
653328596119674596,27749,-366,24120
653328596127113842,27712,-379,24017
653328596134553088,27779,-388,24067
653328596142100662,27667,-559,23932
653328596149533536,27732,-549,24019
653328596156966410,27648,448,24989
653328596164399284,27704,-108,24497
653328596171832158,27678,-500,24128
653328596179265032,27488,-700,23912
653328596186697906,28675,472,24942
653328596194130780,28046,-128,24339
653328596201563654,27754,-387,24081
653328596208996528,27666,-597,23772
653328596216429402,28526,-723,23702
653328596223862276,27958,-741,23548
653328596231295150,27736,-624,23485
653328596238728024,27609,-662,23419
653328596246160898,27574,-790,23313
653328596253593772,27543,-823,23299
653328596261026646,27462,-812,23354
653328596268459520,27506,-742,23335
653328596275784082,27448,-1133,23077
653328596283223328,27492,-1005,23343
653328596290662574,27480,-975,23392
653328596298101820,27424,-830,23421
653328596305541066,27379,-782,23373
653328596312980312,27354,-989,23339
653328596320419558,27353,-1004,23362
653328596327858804,27479,-983,23383
653328596335298050,27488,-864,23552
653328596342737296,27472,-836,23490
653328596350176542,27405,-888,23377
653328596357615788,27358,-849,23401
653328596365055034,27360,-829,23518
653328596372494280,27290,-869,23634
653328596379933526,27269,-899,23540
653328596387372772,27215,-864,23611
653328596394812018,27282,-945,23635
653328596402251264,27310,-856,23677
653328596409767881,27289,-946,23415
653328596417202576,27199,-1020,23512
653328596424637271,27065,-1116,23461
653328596432071966,27030,-1054,23495
653328596439506661,27101,-1090,23461
653328596446941356,27137,-1061,23497
653328596454376051,27191,-1257,23480
653328596461810746,27110,-1083,23458
653328596469245441,27168,-1053,23600
653328596476680136,27159,-88,24316
653328596484114831,27183,-717,23708
653328596491549526,27201,-930,23548
653328596498984221,27216,-1037,23606
653328596506418916,28212,49,24660
653328596513853611,27688,-594,24072
653328596521288306,27317,-901,23776
653328596528723001,27167,-1039,23757
653328596536157696,28285,-1165,23457
653328596543545983,27658,-1374,23497
653328596550983408,27430,-1209,23563
653328596558420833,27389,-1172,23554
653328596565858258,27304,-1052,23500
653328596573295683,27294,-1175,23564
653328596580733108,27228,-1195,23526
653328596588170533,27191,-1203,23488
653328596595607958,27205,-1102,23497
653328596603045383,27142,-1065,23454
653328596610482808,27199,-1137,23342
653328596617920233,27164,-1299,23559
653328596625357658,27169,-1286,23629
653328596632795083,27087,-1271,23574
653328596640232508,27182,-1207,23577
653328596647669933,27134,-1272,23628
653328596655107358,27076,-1164,23606
653328596662544783,27102,-1193,23625
653328596669982208,27031,-1268,23737
653328596677435117,27010,-1501,23772
653328596684871632,27050,-1412,23790
653328596692308147,27116,-1392,23912
653328596699744662,27088,-1363,23994
653328596707181177,27058,-1326,24067
653328596714617692,27005,-1347,24037
653328596722054207,27005,-1362,24058
653328596729490722,27045,-1404,24065
653328596736927237,27072,-1383,24092
653328596744363752,27050,-1466,24064
653328596751800267,26956,-1358,24063
653328596759236782,27041,-1299,24115
653328596766673297,26930,-1374,24085
653328596774109812,26920,-1443,24016
653328596781546327,26978,-1419,24004
653328596788982842,26961,-1404,24046
653328596796419357,26968,-584,24131
653328596803855872,26969,-1032,24079
653328596811292397,27121,-1345,24402
653328596818728912,26969,-1497,24414
653328596826165427,28020,-404,25385
653328596833601942,27328,-938,24662
653328596841038457,27203,-1142,24505
653328596848474972,27058,-1278,24417
653328596855911487,28063,-1293,25201
653328596863348002,27514,-1341,24717
653328596870784517,27103,-1439,24446
653328596878221032,26924,-1429,24187
653328596885657547,27081,-1300,24276
653328596893094062,27135,-1297,24355
653328596900530577,27057,-1346,24429
653328596907967092,26972,-1397,24489
653328596915403607,26942,-1383,24556
653328596922840122,26979,-1456,24574
653328596930276637,26836,-1488,24400
653328596937713152,26931,-1378,24417
653328596945196104,26944,-1803,24577
653328596952629888,26878,-1792,24666
653328596960063672,26849,-1734,24693
653328596967497456,26698,-1688,24553
653328596974931240,26736,-1652,24682
653328596982365024,26712,-1762,24724
653328596989798808,26523,-1919,24553
653328596997232592,26648,-1976,24612
653328597004666376,26583,-1977,24561
653328597012100160,26442,-2081,24522
653328597019533944,26490,-2068,24609
653328597026967728,26452,-2004,24597
653328597034401512,26302,-2165,24656
653328597041835296,26237,-2225,24588
653328597049269080,26345,-2312,24546
653328597056702864,26242,-2318,24580
653328597064136648,26205,-2294,24536
653328597071570432,26216,-2302,24532
653328597078957805,26010,-2507,24492
653328597086394320,26033,-2431,24524
653328597093830835,26039,-2286,24541
653328597101267350,26103,-2282,24487
653328597108703865,25947,-2343,24493
653328597116140380,26005,-2292,24584
653328597123576895,26044,-2430,24600
653328597131013410,25931,-2395,24552
653328597138449925,25997,-2429,24346
653328597145886440,25943,-1389,25495
653328597153322955,25972,-1949,25037
653328597160759470,25835,-2341,24676
653328597168195985,25929,-2357,24774
653328597175632500,26958,-1472,25693
653328597183069015,26284,-2150,25073
653328597190505530,25949,-2422,24818
653328597197942045,25801,-2454,24706
653328597205378560,25990,-2504,24567
653328597212768658,25868,-2534,24573
653328597220207904,25782,-2667,24649
653328597227647150,25675,-2712,24546
653328597235086396,25509,-2683,24511
653328597242525642,25709,-2642,24636
653328597249964888,25761,-2615,24699
653328597257404134,25630,-2676,24626
653328597264843380,25548,-2692,24553
653328597272282626,25578,-2798,24481
653328597279721872,25465,-2729,24680
653328597287161118,25563,-2665,24726
653328597294600364,25565,-2696,24511
653328597302039610,25511,-2767,24539
653328597309478856,25583,-2830,24525
653328597316918102,25496,-2787,24434
653328597324357348,25444,-2805,24435
653328597331796594,25485,-2767,24563
653328597339235840,25546,-2734,24799
653328597346783414,25465,-2761,24441
653328597354216288,25421,-2865,24458
653328597361649162,25352,-3105,24665
653328597369082036,25335,-2881,24669
653328597376514910,25417,-2869,24697
653328597383947784,25374,-2904,24787
653328597391380658,25332,-2808,24810
653328597398813532,25369,-2765,24786
653328597406246406,25402,-2686,24776
653328597413679280,25352,-2722,24718
653328597421112154,25434,-2818,24774
653328597428545028,25401,-2772,24818
653328597435977902,25270,-2716,24808
653328597443410776,25382,-2737,24757
653328597450843650,25326,-2738,24663
653328597458276524,25328,-2866,24642
653328597465709398,25356,-1787,25664
653328597473142272,25452,-2307,25152
653328597480466834,25209,-2813,24805
653328597487906080,25364,-2744,24651
653328597495345326,26370,-1715,25620
653328597502784572,25873,-2219,24960
653328597510223818,25523,-2497,24628
653328597517663064,25550,-2534,24546
653328597525102310,26594,-2635,24454
653328597532541556,26083,-2678,24229
653328597539980802,25860,-2586,24236
653328597547420048,25652,-2574,24207
653328597554859294,25705,-2529,24307
653328597562298540,25618,-2520,24275
653328597569737786,25714,-2453,24166
653328597577177032,25704,-2420,24255
653328597584616278,25605,-2505,24179
653328597592055524,25798,-2420,24342
653328597599494770,25721,-2492,24287
653328597606934016,25863,-2408,24310
653328597614450633,26067,-2161,24552
653328597621885328,25876,-2209,24354
653328597629320023,25960,-2179,24394
653328597636754718,25755,-2234,24236
653328597644189413,25897,-2072,24446
653328597651624108,25941,-2069,24477
653328597659058803,26214,-2148,24574
653328597666493498,26091,-2260,24590
653328597673928193,26072,-2131,24573
653328597681362888,26021,-2104,24702
653328597688797583,26005,-2007,24662
653328597696232278,25926,-1986,24605
653328597703666973,25948,-2099,24719
653328597711101668,25874,-2109,24755
653328597718536363,25787,-2060,24575
653328597725971058,25952,-2113,24661
653328597733405753,25847,-2043,24716
653328597740840448,25998,-1970,24818
653328597748197778,25862,-2213,24592
653328597755637024,25990,-2016,24826
653328597763076270,26116,-1993,24935
653328597770515516,26113,-2036,24915
653328597777954762,26105,-1946,24892
653328597785394008,26161,-699,24954
653328597792833254,26168,-1294,25042
653328597800272500,26211,-1584,24948
653328597807711746,26246,-1696,24975
653328597815150992,27182,-719,25979
653328597822590238,26709,-1374,25457
653328597830029484,26465,-1665,25207
653328597837468730,26217,-1719,25124
653328597844907976,27233,-1750,25588
653328597852347222,26546,-1910,25168
653328597859786468,26248,-1940,25068
653328597867225714,26056,-1889,24966
653328597874664960,26078,-1956,24966
653328597882150637,25941,-2245,24733
653328597889587152,25986,-2021,24709
653328597897023667,25945,-2118,24594
653328597904460182,25949,-2116,24334
653328597911896697,25965,-2105,24314
653328597919333212,26009,-2238,24266
653328597926769727,25833,-2217,24166
653328597934206242,25734,-2285,24030
653328597941642757,25864,-2279,24059
653328597949079272,25773,-2224,24084
653328597956515787,25833,-2296,24058
653328597963952302,25964,-2272,24020
653328597971388817,25760,-2294,23951
653328597978825332,25765,-2258,24044
653328597986261847,25823,-2380,23983
653328597993698362,25816,-2408,23927
653328598001134877,25754,-2370,24034
653328598008571392,25736,-2284,23990
653328598016023387,25897,-2603,23972
653328598023458992,25651,-2518,23981
653328598030894597,25654,-2400,23947
653328598038330202,25615,-2343,23812
653328598045765807,25436,-2396,23734
653328598053201412,25382,-2416,23740
653328598060637017,25540,-2348,23808
653328598068072622,25481,-2384,23875
653328598075508227,25452,-2387,23775
653328598082943832,25346,-2540,23710
653328598090379437,25406,-2562,23752
653328598097815042,25438,-2559,23713
653328598105250647,25460,-2442,23874
653328598112686252,25367,-2419,23864
653328598120121857,25325,-2433,23788
653328598127557462,25375,-2469,23789
653328598134993067,25498,-1448,24843
653328598142428672,25447,-2028,24252
653328598149848813,25477,-2447,23956
653328598157285328,25548,-2410,23926
653328598164721843,26509,-1802,24990
653328598172158358,25958,-2107,24420
653328598179594873,25702,-2308,24212
653328598187031388,25518,-2489,24014
653328598194467903,25286,-2450,24004
653328598201904418,25326,-2537,23979
653328598209340933,25276,-2567,23870
653328598216777448,25326,-2535,23787
653328598224213963,25345,-2541,23780
653328598231650478,25267,-2564,23821
653328598239086993,25359,-2587,23882
653328598246523508,25279,-2644,23798
653328598253960023,25369,-2507,23665
653328598261396538,25401,-2537,23742
653328598268833053,25419,-2568,23778
653328598276269568,25357,-2502,23772
653328598283690623,25195,-2396,23766
653328598291128048,25228,-2484,23874
653328598298565473,25337,-2500,23925
653328598306002898,25264,-2490,23713
653328598313440323,25270,-2435,23697
653328598320877748,25125,-2449,23551
653328598328315173,25192,-2388,23605
653328598335752598,25244,-2383,23724
653328598343190023,25408,-2474,23674
653328598350627448,25446,-2371,23731
653328598358064873,25433,-2446,23627
653328598365502298,25395,-2321,23672
653328598372939723,25383,-2338,23541
653328598380377148,25364,-2378,23451
653328598387814573,25460,-2319,23557
653328598395251998,25560,-2197,23491
653328598402689423,25583,-2242,23526
653328598410126848,25667,-2196,23610
653328598417610697,25615,-2480,23736
653328598425045392,25632,-2369,23791
653328598432480087,25647,-2162,23790
653328598439914782,25675,-2142,23553
653328598447349477,25675,-2052,23717
653328598454784172,25713,-1092,24686
653328598462218867,25808,-1593,24285
653328598469653562,25717,-1822,23895
653328598477088257,25766,-1910,23738
653328598484522952,26871,-825,24811
653328598491957647,26286,-1403,24195
653328598499392342,26031,-1695,23904
653328598506827037,25929,-1760,23748
653328598514261732,27010,-1787,23725
653328598521696427,26413,-1899,23806
653328598529131122,26113,-1779,23813
653328598536565817,26028,-1819,23789
653328598544000512,26089,-1784,23816
653328598551388799,26032,-1563,23990
653328598558826224,26001,-1698,23893
653328598566263649,25967,-1779,23935
653328598573701074,26029,-1778,23924
653328598581138499,26144,-1665,23896
653328598588575924,26174,-1719,24008
653328598596013349,26095,-1702,23996
653328598603450774,26092,-1623,24027
653328598610888199,26180,-1620,24034
653328598618325624,26190,-1658,24072
653328598625763049,26186,-1581,24089
653328598633200474,26243,-1510,23972
653328598640637899,26236,-1493,23906
653328598648075324,26296,-1466,24065
653328598655512749,26114,-1468,23980
653328598662950174,26310,-1438,24112
653328598670387599,26249,-1327,24226
653328598677825024,26300,-1323,24269
653328598685246976,26493,-1244,24482
653328598692685312,26461,-1273,24359
653328598700123648,26427,-1203,24359
653328598707561984,26363,-1350,24387
653328598715000320,26348,-1406,24359
653328598722438656,26350,-1449,24375
653328598729876992,26450,-1437,24346
653328598737315328,26418,-1487,24463
653328598744753664,26368,-1475,24461
6.53329E+17,26290,-1515,24355
653328598759630336,26197,-1613,24297
653328598767068672,26202,-1592,24260
653328598774507008,26142,-842,24192
653328598781945344,26108,-1341,24034
653328598789383680,26108,-1570,23962
653328598796822016,26023,-1743,23800
653328598804260352,27018,-885,24669
653328598811698688,26447,-1482,23974
653328598819198921,26291,-2056,23696
653328598826633616,26048,-1953,23697
653328598834068311,26977,-2103,24367
653328598841503006,26361,-2075,23932
653328598848937701,25919,-2105,23574
653328598856372396,25765,-2090,23348
653328598863807091,25551,-2084,23311
653328598871241786,25538,-2102,23261
653328598878676481,25535,-2112,23373
653328598886111176,25598,-2183,23394
653328598893545871,25573,-2132,23269
653328598900980566,25615,-2055,23190
653328598908415261,25580,-2251,23185
653328598915849956,25489,-2194,23105
653328598923284651,25343,-2193,23077
653328598930719346,25442,-2286,23165
653328598938154041,25298,-2320,23173
653328598945588736,25314,-2357,23047
653328598953007963,25407,-2586,23258
653328598960443568,25195,-2457,22974
653328598967879173,25304,-2408,22950
653328598975314778,25297,-2485,22871
653328598982750383,25250,-2608,22830
653328598990185988,25108,-2687,22701
653328598997621593,25118,-2616,22781
653328599005057198,25138,-2622,22552
653328599012492803,25157,-2501,22552
653328599019928408,25096,-2536,22703
653328599027364013,25081,-2566,22711
653328599034799618,25018,-2599,22716
653328599042235223,25038,-2547,22712
653328599049670828,24985,-2624,22666
653328599057106433,24958,-2652,22585
653328599064542038,24999,-2698,22498
653328599071977643,24920,-2730,22517
653328599079413248,24874,-2653,22426
653328599086802432,24699,-2662,22221
653328599094240768,24867,-2678,22276
653328599101679104,24849,-2772,22241
653328599109117440,24800,-2799,22435
653328599116555776,24787,-2850,22400
653328599123994112,24805,-1934,23366
653328599131432448,24791,-2326,22788
653328599138870784,24769,-2725,22533
653328599146309120,24707,-2756,22340
653328599153747456,25693,-1864,23284
653328599161185792,25021,-2325,22613
653328599168624128,24942,-2571,22303
653328599176062464,24783,-2797,22289
653328599183500800,25293,-2818,22024
653328599190939136,24908,-2929,22053
653328599198377472,24759,-2843,21939
653328599205815808,24633,-2945,21976
653328599213254144,24635,-2955,21970
653328599220677010,24583,-3070,22195
653328599228116256,24657,-3008,22056
653328599235555502,24559,-2858,21845
653328599242994748,24513,-2858,21803
653328599250433994,24629,-2815,21809
653328599257873240,24682,-2829,21846
653328599265312486,24629,-2905,21834
653328599272751732,24660,-2723,21853
653328599280190978,24623,-2823,21822
653328599287630224,24676,-2668,21892
653328599295069470,24519,-2776,21718
653328599302508716,24672,-2736,21891
653328599309947962,24644,-2700,21795
653328599317387208,24663,-2785,21633
653328599324826454,24679,-2787,21504
653328599332265700,24667,-2685,21567
653328599339704946,24640,-2843,21676
653328599347144192,24617,-2887,21610
653328599354645339,24955,-2689,21718
653328599362080944,24646,-2624,21521
653328599369516549,24642,-2815,21601
653328599376952154,24549,-2695,21402
653328599384387759,24638,-2746,21426
653328599391823364,24617,-2751,21334
653328599399258969,24596,-2737,21231
653328599406694574,24596,-2694,21337
653328599414130179,24702,-2684,21403
653328599421565784,24741,-2702,21279
653328599429001389,24712,-2659,21323
653328599436436994,24751,-2615,21309
653328599443872599,24780,-1609,21682
653328599451308204,24839,-2142,21486
653328599458743809,24781,-2389,21330
653328599466179414,24777,-2447,21247
653328599473615019,25903,-1372,22353
653328599481050624,25397,-2059,21747
653328599488470765,25101,-2119,21597
653328599495907280,25072,-2359,21520
653328599503343795,26047,-2550,21484
653328599510780310,25351,-2505,21287
653328599518216825,25190,-2565,21396
653328599525653340,24987,-2412,21418
653328599533089855,25057,-2528,21313
653328599540526370,24943,-2394,21301
653328599547962885,24983,-2352,21276
653328599555399400,25017,-2385,21189
653328599562835915,24960,-2411,21215
653328599570272430,24968,-2412,21022
653328599577708945,25014,-2398,21046
653328599585145460,24989,-2334,21130
653328599592581975,24953,-2187,21016
653328599600018490,25130,-2106,21014
653328599607455005,25163,-2257,21205
653328599614891520,25237,-2165,21194
653328599622312575,25196,-1954,20997
6.53329E+17,25254,-2028,21155
653328599637187425,25195,-2091,21192
653328599644624850,25222,-2155,21186
653328599652062275,25196,-2234,21191
653328599659499700,25410,-2418,21217
653328599666937125,25185,-2457,21045
653328599674374550,25030,-2554,21014
653328599681811975,24820,-2548,20910
653328599689249400,24802,-2591,20726
653328599696686825,24680,-2719,20597
653328599704124250,24570,-2813,20518
653328599711561675,24650,-2827,20558
653328599718999100,24498,-2969,20452
653328599726436525,24525,-2979,20415
653328599733873950,24408,-3008,20277
653328599741311375,24408,-3057,20118
653328599748748800,24400,-3156,20059
653328599756201709,24490,-3412,19951
653328599763638224,24242,-3433,19860
653328599771074739,24221,-3417,19936
653328599778511254,24199,-3472,19866
653328599785947769,24093,-3432,19890
653328599793384284,23967,-2367,20665
653328599800820799,24025,-2939,20050
653328599808257314,23932,-3253,19866
653328599815693829,23803,-3491,19673
653328599823130344,24754,-2823,20601
653328599830566859,24170,-3263,19882
653328599838003374,23855,-3494,19559
653328599845439889,23672,-3634,19425
653328599852876404,23804,-3750,19435
653328599860312919,23516,-3757,19295
653328599867749434,23559,-3863,19191
653328599875185949,23414,-3889,19018
653328599882622464,23376,-3939,18965
653328599890043519,23377,-4044,18764
653328599897480944,23319,-3975,18622
653328599904918369,23269,-3947,18664
653328599912355794,23103,-3972,18529
653328599919793219,23137,-4064,18411
653328599927230644,23132,-4113,18404
653328599934668069,23209,-4056,18472
653328599942105494,23088,-4060,18408
653328599949542919,23123,-4145,18404
653328599956980344,23079,-4265,18374
653328599964417769,22911,-4257,18352
653328599971855194,23017,-4151,18507
653328599979292619,22871,-4282,18364
653328599986730044,22784,-4349,18346
653328599994167469,22804,-4360,18194
653328600001604894,22775,-4332,18161
653328600009042319,22753,-4401,17966
653328600016479744,22782,-4391,17937
653328600023932653,22996,-4594,18048
653328600031369168,22705,-4448,18084
653328600038805683,22587,-4415,18039
653328600046242198,22563,-4417,17939
653328600053678713,22520,-4448,17886
653328600061115228,22510,-4410,17757
653328600068551743,22456,-4488,17782
653328600075988258,22523,-4521,17695
653328600083424773,22556,-4573,17691
653328600090861288,22535,-4605,17699
653328600098297803,22529,-4538,17631
653328600105734318,22517,-4521,17627
653328600113170833,22382,-3474,18159
653328600120607348,22390,-4089,17946
653328600128043863,22456,-4283,17791
653328600135480378,22264,-4475,17591
653328600142916893,23382,-3535,18713
653328600150353408,22817,-4066,18057
653328600157774463,22483,-4603,17597
653328600165211888,22369,-4650,17474
653328600172649313,23383,-4534,17380
653328600180086738,22748,-4600,17409
653328600187524163,22421,-4612,17320
653328600194961588,22358,-4658,17292
653328600202399013,22325,-4630,17338
653328600209836438,22308,-4620,17192
653328600217273863,22169,-4688,17054
653328600224711288,22242,-4710,17073
653328600232148713,22258,-4628,17118
653328600239586138,22190,-4673,17030
653328600247023563,22215,-4807,16961
653328600254460988,22134,-4724,16913
653328600261898413,22155,-4747,16972
653328600269335838,21991,-4684,16951
653328600276773263,22144,-4678,16867
653328600284210688,22141,-4707,16889
653328600291663597,22168,-4517,17160
653328600299100112,22233,-4553,16961
653328600306536627,22083,-4611,16882
653328600313973142,22153,-4655,16979
653328600321409657,22223,-4623,16884
653328600328846172,22238,-4539,16806
653328600336282687,22190,-4632,16878
653328600343719202,22088,-4616,16716
653328600351155717,22209,-4477,16726
653328600358592232,22220,-4536,16691
653328600366028747,22203,-4620,16632
653328600373465262,22222,-4649,16676
653328600380901777,22162,-4525,16607
653328600388338292,22328,-4435,16670
653328600395774807,22242,-4441,16543
653328600403211322,22312,-4458,16558
653328600410647837,22168,-4476,16492
653328600418084352,22254,-4388,16622
653328600425551817,22187,-4543,16671
653328600432986512,22277,-4434,16699
653328600440421207,22286,-4349,16638
653328600447855902,22298,-4283,16705
653328600455290597,22238,-4365,16656
653328600462725292,22662,-3347,17679
653328600470159987,22461,-4038,17174
653328600477594682,22386,-4214,16734
653328600485029377,22315,-4333,16760
653328600492464072,23354,-3967,17659
653328600499898767,22708,-4134,16930
653328600507333462,22481,-4302,16844
653328600514768157,22448,-4344,16782
653328600522202852,22323,-4359,16806
653328600529637547,22297,-4308,16905
653328600537072242,22360,-4091,16817
653328600544506937,22322,-4170,16696
653328600551941632,22411,-4207,16776
653328600559360859,22298,-4360,16589
653328600566796464,22219,-4375,16695
653328600574232069,22091,-4441,16631
653328600581667674,22058,-4444,16591
653328600589103279,22075,-4496,16529
653328600596538884,22024,-4596,16587
653328600603974489,22016,-4822,16581
653328600611410094,21964,-4735,16418
653328600618845699,21822,-4824,16239
653328600626281304,21775,-4954,16026
653328600633716909,21705,-5070,15959
653328600641152514,21732,-5058,15882
653328600648588119,21602,-5090,15740
653328600656023724,21539,-5113,15495
653328600663459329,21406,-5321,15337
653328600670894934,21439,-5346,15279
653328600678330539,21294,-5458,15244
653328600685766144,21286,-5503,15071
653328600693155328,21385,-5601,15324
653328600700593664,21238,-5587,15100
6.53329E+17,21133,-5583,14838
653328600715470336,21011,-5679,14854
653328600722908672,20944,-5840,14661
653328600730347008,20854,-5759,14495
653328600737785344,20806,-5830,14349
653328600745223680,20888,-5840,14367
653328600752662016,20724,-5789,14286
653328600760100352,20702,-5868,14268
653328600767538688,20755,-5816,14179
653328600774977024,20629,-5924,14077
653328600782415360,20556,-4872,15077
653328600789853696,20496,-5520,14462
653328600797292032,20522,-5763,14114
653328600804730368,20464,-5853,13919
653328600812168704,21471,-5029,14876
653328600819607040,20819,-5670,14052
653328600827060863,20618,-5923,14049
653328600834498288,20408,-6077,13748
653328600841935713,21445,-6138,13618
653328600849373138,20895,-6196,13565
653328600856810563,20476,-6291,13374
653328600864247988,20245,-6232,13431
653328600871685413,20117,-6243,13280
653328600879122838,20088,-6330,13469
653328600886560263,20041,-6339,13442
653328600893997688,19954,-6374,13443
653328600901435113,19965,-6357,13466
653328600908872538,20001,-6340,13395
653328600916309963,19880,-6437,13274
653328600923747388,19973,-6343,13432
653328600931184813,19816,-6416,13337
653328600938622238,19832,-6433,13378
653328600946059663,19735,-6522,13353
653328600953497088,19771,-6603,13233
653328600960934527,19525,-6517,13486
653328600968371952,19537,-6544,13279
653328600975809377,19607,-6453,13295
653328600983246802,19514,-6563,13230
653328600990684227,19665,-6691,13053
653328600998121652,19623,-6642,13182
653328601005559077,19496,-6702,13087
653328601012996502,19437,-6666,13173
653328601020433927,19388,-6803,13110
653328601027871352,19387,-6779,13115
653328601035308777,19464,-6788,13092
653328601042746202,19466,-6706,12978
653328601050183627,19502,-6678,13184
653328601057621052,19557,-6518,13246
653328601065058477,19489,-6525,13160
653328601072495902,19470,-6616,13008
653328601079933327,19521,-6546,13040
653328601087370752,19511,-6563,13032
653328601094854601,19749,-6939,12946
653328601102289296,19641,-6075,12992
653328601109723991,19567,-6289,12850
653328601117158686,19618,-6521,13016
653328601124593381,19587,-6525,12976
653328601132028076,20617,-5494,13970
653328601139462771,19835,-6164,13320
653328601146897466,19669,-6386,13044
653328601154332161,19570,-6548,12940
653328601161766856,20566,-6544,13861
653328601169201551,20002,-6500,13232
653328601176636246,19722,-6542,12908
653328601184070941,19554,-6522,12934
653328601191505636,19553,-6665,12908
653328601198940331,19424,-6543,12969
653328601206375026,19298,-6574,12929
653328601213809721,19441,-6631,12902
653328601221244416,19392,-6547,12863
653328601228617216,19141,-6923,13027
653328601236055552,19270,-6723,12896
653328601243493888,19412,-6697,12818
653328601250932224,19404,-6641,12902
653328601258370560,19415,-6496,12882
653328601265808896,19430,-6556,12910
653328601273247232,19462,-6513,12974
653328601280685568,19446,-6452,12959
653328601288123904,19320,-6409,13007
653328601295562240,19401,-6433,12893
653328601303000576,19418,-6477,12923
653328601310438912,19515,-6497,12996
653328601317877248,19483,-6566,12880
653328601325315584,19482,-6632,12686
653328601332753920,19359,-6624,12629
653328601340192256,19487,-6599,12657
653328601347630592,19368,-6603,12685
653328601355068928,19310,-6694,12678
653328601362522751,19528,-6669,12503
653328601369960176,19443,-6705,12711
653328601377397601,19481,-6563,12971
653328601384835026,19345,-6544,13082
653328601392272451,19294,-6695,13215
653328601399709876,19294,-6614,13274
653328601407147301,19142,-6535,13251
653328601414584726,19178,-6424,13158
653328601422022151,19158,-6551,13247
653328601429459576,19248,-6497,13285
653328601436897001,19221,-6492,13300
653328601444334426,19212,-6552,13338
653328601451771851,19174,-5450,14472
653328601459209276,19243,-6184,13738
653328601466646701,19329,-6284,13511
653328601474084126,19314,-6286,13450
653328601481521551,20343,-5418,14484
653328601488958976,19854,-5984,13807
653328601496411885,19430,-6123,13558
653328601503848400,19304,-6436,13467
653328601511284915,20222,-6514,13415
653328601518721430,19688,-6671,13407
653328601526157945,19241,-6900,13250
653328601533594460,18980,-6956,13078
653328601541030975,18995,-7004,13046
653328601548467490,18959,-7006,13131
653328601555904005,18790,-7107,13032
653328601563340520,18685,-7205,12958
653328601570777035,18633,-7265,12861
653328601578213550,18547,-7384,12603
653328601585650065,18444,-7518,12571
653328601593086580,18445,-7468,12531
653328601600523095,18287,-7525,12497
653328601607959610,18297,-7538,12468
653328601615396125,18112,-7604,12494
653328601622832640,18158,-7647,12442
653328601630284635,18298,-7881,12509
653328601637720240,18083,-7848,12242
653328601645155845,17987,-7810,12304
653328601652591450,17972,-7732,12337
653328601660027055,17806,-7812,12195
653328601667462660,17747,-7838,12100
653328601674898265,17633,-7885,12142
653328601682333870,17643,-7900,12016
653328601689769475,17544,-7995,12008
653328601697205080,17423,-8040,11940
653328601704640685,17406,-8125,11951
653328601712076290,17371,-8122,12037
653328601719511895,17342,-8193,12141
653328601726947500,17153,-8249,12094
653328601734383105,17224,-8246,12114
653328601741818710,17279,-8279,12076
653328601749254315,17247,-8286,11893
653328601756689920,17214,-8425,11793
653328601764110061,17318,-8414,11715
653328601771546576,17124,-7367,11792
653328601778983091,17089,-8013,11936
653328601786419606,17106,-8293,11980
653328601793856121,16883,-8456,12033
653328601801292636,17978,-7419,13132
653328601808729151,17318,-7984,12500
653328601816165666,17017,-8301,12254
653328601823602181,16874,-8474,12197
653328601831038696,17925,-8460,13045
653328601838475211,17260,-8611,12460
653328601845911726,16868,-8766,12225
653328601853348241,16743,-8792,12189
653328601860784756,16594,-8784,12196
653328601868221271,16468,-8736,12172
653328601875657786,16407,-8797,12124
653328601883094301,16525,-8810,12142
653328601890530816,16467,-8844,12169
653328601897951871,16677,-9124,12060
653328601905389296,16475,-9035,12054
653328601912826721,16314,-8927,12069
653328601920264146,16189,-8928,11956
653328601927701571,16164,-8936,11930
653328601935138996,16219,-8981,12005
653328601942576421,16239,-8965,11953
653328601950013846,16294,-8824,12053
653328601957451271,16306,-8878,12007
653328601964888696,16356,-8948,11917
653328601972326121,16269,-8980,11814
653328601979763546,16256,-9082,11915
653328601987200971,16143,-8995,11955
653328601994638396,16181,-9013,11996
653328602002075821,16182,-8886,11995
653328602009513246,16204,-8987,11837
653328602016950671,16270,-8860,11814
653328602024388096,16279,-8824,11858
653328602031902902,16188,-9064,11968
653328602039335776,16251,-9065,11906
653328602046768650,16314,-8983,11744
653328602054201524,16351,-8882,11765
653328602061634398,16350,-8834,11769
653328602069067272,16294,-8822,11744
653328602076500146,16395,-8915,11761
653328602083933020,16365,-8833,11784
653328602091365894,16456,-8894,11801
653328602098798768,16482,-8844,11758
653328602106231642,16381,-8845,11672
653328602113664516,16328,-8769,11684
653328602121097390,16243,-7730,12690
653328602128530264,16445,-8270,12031
653328602135963138,16463,-8571,11713
653328602143396012,16408,-8616,11554
653328602150828886,17615,-7677,12627
653328602158261760,17008,-8220,11996
653328602165586322,16909,-8797,11676
653328602173025568,16803,-8664,11613
653328602180464814,17764,-8571,11440
653328602187904060,17148,-8545,11462
653328602195343306,16901,-8507,11519
653328602202782552,16751,-8508,11407
653328602210221798,16744,-8380,11400
653328602217661044,16799,-8406,11515
653328602225100290,16824,-8354,11480
653328602232539536,16821,-8324,11435
653328602239978782,16826,-8214,11302
653328602247418028,16923,-8163,11407
653328602254857274,16991,-8194,11318
653328602262296520,17071,-8080,11314
653328602269735766,17171,-7931,11520
653328602277175012,17159,-8016,11539
653328602284614258,17176,-7955,11545
653328602292053504,17255,-7921,11583
653328602299570121,17628,-7853,12030
653328602307004816,17506,-7875,11901
653328602314439511,17433,-7844,11835
653328602321874206,17444,-7899,11864
653328602329308901,17566,-7739,11886
653328602336743596,17582,-7647,11774
653328602344178291,17600,-7643,11639
653328602351612986,17655,-7548,11833
653328602359047681,17742,-7403,11921
653328602366482376,17833,-7342,11972
653328602373917071,17777,-7264,11906
653328602381351766,17887,-7222,11911
653328602388786461,17932,-7120,11835
653328602396221156,18029,-7087,11838
653328602403655851,18082,-7087,11999
653328602411090546,18103,-7071,12086
653328602418525241,18146,-7045,12097
653328602425959936,18195,-7029,12106
653328602433363693,18383,-7004,12297
653328602440800208,18150,-6316,12049
653328602448236723,18166,-6798,12005
653328602455673238,18031,-7027,11831
653328602463109753,17861,-7226,11770
653328602470546268,19067,-6157,12900
653328602477982783,18543,-6837,12154
653328602485419298,18104,-7121,11934
653328602492855813,18056,-7218,11783
653328602500292328,18935,-7337,12714
653328602507728843,18288,-7353,12110
653328602515165358,18061,-7351,11811
653328602522601873,17913,-7382,11734
653328602530038388,17807,-7434,11672
653328602537474903,17655,-7488,11621
653328602544911418,17586,-7447,11607
653328602552347933,17638,-7468,11504
653328602559784448,17705,-7361,11681
653328602567174546,17630,-7480,11580
653328602574613792,17682,-7585,11681
653328602582053038,17695,-7522,11623
653328602589492284,17695,-7479,11599
653328602596931530,17580,-7419,11647
653328602604370776,17549,-7414,11626
653328602611810022,17541,-7462,11579
653328602619249268,17674,-7352,11682
653328602626688514,17661,-7380,11687
653328602634127760,17620,-7408,11688
653328602641567006,17698,-7420,11617
653328602649006252,17647,-7549,11518
653328602656445498,17574,-7486,11546
653328602663884744,17647,-7464,11540
653328602671323990,17732,-7358,11625
653328602678763236,17782,-7467,11650
653328602686202482,17884,-7421,11609
653328602693641728,17815,-7431,11562
653328602701142875,18090,-7045,11579
653328602708578480,17910,-7096,11667
653328602716014085,17941,-7184,11822
653328602723449690,17951,-7183,11818
653328602730885295,17969,-7227,11852
653328602738320900,18030,-7070,11782
653328602745756505,17977,-7029,11679
653328602753192110,17985,-6981,11733
653328602760627715,17961,-7097,11743
653328602768063320,17974,-6964,11752
653328602775498925,17926,-7001,11727
653328602782934530,17903,-6873,11711
653328602790370135,18011,-5791,12754
653328602797805740,18003,-6415,12138
653328602805241345,18000,-6674,11913
653328602812676950,18082,-6721,11871
653328602820112555,19193,-5730,12718
653328602827548160,18526,-6396,12099
653328602834937344,18644,-6702,11674
653328602842375680,18454,-6624,11724
653328602849814016,19432,-6631,11754
653328602857252352,18915,-6625,11744
653328602864690688,18672,-6526,11742
653328602872129024,18559,-6484,11699
653328602879567360,18458,-6599,11743
653328602887005696,18335,-6382,11692
653328602894444032,18387,-6504,11692
653328602901882368,18475,-6369,11704
653328602909320704,18440,-6525,11705
653328602916759040,18520,-6381,11718
653328602924197376,18534,-6373,11750
653328602931635712,18586,-6421,11819
653328602939074048,18626,-6221,11985
653328602946512384,18649,-6206,11931
653328602953950720,18629,-6200,11797
653328602961389056,18646,-6184,11961
653328602968873819,19151,-6081,11892
653328602976309424,18981,-6200,12024
653328602983745029,18907,-6121,12108
653328602991180634,18854,-6113,11953
653328602998616239,18929,-6035,11982
653328603006051844,18968,-6038,12054
653328603013487449,18964,-5937,11868
653328603020923054,18965,-5995,11910
653328603028358659,18988,-5976,12043
653328603035794264,18965,-5891,12031
653328603043229869,19076,-5885,12106
653328603050665474,19202,-5842,12066
653328603058101079,19169,-5790,12002
653328603065536684,19269,-5836,12020
653328603072972289,19244,-5754,12003
653328603080407894,19316,-5688,12050
653328603087843499,19353,-5625,12085
653328603095279104,19389,-5555,12128
653328603102730185,19221,-5679,12057
653328603110164880,19359,-4426,12205
653328603117599575,19440,-5098,12214
653328603125034270,19614,-5320,12300
653328603132468965,19538,-5480,12288
653328603139903660,20507,-4291,13330
653328603147338355,20027,-4853,12828
653328603154773050,19763,-5089,12684
653328603162207745,19746,-5194,12548
653328603169642440,20776,-5153,13241
653328603177077135,20157,-5194,12907
653328603184511830,19980,-5321,12807
653328603191946525,19917,-5289,12647
653328603199381220,19777,-5106,12713
653328603206815915,19851,-5109,12599
653328603214250610,19871,-5082,12648
653328603221685305,20010,-5098,12609
6.53329E+17,20068,-4998,12746
653328603236477330,20184,-5119,12706
653328603243916576,20120,-4926,12679
653328603251355822,20160,-4910,12658
653328603258795068,20071,-4731,12702
653328603266234314,20186,-4561,12773
653328603273673560,20323,-4588,12746
653328603281112806,20344,-4601,12929
653328603288552052,20494,-4596,12950
653328603295991298,20498,-4568,12922
653328603303430544,20425,-4600,12935
653328603310869790,20464,-4425,12933
653328603318309036,20534,-4451,13033
653328603325748282,20416,-4519,12968
653328603333187528,20407,-4476,13047
653328603340626774,20515,-4609,13136
653328603348066020,20486,-4686,13056
653328603355505266,20504,-4725,12999
653328603362944512,20363,-4675,12873
653328603370430189,20452,-4865,12717
653328603377866704,20434,-4892,12767
653328603385303219,20222,-4850,12566
653328603392739734,20376,-4951,12635
653328603400176249,20294,-4964,12485
653328603407612764,20193,-4941,12466
653328603415049279,20223,-5006,12496
653328603422485794,20281,-5049,12483
653328603429922309,20233,-4961,12357
653328603437358824,20214,-5005,12361
653328603444795339,20297,-4978,12431
653328603452231854,20297,-4978,12446
653328603459668369,20262,-4038,13435
653328603467104884,20305,-4530,12909
653328603474541399,20247,-4848,12589
653328603481977914,20264,-4928,12408
653328603489414429,21218,-4078,13383
653328603496850944,20691,-4620,12862
653328603504318409,20750,-5080,12489
653328603511753104,20322,-5115,12326
653328603519187799,20581,-5058,12248
653328603526622494,20442,-5090,12290
653328603534057189,20338,-5042,12262
653328603541491884,20313,-5051,12196
653328603548926579,20228,-5011,12129
653328603556361274,20296,-5083,12093
653328603563795969,20249,-5007,11951
653328603571230664,20143,-4948,11919
653328603578665359,20228,-5038,11984
653328603586100054,20329,-5045,11914
653328603593534749,20305,-5131,11887
653328603600969444,20393,-5132,11998
653328603608404139,20313,-4991,12057
653328603615838834,20238,-5059,12029
653328603623273529,20272,-5071,12047
653328603630708224,20366,-5119,12135
653328603638065554,20696,-5302,12053
653328603645504800,20492,-5192,12035
653328603652944046,20440,-5012,12058
653328603660383292,20344,-4968,11968
653328603667822538,20413,-5155,12034
653328603675261784,20472,-4989,12056
653328603682701030,20442,-4995,12065
653328603690140276,20475,-5031,12016
653328603697579522,20450,-4980,12099
653328603705018768,20357,-5053,12091
653328603712458014,20237,-5160,12001
653328603719897260,20339,-5127,12118
653328603727336506,20317,-5169,12149
653328603734775752,20213,-5168,12127
653328603742214998,20356,-5115,12173
653328603749654244,20407,-4935,12202
653328603757093490,20481,-5021,12248
653328603764532736,20404,-5027,12208
653328603772049353,20719,-5021,12440
653328603779484048,20472,-4093,12996
653328603786918743,20436,-4600,12544
653328603794353438,20548,-4673,12474
653328603801788133,20529,-4878,12313
653328603809222828,21530,-3821,13411
653328603816657523,21033,-4545,12860
653328603824092218,20816,-4686,12543
653328603831526913,20754,-4767,12592
653328603838961608,21879,-4775,12372
653328603846396303,21148,-4778,12396
653328603853830998,20910,-4807,12458
653328603861265693,20824,-4739,12456
653328603868700388,20904,-4610,12423
653328603876135083,20851,-4598,12464
653328603883569778,20936,-4614,12603
653328603891004473,20756,-4589,12611
653328603898439168,20827,-4614,12644
653328603905827455,20961,-4486,12313
653328603913264880,20983,-4639,12543
653328603920702305,20884,-4541,12512
653328603928139730,20969,-4414,12586
653328603935577155,21056,-4411,12783
653328603943014580,21045,-4425,12838
653328603950452005,21102,-4445,12810
653328603957889430,21210,-4294,12933
653328603965326855,21175,-4353,12876
653328603972764280,21290,-4333,12746
653328603980201705,21326,-4293,12819
653328603987639130,21286,-4353,12815
653328603995076555,21393,-4272,12872
653328604002513980,21368,-4215,12792
653328604009951405,21384,-4217,12814
653328604017388830,21267,-4178,12774
653328604024826255,21382,-4157,12764
653328604032263680,21346,-4246,12827
653328604039701119,21569,-4409,13053
653328604047138544,21603,-4086,12990
653328604054575969,21606,-4099,12926
653328604062013394,21654,-4080,12913
653328604069450819,21643,-4010,12946
653328604076888244,21652,-3963,13115
653328604084325669,21765,-3886,13073
653328604091763094,21829,-3924,13169
653328604099200519,21830,-3778,13185
653328604106637944,21915,-3814,13180
653328604114075369,21848,-3837,13173
653328604121512794,21841,-3859,13262
653328604128950219,22750,-2809,14488
653328604136387644,22295,-3384,13909
653328604143825069,22142,-3515,13622
653328604151262494,22052,-3663,13593
653328604158699919,23134,-3668,14557
653328604166137344,22540,-3673,13846
653328604173590253,22117,-3489,13558
653328604181026768,22272,-3542,13503
653328604188463283,22373,-3521,13537
653328604195899798,22326,-3590,13610
653328604203336313,22323,-3546,13572
653328604210772828,22427,-3430,13643
653328604218209343,22375,-3429,13762
653328604225645858,22503,-3400,13826
653328604233082373,22552,-3282,13907
653328604240518888,22520,-3244,13935
653328604247955403,22681,-3244,13913
653328604255391918,22523,-3255,13912
653328604262828433,22567,-3331,13943
653328604270264948,22578,-3382,13909
653328604277701463,22624,-3374,14031
653328604285137978,22556,-3436,14099
653328604292574493,22540,-3563,14033
653328604300011008,22476,-3511,14025
653328604307447533,22293,-3495,13902
653328604314884048,22427,-3662,13840
653328604322320563,22339,-3634,13744
653328604329757078,22277,-3694,13716
653328604337193593,22398,-3703,13739
653328604344630108,22423,-3705,13604
653328604352066623,22318,-3795,13408
653328604359503138,22267,-3775,13457
653328604366939653,22294,-3851,13319
653328604374376168,22270,-3843,13366
653328604381812683,22323,-3851,13380
653328604389249198,22317,-3899,13337
653328604396685713,22227,-3901,13285
653328604404122228,22191,-3930,13330
653328604411558743,22184,-4016,13296
653328604418995258,22153,-4017,13218
653328604426431773,22202,-4022,13226
653328604433868288,22194,-4052,13214
653328604441351240,22084,-4046,12840
653328604448785024,22097,-3026,13884
653328604456218808,22103,-3638,13565
653328604463652592,22117,-3890,13335
653328604471086376,22217,-4138,13247
653328604478520160,23250,-3164,14359
653328604485953944,22659,-3724,13654
653328604493387728,22468,-3948,13259
653328604500821512,22135,-4160,13077
653328604508255296,23183,-4143,12886
653328604515689080,22608,-4270,12920
653328604523122864,22332,-4323,13056
653328604530556648,22219,-4329,12908
653328604537990432,22354,-4146,12991
653328604545424216,22182,-4121,12993
6.53329E+17,22184,-4194,13045
653328604560291784,22234,-4094,13090
653328604567725568,22115,-4091,13039
653328604575051044,22493,-4366,12944
653328604582491200,22416,-4356,13084
653328604589931356,22375,-4366,13014
653328604597371512,22269,-4126,13236
653328604604811668,22298,-4241,13106
653328604612251824,22247,-4279,13169
653328604619691980,22295,-4295,13073
653328604627132136,22283,-4145,13223
653328604634572292,22120,-4281,13170
653328604642012448,22086,-4275,13155
653328604649452604,22124,-4259,13198
653328604656892760,22137,-4195,13260
653328604664332916,22206,-4193,13210
653328604671773072,22219,-4163,13189
653328604679213228,22198,-4346,13199
653328604686653384,22276,-4288,13274
653328604694093540,22279,-4342,13260
653328604701533696,22273,-4323,13141
653328604709051227,22486,-4225,13134
653328604716486832,22295,-4085,13122
653328604723922437,22274,-4172,13065
653328604731358042,22321,-4132,13131
653328604738793647,22352,-4214,13268
653328604746229252,22458,-4192,13357
653328604753664857,22324,-4072,13336
653328604761100462,22411,-4043,13199
653328604768536067,22464,-2996,13252
653328604775971672,22551,-3490,13281
653328604783407277,22334,-3699,13319
653328604790842882,22518,-4009,13380
653328604798278487,23563,-2932,14428
653328604805714092,23018,-3532,13682
653328604813149697,22786,-3733,13445
653328604820585302,22689,-3843,13416
653328604828020907,23690,-3928,13650
653328604835456512,23128,-3991,13450
653328604842845696,23109,-3852,13415
653328604850284032,22757,-3910,13288
653328604857722368,22771,-3920,13394
653328604865160704,22740,-3889,13399
653328604872599040,22808,-3923,13471
653328604880037376,22792,-3848,13508
653328604887475712,22833,-3798,13573
653328604894914048,22789,-3798,13575
653328604902352384,22860,-3782,13560
653328604909790720,22894,-3783,13544
653328604917229056,23010,-3718,13599
653328604924667392,22881,-3676,13458
653328604932105728,22936,-3640,13486
653328604939544064,23015,-3626,13400
653328604946982400,23120,-3627,13574
653328604954420736,23168,-3549,13533
653328604961859072,23190,-3570,13590
653328604969297408,23193,-3534,13498
653328604976813128,23360,-3829,13562
653328604984246912,23316,-3626,13592
653328604991680696,23330,-3600,13667
653328604999114480,23382,-3552,13748
653328605006548264,23249,-3455,13697
653328605013982048,23269,-3348,13604
653328605021415832,23313,-3350,13599
653328605028849616,23327,-3471,13584
653328605036283400,23317,-3420,13596
653328605043717184,23399,-3353,13691
653328605051150968,23537,-3324,13626
653328605058584752,23529,-3322,13556
653328605066018536,23502,-3245,13709
653328605073452320,23529,-3371,13660
653328605080886104,23563,-3331,13675
653328605088319888,23556,-3311,13720
653328605095753672,23638,-3293,13748
653328605103187456,23734,-3163,13812
653328605110574829,24019,-3339,13946
653328605118011344,24069,-2188,14925
653328605125447859,23997,-2681,14303
653328605132884374,23859,-2855,13978
653328605140320889,23785,-2995,13769
653328605147757404,25034,-2406,14840
653328605155193919,24401,-2750,14309
653328605162630434,24359,-2812,14096
653328605170066949,24233,-2758,13929
653328605177503464,24267,-2789,13864
653328605184939979,24268,-2850,13730
653328605192376494,24178,-2725,13672
653328605199813009,24255,-2872,13794
653328605207249524,24294,-2799,13816
653328605214686039,24266,-2881,13665
653328605222122554,24264,-2921,13675
653328605229559069,24267,-3007,13567
653328605236995584,24102,-2973,13462
653328605244447579,24400,-3143,13671
653328605251883184,24104,-3195,13317
653328605259318789,23997,-3095,13249
653328605266754394,23876,-3206,13141
653328605274189999,23897,-3306,12929
653328605281625604,23929,-3318,12894
653328605289061209,23794,-3355,12747
653328605296496814,23940,-3368,12793
653328605303932419,23859,-3515,12628
653328605311368024,23941,-3469,12588
653328605318803629,23755,-3491,12629
653328605326239234,23755,-3558,12460
653328605333674839,23811,-3559,12473
653328605341110444,23692,-3624,12550
653328605348546049,23633,-3681,12373
653328605355981654,23799,-3644,12393
653328605363417259,23660,-3732,12349
653328605370852864,23680,-3726,12314
653328605378211108,23574,-3515,12316
653328605385651264,23703,-3618,12300
653328605393091420,23744,-3671,12259
653328605400531576,23671,-3844,12298
653328605407971732,23758,-3791,12247
653328605415411888,23753,-3825,12133
653328605422852044,23624,-3803,12175
653328605430292200,23671,-3788,12155
653328605437732356,23588,-2773,13144
653328605445172512,23717,-3506,12590
653328605452612668,23668,-3718,12264
653328605460052824,23708,-3842,12219
653328605467492980,24617,-2771,13038
653328605474933136,24065,-3452,12498
653328605482373292,23851,-3689,12186
653328605489813448,23597,-3765,11934
653328605497253604,24699,-3925,11861
653328605504693760,24138,-3962,11848
653328605512242248,24014,-3906,11741
653328605519676032,23769,-3965,11930
653328605527109816,23774,-3955,11979
653328605534543600,23569,-3971,11968
653328605541977384,23617,-3969,12013
653328605549411168,23565,-3855,12073
653328605556844952,23563,-3942,12068
653328605564278736,23570,-4058,12024
653328605571712520,23421,-3987,12036
653328605579146304,23563,-4091,12179
653328605586580088,23483,-3975,12224
653328605594013872,23475,-4025,12220
653328605601447656,23582,-4145,12065
653328605608881440,23502,-4132,12067
653328605616315224,23535,-4111,11943
653328605623749008,23510,-4220,11979
653328605631182792,23469,-4277,11881
653328605638616576,23445,-4251,11839
653328605645972992,23831,-4408,11948
653328605653411328,23641,-4312,12017
653328605660849664,23834,-4273,12009
6.53329E+17,23652,-4164,12082
653328605675726336,23583,-4156,12014
653328605683164672,23523,-4262,12171
653328605690603008,23530,-4300,12160
653328605698041344,23571,-4242,12128
653328605705479680,23525,-4171,12148
653328605712918016,23504,-4188,11999
653328605720356352,23490,-4108,12102
653328605727794688,23451,-4074,12107
653328605735233024,23509,-4210,12226
653328605742671360,23589,-4134,12271
653328605750109696,23539,-4158,12342
653328605757548032,23504,-3053,12331
653328605764986368,23401,-3589,12353
653328605772424704,23512,-3787,12452
653328605779909467,23319,-4070,12770
653328605787345072,24439,-2924,13690
653328605794780677,23840,-3489,13064
653328605802216282,23607,-3737,12900
653328605809651887,23611,-3969,12821
653328605817087492,24523,-4008,13173
653328605824523097,23876,-4049,12976
653328605831958702,23607,-3965,12916
653328605839394307,23481,-4005,12951
653328605846829912,23412,-4049,12851
653328605854265517,23415,-3984,12848
653328605861701122,23386,-3948,12753
653328605869136727,23356,-4117,12674
653328605876572332,23372,-4022,12624
653328605884007937,23317,-3975,12738
653328605891443542,23296,-3986,12783
653328605898879147,23349,-3925,12903
653328605906314752,23365,-3885,12820
653328605913734893,23291,-4125,12831
653328605921171408,23324,-3962,12852
653328605928607923,23373,-3879,12850
653328605936044438,23492,-3843,12888
653328605943480953,23551,-3847,12982
653328605950917468,23558,-3907,13023
653328605958353983,23399,-3888,12900
653328605965790498,23402,-3952,13002
653328605973227013,23472,-3940,12982
653328605980663528,23434,-3962,12987
653328605988100043,23381,-3895,12997
653328605995536558,23420,-3860,13046
653328606002973073,23471,-3975,13018
653328606010409588,23422,-3990,12962
653328606017846103,23386,-3906,12907
653328606025282618,23329,-3886,12978
653328606032719133,23341,-3996,13078
653328606040155648,23292,-3918,13270
653328606047607643,23415,-3812,13575
653328606055043248,23439,-3825,13548
653328606062478853,23493,-3861,13435
653328606069914458,23497,-3917,13392
653328606077350063,23508,-3887,13287
653328606084785668,23447,-3888,13164
653328606092221273,23508,-3895,13110
653328606099656878,23464,-3972,13121
653328606107092483,23491,-2790,14181
653328606114528088,23534,-3356,13515
653328606121963693,23496,-3546,13451
653328606129399298,23595,-3549,13439
653328606136834903,24661,-2888,14611
653328606144270508,24095,-3189,14138
653328606151706113,23858,-3475,13923
653328606159141718,23598,-3607,13855
653328606166577323,23652,-3590,13846
653328606174012928,23590,-3435,13948
653328606181433069,23345,-3776,13967
653328606188869584,23361,-3617,14008
653328606196306099,23355,-3577,14097
653328606203742614,23341,-3626,14260
653328606211179129,23433,-3751,14260
653328606218615644,23295,-3761,14178
653328606226052159,23170,-3872,14254
653328606233488674,23228,-3932,14241
653328606240925189,23215,-3944,14196
653328606248361704,23284,-4053,14208
653328606255798219,23144,-3968,14217
653328606263234734,23092,-4017,14275
653328606270671249,23034,-4180,14182
653328606278107764,22949,-4263,14115
653328606285544279,23034,-4371,14173
653328606292980794,22892,-4290,14112
653328606300417309,22833,-4350,14051
653328606307853824,22827,-4400,14096
653328606315290349,22432,-4332,13930
653328606322726864,22515,-4391,13916
653328606330163379,22544,-4511,14063
653328606337599894,22528,-4560,13862
653328606345036409,22503,-4586,13965
653328606352472924,22449,-4697,13989
653328606359909439,22466,-4702,13834
653328606367345954,22433,-4731,13867
653328606374782469,22397,-4713,13754
653328606382218984,22477,-4738,13931
653328606389655499,22443,-4734,13883
653328606397092014,22446,-4797,13846
653328606404528529,22258,-4888,13820
653328606411965044,22374,-4854,13916
653328606419401559,22471,-4767,13873
653328606426838074,22438,-3742,14544
653328606434274589,22432,-4252,14079
653328606441711104,22396,-4568,13862
653328606449194056,22227,-4210,13623
653328606456627840,23421,-3552,14812
653328606464061624,22854,-4076,14339
653328606471495408,22601,-4418,14054
653328606478929192,22409,-4611,14207
653328606486362976,23412,-4707,14119
653328606493796760,22759,-4706,14355
653328606501230544,22639,-4803,14341
653328606508664328,22509,-4787,14342
653328606516098112,22458,-4764,14371
653328606523531896,22331,-4834,14388
653328606530965680,22182,-4865,14361
653328606538399464,22202,-4996,14270
653328606545833248,22324,-4980,14387
653328606553267032,22297,-4875,14472
653328606560700816,22305,-4852,14504
653328606568134600,22255,-4856,14396
653328606575568384,22327,-4807,14454
653328606582893860,22226,-4879,14757
653328606590334016,22253,-4988,14653
653328606597774172,22178,-4943,14593
653328606605214328,22263,-4869,14685
653328606612654484,22246,-4860,14769
653328606620094640,22217,-4891,14910
653328606627534796,22272,-5006,14921
653328606634974952,22264,-4920,15037
653328606642415108,22201,-4948,15037
653328606649855264,22167,-4972,15026
653328606657295420,22114,-4958,15008
653328606664735576,22183,-4953,15060
653328606672175732,22138,-4973,15221
653328606679615888,22154,-4921,15265
653328606687056044,22200,-4974,15277
653328606694496200,22117,-5015,15246
653328606701936356,22151,-4951,15316
653328606709376512,22249,-4871,15366
653328606716955940,22374,-4739,15247
653328606724387904,22336,-4810,15373
653328606731819868,22340,-4871,15421
653328606739251832,22309,-4965,15418
653328606746683796,22324,-4861,15410
653328606754115760,22329,-4920,15425
653328606761547724,22280,-4912,15465
653328606768979688,22334,-4917,15429
653328606776411652,22732,-3880,16470
653328606783843616,22614,-4347,15954
653328606791275580,22464,-4674,15772
653328606798707544,22484,-4688,15619
653328606806139508,23568,-4295,16509
653328606813571472,23011,-4545,15971
653328606821003436,22765,-4646,15767
653328606828435400,22650,-4749,15455
653328606835867364,22603,-4802,15391
653328606843299328,22475,-4843,15363
653328606850592036,22765,-4982,15292
653328606858032192,22629,-4884,15356
653328606865472348,22696,-4798,15335
653328606872912504,22795,-4659,15431
653328606880352660,22762,-4655,15496
653328606887792816,22838,-4635,15507
653328606895232972,22853,-4669,15349
653328606902673128,22816,-4682,15409
653328606910113284,22882,-4581,15395
653328606917553440,22882,-4555,15334
653328606924993596,22939,-4388,15464
653328606932433752,23048,-4385,15348
653328606939873908,23019,-4429,15397
653328606947314064,23083,-4486,15468
653328606954754220,23136,-4354,15561
653328606962194376,23060,-4424,15412
653328606969634532,22973,-4504,15379
653328606977074688,23072,-4357,15397
653328606984623176,23164,-4349,15239
653328606992056960,23226,-4278,15291
653328606999490744,23315,-4433,15344
653328607006924528,23141,-4311,15264
653328607014358312,23234,-4251,15246
653328607021792096,23321,-4020,15327
653328607029225880,23331,-4118,15294
653328607036659664,23399,-4042,15310
653328607044093448,23380,-4057,15200
653328607051527232,23397,-4029,15353
653328607058961016,23375,-4033,15380
653328607066394800,23502,-4130,15292
653328607073828584,23570,-4008,15312
653328607081262368,23548,-3996,15249
653328607088696152,23530,-3929,15314
653328607096129936,23535,-3058,16209
653328607103563720,23496,-3610,15512
653328607110997504,23495,-3930,15199
653328607118384877,23507,-4120,14851
653328607125821392,24393,-3118,15772
653328607133257907,23790,-3770,15097
653328607140694422,23427,-4149,14721
653328607148130937,23168,-4353,14448
653328607155567452,24072,-4504,14287
653328607163003967,23428,-4575,14012
653328607170440482,23142,-4617,13954
653328607177876997,22964,-4652,13900
653328607185313512,22891,-4709,13880
653328607192750027,22925,-4763,13645
653328607200186542,22841,-4740,13596
653328607207623057,23081,-4838,13722
653328607215059572,22985,-4905,13577
653328607222496087,22978,-4918,13551
653328607229932602,22885,-4924,13443
653328607237369117,22848,-5048,13249
653328607244805632,22815,-5020,13191
653328607252226687,22869,-5139,12836
653328607259664112,22679,-5109,12775
653328607267101537,22688,-5000,12776
653328607274538962,22712,-4891,12781
653328607281976387,22717,-4891,12563
653328607289413812,22804,-4983,12581
653328607296851237,22679,-4961,12441
653328607304288662,22741,-5005,12407
653328607311726087,22875,-4896,12255
653328607319163512,22665,-4946,12126
653328607326600937,22651,-4997,12138
653328607334038362,22654,-4995,11888
653328607341475787,22520,-5006,11822
653328607348913212,22717,-4905,11754
653328607356350637,22747,-5038,11813
653328607363788062,22649,-4992,11787
653328607371225487,22745,-4927,11696
653328607378662912,22784,-4913,11524
653328607386115821,22567,-5076,11366
653328607393552336,22553,-4947,11477
653328607400988851,22687,-4934,11528
653328607408425366,22798,-4893,11394
653328607415861881,22813,-4077,11458
653328607423298396,22829,-4508,11342
653328607430734911,22728,-4603,11385
653328607438171426,22865,-4736,11432
653328607445607941,23939,-3638,12406
653328607453044456,23322,-4319,11719
653328607460480971,23029,-4496,11470
653328607467917486,22904,-4633,11402
653328607475354001,23900,-4678,12309
653328607482790516,23330,-4693,11681
653328607490227031,23074,-4676,11504
653328607497663546,22865,-4784,11263
653328607505100061,22874,-4763,11216
653328607512536576,22818,-4740,11278
653328607519957631,23145,-4531,11466
653328607527395056,23065,-4731,11273
653328607534832481,22986,-4671,11259
653328607542269906,23100,-4603,11213
653328607549707331,23021,-4634,11161
653328607557144756,23009,-4471,11238
653328607564582181,23014,-4464,11128
653328607572019606,23109,-4350,11120
653328607579457031,23121,-4339,11182
653328607586894456,23158,-4403,11251
653328607594331881,23262,-4099,11285
653328607601769306,23274,-4179,11296
653328607609206731,23290,-4163,11144
653328607616644156,23312,-4276,11229
653328607624081581,23396,-4210,11292
653328607631519006,23350,-4190,11279
653328607638956431,23228,-4160,11295
653328607646393856,23159,-4161,11377
653328607653846765,23573,-4235,11576
653328607661283280,23774,-4357,11693
653328607668719795,23624,-4074,11573
653328607676156310,23583,-4089,11570
653328607683592825,23485,-4060,11610
653328607691029340,23589,-3941,11718
653328607698465855,23563,-3976,11799
653328607705902370,23602,-3842,11805
653328607713338885,23601,-3854,11751
653328607720775400,23696,-3759,11851
653328607728211915,23674,-3761,11855
653328607735648430,23544,-3732,11799
653328607743084945,23753,-3478,12054
653328607750521460,23727,-3449,12032
653328607757957975,23666,-3510,12022
653328607765394490,23845,-2318,13061
653328607772831005,23893,-2867,12537
653328607780267520,23753,-3188,12410
653328607787719515,24056,-3491,12566
653328607795155120,25126,-2243,13673
653328607802590725,24547,-2760,13032
653328607810026330,24240,-3024,12787
653328607817461935,24041,-3008,12518
653328607824897540,25158,-2969,12533
653328607832333145,24572,-2895,12665
653328607839768750,24297,-2880,12612
653328607847204355,24308,-2776,12620
653328607854639960,24250,-2840,12705
653328607862075565,24260,-2780,12825
653328607869511170,24285,-2811,12780
653328607876946775,24286,-2755,12871
653328607884382380,24194,-2728,12878
653328607891817985,24243,-2730,12970
653328607899253590,24205,-2619,13195
653328607906689195,24290,-2615,13249
653328607914124800,24343,-2470,13354
653328607921544941,24475,-2552,13489
653328607928981456,24475,-2429,13400
653328607936417971,24267,-2446,13372
653328607943854486,24508,-2334,13395
653328607951291001,24621,-2381,13560
653328607958727516,24536,-2250,13616
653328607966164031,24641,-2309,13656
653328607973600546,24740,-2326,13709
653328607981037061,24636,-2200,13749
653328607988473576,24653,-2278,13685
653328607995910091,24565,-2240,13677
653328608003346606,24583,-2174,13725
653328608010783121,24657,-2337,13822
653328608018219636,24488,-2325,13793
653328608025656151,24446,-2404,13837
653328608033092666,24388,-2438,13771
653328608040529181,24338,-2469,13800
653328608047965696,24245,-2627,13699
653328608055402221,24358,-2971,13662
653328608062838736,24180,-2821,13667
653328608070275251,24087,-2833,13508
653328608077711766,24070,-2927,13357
653328608085148281,23938,-2050,13270
653328608092584796,23909,-2614,13067
653328608100021311,23768,-2842,13069
653328608107457826,23773,-2983,12976
653328608114894341,24682,-2067,13827
653328608122330856,24030,-2770,13175
653328608129767371,23725,-3173,12907
653328608137203886,23538,-3342,12875
653328608144640401,24507,-3441,13285
653328608152076916,23899,-3481,12884
653328608159513431,23518,-3511,12593
653328608166949946,23314,-3504,12549
653328608174386461,23059,-3659,12265
653328608181822976,23095,-3641,12158
653328608189336868,23020,-3792,12508
653328608196768832,22945,-3793,12124
653328608204200796,22920,-3764,12048
653328608211632760,22848,-3757,12033
653328608219064724,22806,-3759,11984
653328608226496688,22884,-3764,11926
653328608233928652,22800,-3946,11804
653328608241360616,22769,-3885,11756
653328608248792580,22776,-3932,11754
653328608256224544,22776,-3982,11518
653328608263656508,22819,-3873,11431
653328608271088472,22714,-3851,11507
653328608278520436,22667,-4001,11411
653328608285952400,22656,-4009,11507
653328608293384364,22704,-3987,11564
653328608300816328,22566,-4035,11442
653328608308248292,22464,-4130,11418
653328608315680256,22499,-4074,11454
653328608322972964,22379,-4223,11487
653328608330413120,22421,-4235,11520
653328608337853276,22364,-4242,11194
653328608345293432,22417,-4237,11335
653328608352733588,22228,-4245,11286
653328608360173744,22199,-4241,11293
653328608367613900,22217,-4268,11281
653328608375054056,22131,-4228,11183
653328608382494212,22225,-4258,11255
653328608389934368,22167,-4281,11125
653328608397374524,22064,-4321,11175
653328608404814680,22058,-4325,11146
653328608412254836,22058,-4363,11043
653328608419694992,22012,-4412,10934
653328608427135148,22019,-4405,10846
653328608434575304,22079,-3337,11932
653328608442015460,22033,-4036,11322
653328608449455616,21931,-4222,11015
653328608457019574,21669,-4331,11152
653328608464452448,22854,-3322,12087
653328608471885322,22394,-4031,11467
653328608479318196,22160,-4168,11219
653328608486751070,21956,-4258,10998
653328608494183944,22667,-4336,10857
653328608501616818,22177,-4412,10778
653328608509049692,22012,-4410,10718
653328608516482566,21909,-4401,10613
653328608523915440,21864,-4425,10572
653328608531348314,21815,-4426,10610
653328608538781188,21920,-4422,10640
653328608546214062,21919,-4442,10624
653328608553646936,21880,-4445,10571
653328608561079810,22030,-4371,10655
653328608568512684,21920,-4395,10635
653328608575945558,21949,-4410,10533
653328608583378432,21950,-4368,10590
653328608590702994,21917,-4538,10820
653328608598142240,21824,-4491,10634
653328608605581486,21854,-4515,10740
653328608613020732,21956,-4389,10698
653328608620459978,21883,-4443,10477
653328608627899224,21755,-4456,10384
653328608635338470,21841,-4356,10613
653328608642777716,21623,-4456,10556
653328608650216962,21613,-4457,10502
653328608657656208,21670,-4555,10498
653328608665095454,21713,-4440,10514
653328608672534700,21803,-4365,10462
653328608679973946,21724,-4440,10436
653328608687413192,21739,-4381,10494
653328608694852438,21809,-4364,10499
653328608702291684,21827,-4432,10513
653328608709730930,21917,-4310,10583
653328608717170176,21848,-4390,10525
653328608724686793,21985,-4353,10725
653328608732121488,21841,-4279,10634
653328608739556183,21846,-4322,10532
653328608746990878,21820,-4355,10466
653328608754425573,21931,-3235,10738
653328608761860268,21984,-3856,10623
653328608769294963,21953,-4117,10524
653328608776729658,21980,-4176,10583
653328608784164353,23001,-3097,11628
653328608791599048,22332,-3845,10959
653328608799033743,22038,-4038,10819
653328608806468438,21969,-4270,10597
653328608813903133,23049,-4210,10636
653328608821337828,22499,-4212,10607
653328608828772523,22155,-4206,10567
653328608836207218,22082,-4232,10470
653328608843641913,21999,-4141,10524
653328608851076608,22135,-4120,10533
653328608858495835,21841,-4202,10334
653328608865931440,22037,-4087,10331
653328608873367045,22019,-4119,10383
653328608880802650,22162,-4003,10422
653328608888238255,22167,-3957,10518
653328608895673860,22183,-3971,10360
653328608903109465,22202,-3918,10512
653328608910545070,22181,-4009,10598
653328608917980675,22017,-3976,10640
653328608925416280,22001,-4014,10613
653328608932851885,22127,-3985,10695
653328608940287490,22052,-4073,10506
653328608947723095,21823,-4253,10288
653328608955158700,21891,-4266,10224
653328608962594305,21829,-4358,10335
653328608970029910,21772,-4373,10142
653328608977465515,21631,-4503,9892
653328608984901120,21570,-4606,9798
653328608992321261,21426,-4778,9961
653328608999757776,21402,-4867,9740
653328609007194291,21284,-4966,9638
653328609014630806,21193,-5008,9503
653328609022067321,21178,-5125,9341
653328609029503836,21121,-5115,9295
653328609036940351,21029,-5311,9224
653328609044376866,21015,-5245,9109
653328609051813381,20863,-5372,9033
653328609059249896,20604,-5433,8880
653328609066686411,20621,-5529,8919
653328609074122926,20530,-5543,8796
653328609081559441,20418,-5682,8783
653328609088995956,20420,-5760,8698
653328609096432471,20384,-5830,8607
653328609103868986,20710,-4748,9702
653328609111305501,20407,-5447,8878
653328609118742016,20279,-5699,8586
653328609126194011,19958,-6152,8642
653328609133629616,21050,-5967,9522
653328609141065221,20253,-5986,8908
653328609148500826,20062,-6055,8419
653328609155936431,19782,-6194,8241
653328609163372036,19657,-6255,8134
653328609170807641,19513,-6217,8090
653328609178243246,19445,-6578,8014
653328609185678851,19350,-6614,7970
653328609193114456,19392,-6630,7860
653328609200550061,19373,-6491,7947
653328609207985666,19421,-6492,7995
653328609215421271,19311,-6457,7840
653328609222856876,19244,-6457,7876
653328609230292481,19192,-6564,7959
653328609237728086,19225,-6619,7953
653328609245163691,19198,-6675,7974
653328609252599296,19153,-6666,7995
653328609260050377,19103,-6837,7577
653328609267485072,19034,-6845,7705
653328609274919767,19017,-6850,7746
653328609282354462,19009,-6822,7788
653328609289789157,18791,-6907,7686
653328609297223852,18754,-6972,7747
653328609304658547,18654,-6958,7732
653328609312093242,18677,-7033,7679
653328609319527937,18588,-7049,7674
653328609326962632,18838,-7093,7657
653328609334397327,18777,-7073,7663
653328609341832022,18601,-7032,7545
653328609349266717,18690,-7216,7627
653328609356701412,18503,-7111,7548
653328609364136107,18438,-7190,7629
653328609371570802,18371,-7207,7690
653328609379005497,18229,-7209,7588
653328609386440192,18234,-7289,7542
653328609393859419,18544,-7408,7667
653328609401295024,18465,-7431,7603
653328609408730629,18294,-7295,7636
653328609416166234,18183,-7364,7503
653328609423601839,18202,-6247,8709
653328609431037444,18242,-6858,8241
653328609438473049,18194,-7090,8007
653328609445908654,18030,-7420,7735
653328609453344259,19107,-6426,8822
653328609460779864,18489,-6899,8182
653328609468215469,18228,-7153,8004
653328609475651074,18054,-7327,7883
653328609483086679,19050,-7481,7979
653328609490522284,18381,-7547,7839
653328609497957889,18074,-7551,7785
653328609505393494,17853,-7597,7789
653328609512829099,17729,-7640,7781
653328609520264704,17862,-7551,7880
653328609527684845,17520,-7838,8097
653328609535121360,17633,-7756,7975
653328609542557875,17612,-7661,7923
653328609549994390,17533,-7710,7801
653328609557430905,17682,-7582,8038
653328609564867420,17710,-7607,8073
653328609572303935,17788,-7527,8158
653328609579740450,17665,-7566,8166
653328609587176965,17651,-7720,8175
653328609594613480,17729,-7703,8249
653328609602049995,17796,-7597,8246
653328609609486510,17701,-7590,8205
653328609616923025,17765,-7660,8352
653328609624359540,17717,-7651,8403
653328609631796055,17781,-7606,8329
653328609639232570,17819,-7627,8370
653328609646669085,17725,-7579,8435
653328609654105600,17683,-7669,8552
653328609661604022,17279,-7640,8411
653328609669036896,17494,-7636,8365
653328609676469770,17524,-7837,8484
653328609683902644,17680,-7762,8464
653328609691335518,17682,-7787,8695
653328609698768392,17740,-7776,8673
653328609706201266,17635,-7575,8577
653328609713634140,17632,-7576,8732
653328609721067014,17651,-7531,8716
653328609728499888,17750,-7547,8753
653328609735932762,17585,-7575,8838
653328609743365636,17616,-6589,8963
653328609750798510,17717,-7150,9024
653328609758231384,17586,-7349,9043
653328609765664258,17541,-7453,8952
653328609773097132,18726,-6397,10171
653328609780530006,18144,-6966,9636
653328609787962880,18008,-7181,9360
653328609795287442,18116,-7519,9443
653328609802726688,19001,-7346,10258
653328609810165934,18353,-7261,9967
653328609817605180,18074,-7268,9909
653328609825044426,17901,-7242,9894
653328609832483672,17843,-7276,9959
653328609839922918,17859,-7220,9956
653328609847362164,17843,-7187,9915
653328609854801410,17669,-7290,9908
653328609862240656,17694,-7393,10140
653328609869679902,17614,-7331,10162
653328609877119148,17579,-7445,10187
653328609884558394,17563,-7479,10113
653328609891997640,17428,-7488,10037
653328609899436886,17278,-7666,9890
653328609906876132,17228,-7810,9887
653328609914315378,17193,-7977,9768
653328609921754624,17156,-7948,9678
653328609929302198,16760,-7825,9389
653328609936735072,16730,-8067,9327
653328609944167946,16673,-8290,9324
653328609951600820,16828,-8257,9236
653328609959033694,16707,-8420,9052
653328609966466568,16565,-8390,9070
653328609973899442,16465,-8540,9073
653328609981332316,16350,-8580,9001
653328609988765190,16355,-8537,8971
653328609996198064,16302,-8606,8742
653328610003630938,16298,-8583,8715
653328610011063812,16330,-8492,8691
653328610018496686,16268,-8577,8562
653328610025929560,16127,-8594,8459
653328610033362434,16145,-8673,8409
653328610040795308,15999,-8653,8388
653328610048228182,15994,-8805,8173
653328610055661056,16057,-8757,8255
653328610062985618,15984,-9017,8258
653328610070424864,15992,-8932,8232
653328610077864110,15849,-8767,8071
653328610085303356,15802,-8892,7941
653328610092742602,15888,-7871,9018
653328610100181848,15761,-8429,8250
653328610107621094,15709,-8775,8014
653328610115060340,15720,-8935,7939
653328610122499586,16674,-7914,8829
653328610129938832,16025,-8522,8316
653328610137378078,15718,-8739,8088
653328610144817324,15520,-8968,7928
653328610152256570,16486,-8964,8142
653328610159695816,15921,-9004,8161
653328610167135062,15575,-9052,8111
653328610174574308,15349,-8969,8093
653328610182013554,15352,-9090,8194
653328610189452800,15290,-9201,8152
653328610196938477,15136,-9393,7929
653328610204374992,15174,-9253,7925
653328610211811507,15165,-9344,7941
653328610219248022,15208,-9323,7894
653328610226684537,15130,-9353,7865
653328610234121052,15139,-9272,7752
653328610241557567,15200,-9129,7606
653328610248994082,15142,-9116,7476
653328610256430597,15246,-9146,7496
653328610263867112,15293,-9084,7460
653328610271303627,15366,-8966,7382
653328610278740142,15415,-8937,7297
653328610286176657,15347,-8911,7138
653328610293613172,15323,-8940,7106
653328610301049687,15427,-8869,7014
653328610308486202,15344,-9020,6952
653328610315922717,15433,-8913,7031
653328610323359232,15460,-8921,6897
653328610330811227,15288,-8934,7256
653328610338246832,15482,-8851,7111
653328610345682437,15374,-8762,7021
653328610353118042,15393,-8742,7030
653328610360553647,15546,-8628,7029
653328610367989252,15565,-8590,6961
653328610375424857,15688,-8616,7149
653328610382860462,15580,-8627,7072
653328610390296067,15530,-8532,7134
653328610397731672,15595,-8542,7178
653328610405167277,15629,-8541,7179
653328610412602882,15712,-7583,7243
653328610420038487,15599,-8148,7150
653328610427474092,15652,-8348,7138
653328610434909697,15685,-8316,7262
653328610442345302,16847,-7216,8406
653328610449780907,16358,-7791,7783
653328610457216512,16022,-8115,7384
653328610464636653,15979,-8266,7546
653328610472073168,17001,-8185,8163
653328610479509683,16326,-8268,7626
653328610486946198,16240,-8283,7509
653328610494382713,15985,-8266,7406
653328610501819228,15903,-8310,7271
653328610509255743,16047,-8175,7357
653328610516692258,16107,-8117,7473
653328610524128773,16115,-8188,7454
653328610531565288,16121,-8087,7358
653328610539001803,16079,-8155,7321
653328610546438318,16229,-7992,7603
653328610553874833,16205,-7973,7425
653328610561311348,16253,-7772,7463
653328610568747863,16330,-7723,7453
653328610576184378,16350,-7687,7553
653328610583620893,16407,-7706,7641
653328610591057408,16554,-7584,7615
653328610598524873,16711,-7906,7654
653328610605959568,16495,-7711,7539
653328610613394263,16474,-7686,7556
653328610620828958,16596,-7716,7725
653328610628263653,16629,-7619,7763
653328610635698348,16619,-7432,7767
653328610643133043,16626,-7359,7778
653328610650567738,16885,-7385,7861
653328610658002433,16832,-7345,7777
653328610665437128,16851,-7191,7785
653328610672871823,16930,-7201,7874
653328610680306518,16967,-7174,7900
653328610687741213,17105,-7094,7935
653328610695175908,17120,-7020,7896
653328610702610603,17036,-7063,7819
653328610710045298,17190,-6956,7970
653328610717479993,17291,-7042,8039
653328610724914688,17329,-7000,8140
653328610732333915,17617,-7150,8043
653328610739769520,17506,-7040,8084
653328610747205125,17456,-6955,8114
653328610754640730,17529,-6810,8233
653328610762076335,17457,-5762,9311
653328610769511940,17424,-6392,8718
653328610776947545,17360,-6799,8372
653328610784383150,17286,-6914,8219
653328610791818755,18283,-5927,9139
653328610799254360,17499,-6584,8378
653328610806689965,17321,-6856,8059
653328610814125570,17148,-7109,7819
653328610821561175,17661,-7131,7672
653328610828996780,17074,-7257,7628
653328610836432385,16995,-7337,7479
653328610843867990,16863,-7294,7474
653328610851303595,16868,-7322,7326
653328610858739200,16626,-7397,7289
653328610866159341,16848,-7692,7479
653328610873595856,16708,-7547,7292
653328610881032371,16570,-7446,7118
653328610888468886,16482,-7525,7072
653328610895905401,16497,-7575,7044
653328610903341916,16577,-7529,7127
653328610910778431,16648,-7641,7191
653328610918214946,16465,-7607,7193
653328610925651461,16372,-7552,7172
653328610933087976,16323,-7581,7023
653328610940524491,16406,-7463,7049
653328610947961006,16381,-7574,7100
653328610955397521,16333,-7637,6901
653328610962834036,16367,-7617,6996
653328610970270551,16299,-7593,6948
653328610977707066,16239,-7643,6871
653328610985143581,16291,-7608,6972
653328610992580096,16277,-7613,6963
