timestamp ecg,
653329807548303335,14133
653329807555980284,14091
653329807563657233,14035
653329807571334182,13926
653329807579011131,13831
653329807586688080,13795
653329807594365029,13751
653329807602041978,13695
653329807609718927,13632
653329807617395876,13547
653329807625072825,13445
653329807632749774,13360
653329807640426723,13295
653329807648103672,13222
653329807655780621,13137
653329807663457570,13054
653329807671134519,12967
653329807678811468,12899
653329807686488417,12848
653329807694165366,12743
653329807701842315,12617
653329807709519264,12537
653329807717196213,12464
653329807724873162,12371
653329807732550111,12284
653329807740227060,12211
653329807747904009,12131
653329807755580958,12022
653329807763257907,11915
653329807770934856,11822
653329807778611805,11742
653329807786288754,11674
653329807793965703,11592
653329807801642652,11477
653329807809319601,11373
653329807816996550,11293
653329807824673499,11220
653329807832350448,11133
653329807840027397,11030
653329807847704346,10933
653329807855381295,10856
653329807863058244,10773
653329807870735193,10666
653329807878412142,10557
653329807886089091,10479
653329807893766040,10401
653329807901442989,10297
653329807909119938,10190
653329807916796887,10086
653329807924473836,10018
653329807932150785,10112
653329807939827734,10358
653329807947504683,10479
653329807955181632,10132
653329807962858581,9512
653329807970535530,9296
653329807978212479,9427
653329807985889428,9366
653329807993566377,9179
653329808001243326,9099
653329808008920275,9043
653329808016597224,8944
653329808024274173,8866
653329808031951122,8808
653329808039628071,8723
653329808047305020,8633
653329808054981969,8572
653329808062658918,8502
653329808070335867,8395
653329808078012816,8305
653329808085689765,8242
653329808093366714,8169
653329808101043663,8094
653329808108705580,8030
653329808116382738,7960
653329808124059896,7885
653329808131737054,7824
653329808139414212,7775
653329808147091370,7715
653329808154768528,7651
653329808162445686,7610
653329808170122844,7571
653329808177800002,7515
653329808185477160,7430
653329808193154318,7324
653329808200831476,7241
653329808208508634,7163
653329808216185792,7030
653329808223862950,6879
653329808231540108,6777
653329808239217266,6677
653329808246894424,6549
653329808254571582,6454
653329808262248740,6383
653329808269925898,6301
653329808277603056,6238
653329808285280214,6179
653329808292957372,6104
653329808300634530,6041
653329808308311688,5992
653329808315988846,5932
653329808323666004,5868
653329808331343162,5808
653329808339020320,5749
653329808346697478,5698
653329808354374636,5650
653329808362051794,5589
653329808369728952,5526
653329808377406110,5475
653329808385083268,5421
653329808392760426,5361
653329808400437584,5300
653329808408114742,5244
653329808415791900,5193
653329808423469058,5140
653329808431146216,5079
653329808438823374,5021
653329808446500532,4967
653329808454177690,4916
653329808461854848,4860
653329808469532006,4807
653329808477209164,4761
653329808484886322,4717
653329808492563480,4651
653329808500240638,4586
653329808507917796,4542
653329808515594954,4496
653329808523272112,4445
653329808530949270,4401
653329808538626428,4353
653329808546303586,4299
653329808553980744,4255
653329808561657902,4221
653329808569335060,4185
653329808577012218,4132
653329808584689376,4078
653329808592366534,4032
653329808600043692,3976
653329808607720850,3920
653329808615398008,3884
653329808623075166,3845
653329808630752324,3801
653329808638429482,3757
653329808646106640,3702
653329808653783798,3641
653329808661460956,3719
653329808669138131,4003
653329808676815289,4282
653329808684492447,4151
653329808692169605,3570
653329808699846763,3208
653329808707523921,3349
653329808715201079,3413
653329808722878237,3259
653329808730555395,3221
653329808738232553,3230
653329808745909711,3160
653329808753586869,3114
653329808761264027,3104
653329808768941185,3070
653329808776618343,3036
653329808784295501,3019
653329808791972659,2992
653329808799649817,2961
653329808807326975,2936
653329808815004133,2907
653329808822681291,2876
653329808830358449,2859
653329808838035607,2837
653329808845712765,2808
653329808853389923,2783
653329808861067081,2774
653329808868744239,2766
653329808876421397,2757
653329808884098555,2742
653329808891775713,2725
653329808899452871,2713
653329808907130029,2698
653329808914807187,2669
653329808922484345,2642
653329808930161503,2613
653329808937838661,2570
653329808945515819,2502
653329808953192977,2409
653329808960870135,2317
653329808968547293,2249
653329808976224451,2191
653329808983901609,2132
653329808991578767,2096
653329808999255925,2069
653329809006933083,2042
653329809014610241,2023
653329809022287399,2013
653329809029964557,1994
653329809037641715,1970
653329809045318873,1955
653329809052996031,1933
653329809060673189,1909
653329809068350347,1889
653329809076027505,1870
653329809083704663,1843
653329809091381821,1826
653329809099058979,1812
653329809106736137,1792
653329809114413295,1775
653329809122090453,1756
653329809129767611,1734
653329809137444769,1712
653329809145121927,1698
653329809152799085,1685
653329809160476243,1661
653329809168153401,1639
653329809175830559,1620
653329809183507717,1600
653329809191184875,1576
653329809198862033,1557
653329809206539191,1535
653329809214216349,1513
653329809221893507,1486
653329809229585732,1455
653329809237262681,1428
653329809244939630,1416
653329809252616579,1401
653329809260293528,1382
653329809267970477,1365
653329809275647426,1345
653329809283324375,1328
653329809291001324,1316
653329809298678273,1294
653329809306355222,1265
653329809314032171,1248
653329809321709120,1246
653329809329386069,1246
653329809337063018,1243
653329809344739967,1238
653329809352416916,1241
653329809360093865,1226
653329809367770814,1195
653329809375447763,1178
653329809383124712,1183
653329809390801661,1180
653329809398478610,1173
653329809406155559,1161
653329809413832508,1134
653329809421509457,1127
653329809429186406,1292
653329809436863355,1639
653329809444540304,1877
653329809452217253,1622
653329809459894202,1049
653329809467571151,872
653329809475248100,1078
653329809482925049,1085
653329809490601998,971
653329809498278947,995
653329809505955896,1015
653329809513632845,974
653329809521309794,966
653329809528986743,981
653329809536663692,976
653329809544340641,964
653329809552017590,957
653329809559694539,952
653329809567371488,952
653329809575048437,937
653329809582725386,918
653329809590402335,913
653329809598079284,918
653329809605756233,913
653329809613433182,913
653329809621110131,920
653329809628787080,930
653329809636464029,940
653329809644140978,949
653329809651817927,961
653329809659494876,976
653329809667171825,991
653329809674848774,998
653329809682525723,1000
653329809690202672,995
653329809697879621,978
653329809705556570,947
653329809713233519,891
653329809720910468,818
653329809728587417,755
653329809736264366,704
653329809743941315,665
653329809751618264,636
653329809759295213,619
653329809766972162,614
653329809774649111,612
653329809782326060,607
653329809790003025,602
653329809797679974,600
653329809805356923,604
653329809813033872,607
653329809820710821,597
653329809828387770,583
653329809836064719,578
653329809843741668,583
653329809851418617,583
653329809859095566,575
653329809866772515,573
653329809874449464,573
653329809882126413,570
653329809889803362,568
653329809897480311,563
653329809905157260,558
653329809912834209,556
653329809920511158,551
653329809928188107,541
653329809935865056,536
653329809943542005,534
653329809951218954,527
653329809958895903,514
653329809966572852,505
653329809974249801,505
653329809981926750,502
653329809989603699,502
653329809997280648,500
653329810004957597,493
653329810012634546,488
653329810020311495,488
653329810027988444,488
653329810035665393,478
653329810043342342,473
653329810051019291,473
653329810058696240,471
653329810066373189,468
653329810074050138,463
653329810081727087,449
653329810089404036,439
653329810097080985,442
653329810104757934,439
653329810112434883,429
653329810120111832,427
653329810127788781,429
653329810135465730,437
653329810143142679,439
653329810150819628,437
653329810158496577,439
653329810166173526,432
653329810173850475,410
653329810181527424,400
653329810189204373,405
653329810196881322,403
653329810204558271,388
653329810212235220,381
653329810219912169,369
653329810227589118,357
653329810235266067,451
653329810242943016,743
653329810250619965,1068
653329810258296914,1025
653329810265973863,497
653329810273650812,126
653329810281327761,272
653329810289004710,393
653329810296681659,286
653329810304358608,274
653329810312035557,330
653329810319712506,310
653329810327389455,296
653329810335066404,318
653329810342743353,323
653329810350420318,318
653329810358097267,325
653329810365774216,332
653329810373451165,335
653329810381128114,332
653329810388805063,327
653329810396482012,335
653329810404158961,344
653329810411835910,349
653329810419512859,354
653329810427189808,361
653329810434866757,374
653329810442543706,391
653329810450220655,400
653329810457897604,412
653329810465574553,429
653329810473251502,444
653329810480928451,456
653329810488605400,468
653329810496282349,468
653329810503959298,466
653329810511636247,451
653329810519313196,410
653329810526990145,349
653329810534667094,291
653329810542344043,242
653329810550020992,201
653329810557697941,172
653329810565374890,157
653329810573051839,150
653329810580728788,150
653329810588405737,148
653329810596082686,140
653329810603759635,148
653329810611436584,160
653329810619113533,165
653329810626790482,172
653329810634467431,179
653329810642144380,187
653329810649821329,187
653329810657498278,191
653329810665175227,194
653329810672852176,194
653329810680529125,196
653329810688206074,201
653329810695883023,196
653329810703559972,189
653329810711236921,189
653329810718913870,196
653329810726590819,196
653329810734267768,194
653329810741944717,194
653329810749621666,194
653329810757298615,194
653329810764975564,196
653329810772652513,196
653329810780329462,194
653329810788006411,194
653329810795683360,196
653329810803360309,196
653329810811037258,194
653329810818714207,196
653329810826391156,201
653329810834068105,191
653329810841745054,184
653329810849422003,182
653329810857098952,184
653329810864775901,184
653329810872452850,182
653329810880129799,179
653329810887806748,177
653329810895483697,179
653329810903160646,179
653329810910837611,174
653329810918514560,172
653329810926191509,172
653329810933868458,167
653329810941545407,162
653329810949222356,160
653329810956899305,160
653329810964576254,162
653329810972253203,153
653329810979930152,145
653329810987607101,153
653329810995284050,160
653329811002960999,170
653329811010637948,165
653329811018314897,138
653329811025991846,126
653329811033668795,138
653329811041345744,145
653329811049022693,140
653329811056699642,148
653329811064376591,145
653329811072053540,116
653329811079730489,167
653329811087407438,432
653329811095084387,784
653329811102761336,855
653329811110438285,412
653329811118115234,-58
653329811125792183,4
653329811133469132,189
653329811141146081,104
653329811148823030,55
653329811156499979,119
653329811164176928,106
653329811171853877,82
653329811179530826,111
653329811187207775,126
653329811194884724,109
653329811202561673,114
653329811210238622,131
653329811217915571,136
653329811225592520,140
653329811233269469,155
653329811240946418,160
653329811248623367,157
653329811256300316,165
653329811263977265,179
653329811271654214,191
653329811279331163,204
653329811287008112,223
653329811294685061,245
653329811302362010,262
653329811310038959,286
653329811317715908,310
653329811325392857,330
653329811333069806,344
653329811340746755,352
653329811348423704,364
653329811356100653,359
653329811363777602,323
653329811371454551,274
653329811379131500,221
653329811386808449,157
653329811394485398,106
653329811402162347,75
653329811409839296,55
653329811417516245,43
653329811425193194,46
653329811432870143,46
653329811440547092,43
653329811448224041,38
653329811455900990,43
653329811463577939,55
653329811471254904,60
653329811478931853,60
653329811486608802,65
653329811494285751,72
653329811501962700,72
653329811509639649,77
653329811517316598,92
653329811524993547,92
653329811532670496,82
653329811540347445,75
653329811548024394,75
653329811555701343,82
653329811563378292,89
653329811571055241,87
653329811578732190,80
653329811586409139,82
653329811594086088,89
653329811601763037,82
653329811609439986,70
653329811617116935,72
653329811624793884,80
653329811632470833,80
653329811640147782,77
653329811647824731,80
653329811655501680,80
653329811663178629,89
653329811670855578,94
653329811678532527,87
653329811686209476,75
653329811693886425,70
653329811701563374,75
653329811709240323,80
653329811716917272,70
653329811724594221,70
653329811732271170,87
653329811739948119,80
653329811747625068,65
653329811755302017,65
653329811762978966,65
653329811770655915,63
653329811778332864,65
653329811786009813,70
653329811793686762,77
653329811801363711,87
653329811809040660,85
653329811816717609,85
653329811824394558,82
653329811832071507,72
653329811839748456,65
653329811847425405,68
653329811855102354,72
653329811862779303,72
653329811870456252,75
653329811878133201,60
653329811885810150,65
653329811893487099,238
653329811901164048,600
653329811908840997,847
653329811916517946,587
653329811924194895,14
653329811931871844,-143
653329811939548793,75
653329811947225742,89
653329811954902691,-2
653329811962579640,36
653329811970256589,65
653329811977933538,38
653329811985610487,48
653329811993287436,60
653329812000964385,63
653329812008641334,77
653329812016318283,89
653329812023995232,89
653329812031672197,89
653329812039349146,97
653329812047026095,106
653329812054703044,116
653329812062379993,121
653329812070056942,131
653329812077733891,143
653329812085410840,160
653329812093087789,174
653329812100764738,179
653329812108441687,187
653329812116118636,216
653329812123795585,245
653329812131472534,259
653329812139149483,267
653329812146826432,279
653329812154503381,289
653329812162180330,286
653329812169857279,267
653329812177534228,218
653329812185211177,155
653329812192888126,102
653329812200565075,51
653329812208242024,9
653329812215918973,-12
653329812223595922,-21
653329812231272871,-26
653329812238949820,-26
653329812246626769,-21
653329812254303718,-14
653329812261980667,-9
653329812269657616,-12
653329812277334565,-4
653329812285011514,7
653329812292688463,12
653329812300365412,19
653329812308042361,24
653329812315719310,26
653329812323396259,31
653329812331073208,38
653329812338750157,43
653329812346427106,48
653329812354104055,46
653329812361781004,46
653329812369457953,51
653329812377134902,55
653329812384811851,53
653329812392488800,51
653329812400165749,51
653329812407842698,53
653329812415519647,53
653329812423196596,46
653329812430873545,38
653329812438550494,41
653329812446227443,41
653329812453904392,36
653329812461581341,36
653329812469258290,41
653329812476935239,41
653329812484612188,34
653329812492289137,26
653329812499966086,24
653329812507643035,31
653329812515319984,34
653329812522996933,31
653329812530673882,36
653329812538350831,36
653329812546027780,34
653329812553704729,34
653329812561381678,36
653329812569058627,36
653329812576735576,36
653329812584412525,38
653329812592089490,38
653329812599766439,41
653329812607443388,38
653329812615120337,31
653329812622797286,36
653329812630474235,38
653329812638151184,43
653329812645828133,51
653329812653505082,41
653329812661182031,12
653329812668858980,0
653329812676535929,9
653329812684212878,17
653329812691889827,17
653329812699566776,17
653329812707243725,0
653329812714920674,2
653329812722597623,170
653329812730274572,531
653329812737951521,823
653329812745628470,617
653329812753305419,29
653329812760982368,-179
653329812768659317,36
653329812776336266,65
653329812784013215,-43
653329812791690164,-4
653329812799367113,34
653329812807044062,2
653329812814721011,9
653329812822397960,38
653329812830074909,38
653329812837751858,41
653329812845428807,51
653329812853105756,58
653329812860782705,60
653329812868459654,68
653329812876136603,75
653329812883813552,82
653329812891490501,92
653329812899167450,102
653329812906844399,109
653329812914521348,114
653329812922198297,126
653329812929875246,150
653329812937552195,172
653329812945229144,191
653329812952906093,213
653329812960583042,238
653329812968259991,257
653329812975936940,269
653329812983613889,276
653329812991290838,279
653329812998967787,267
653329813006644736,223
653329813014321685,165
653329813021998634,109
653329813029675583,60
653329813037352532,21
653329813045029481,-7
653329813052706430,-26
653329813060383379,-34
653329813068060328,-31
653329813075737277,-29
653329813083414226,-24
653329813091091175,-17
653329813098768124,-9
653329813106445073,-9
653329813114122022,-17
653329813121798971,-19
653329813129475920,-7
653329813137152869,0
653329813144829818,2
653329813152506783,7
653329813160183732,7
653329813167860681,4
653329813175537630,9
653329813183214579,9
653329813190891528,2
653329813198568477,2
653329813206245426,12
653329813213922375,12
653329813221599324,0
653329813229276273,-2
653329813236953222,2
653329813244630171,0
653329813252307120,-7
653329813259984069,-7
653329813267661018,-7
653329813275337967,-7
653329813283014916,-9
653329813290691865,-7
653329813298368814,-2
653329813306045763,0
653329813313722712,2
653329813321399661,4
653329813329076610,2
653329813336753559,4
653329813344430508,12
653329813352107457,17
653329813359784406,14
653329813367461355,14
653329813375138304,19
653329813382815253,26
653329813390492202,26
653329813398169151,24
653329813405846100,21
653329813413523049,17
653329813421199998,17
653329813428876947,24
653329813436553896,26
653329813444230845,26
653329813451907794,31
653329813459584743,34
653329813467261692,34
653329813474938641,36
653329813482615590,38
653329813490292539,38
653329813497969488,41
653329813505646437,51
653329813513323386,58
653329813521000335,63
653329813528677284,70
653329813536354233,65
653329813544031182,51
653329813551708131,43
653329813559385080,46
653329813567062029,53
653329813574738978,53
653329813582415927,55
653329813590092876,53
653329813597769825,24
653329813605446774,80
653329813613123723,357
653329813620800672,731
653329813628477621,801
653329813636154570,330
653329813643831519,-153
653329813651508468,-89
653329813659185417,87
653329813666862366,2
653329813674539315,-46
653329813682216264,17
653329813689893213,14
653329813697570162,-7
653329813705247111,19
653329813712924076,31
653329813720601025,29
653329813728277974,41
653329813735954923,48
653329813743631872,41
653329813751308821,38
653329813758985770,53
653329813766662719,60
653329813774339668,68
653329813782016617,75
653329813789693566,82
653329813797370515,97
653329813805047464,116
653329813812724413,131
653329813820401362,148
653329813828078311,170
653329813835755260,194
653329813843432209,218
653329813851109158,240
653329813858786107,257
653329813866463056,272
653329813874140005,279
653329813881816954,272
653329813889493903,247
653329813897170852,206
653329813904847801,145
653329813912524750,82
653329813920201699,36
653329813927878648,0
653329813935555597,-19
653329813943232546,-29
653329813950909495,-36
653329813958586444,-38
653329813966263393,-34
653329813973940342,-26
653329813981617291,-19
653329813989294240,-14
653329813996971189,-14
653329814004648138,-12
653329814012325087,-7
653329814020002036,-2
653329814027678985,-2
653329814035355934,4
653329814043032883,12
653329814050709832,12
653329814058386781,4
653329814066063730,0
653329814073740679,-2
653329814081417628,0
653329814089094577,2
653329814096771526,2
653329814104448475,4
653329814112125424,4
653329814119802373,0
653329814127479322,-12
653329814135156271,-12
653329814142833220,-7
653329814150510169,-12
653329814158187118,-17
653329814165864067,-12
653329814173541016,-4
653329814181217965,-2
653329814188894914,0
653329814196571863,2
653329814204248812,0
653329814211925761,2
653329814219602710,9
653329814227279659,14
653329814234956608,17
653329814242633557,17
653329814250310506,19
653329814257987455,24
653329814265664404,26
653329814273341369,24
653329814281018318,29
653329814288695267,34
653329814296372216,29
653329814304049165,21
653329814311726114,21
653329814319403063,29
653329814327080012,31
653329814334756961,26
653329814342433910,26
653329814350110859,34
653329814357787808,38
653329814365464757,38
653329814373141706,38
653329814380818655,43
653329814388495604,41
653329814396172553,34
653329814403849502,36
653329814411526451,41
653329814419203400,38
653329814426880349,38
653329814434557298,48
653329814442234247,60
653329814449911196,65
653329814457588145,70
653329814465265094,75
653329814472942043,58
653329814480618992,38
653329814488295941,46
653329814495972890,55
653329814503649839,58
653329814511326788,60
653329814519003737,55
653329814526680686,26
653329814534357635,43
653329814542034584,245
653329814549711533,619
653329814557388482,855
653329814565065431,566
653329814572742380,-14
653329814580419329,-138
653329814588096278,85
653329814595773227,75
653329814603450176,-24
653329814611127125,21
653329814618804074,43
653329814626481023,7
653329814634157972,9
653329814641834921,21
653329814649511870,17
653329814657188819,19
653329814664865768,29
653329814672542717,36
653329814680219666,46
653329814687896615,55
653329814695573564,60
653329814703250513,65
653329814710927462,77
653329814718604411,87
653329814726281360,99
653329814733958309,109
653329814741635258,121
653329814749312207,140
653329814756989156,162
653329814764666105,187
653329814772343054,208
653329814780020003,230
653329814787696952,247
653329814795373901,262
653329814803050850,269
653329814810727799,272
653329814818404748,267
653329814826081697,235
653329814833758662,179
653329814841435611,116
653329814849112560,58
653329814856789509,14
653329814864466458,-12
653329814872143407,-31
653329814879820356,-43
653329814887497305,-55
653329814895174254,-70
653329814902851203,-82
653329814910528152,-77
653329814918205101,-70
653329814925882050,-63
653329814933558999,-60
653329814941235948,-60
653329814948912897,-51
653329814956589846,-41
653329814964266795,-36
653329814971943744,-31
653329814979620693,-26
653329814987297642,-24
653329814994974591,-19
653329815002651540,-14
653329815010328489,-14
653329815018005438,-12
653329815025682387,-7
653329815033359336,-7
653329815041036285,-4
653329815048713234,-2
653329815056390183,0
653329815064067132,4
653329815071744081,4
653329815079421030,4
653329815087097979,7
653329815094774928,12
653329815102451877,14
653329815110128826,12
653329815117805775,14
653329815125482724,14
653329815133159673,7
653329815140836622,-2
653329815148513571,0
653329815156190520,9
653329815163867469,7
653329815171544418,4
653329815179221367,12
653329815186898316,19
653329815194575265,17
653329815202252214,17
653329815209929163,24
653329815217606112,21
653329815225283061,21
653329815232960010,26
653329815240636959,31
653329815248313908,34
653329815255990857,29
653329815263667806,26
653329815271344755,34
653329815279021704,41
653329815286698653,38
653329815294375602,38
653329815302052551,38
653329815309729500,41
653329815317406449,43
653329815325083398,43
653329815332760347,41
653329815340437296,38
653329815348114245,43
653329815355791194,55
653329815363468143,70
653329815371145092,70
653329815378822041,58
653329815386498990,51
653329815394175955,43
653329815401852904,34
653329815409529853,29
653329815417206802,36
653329815424883751,41
653329815432560700,46
653329815440237649,41
653329815447914598,14
653329815455591547,4
653329815463268496,157
653329815470945445,514
653329815478622394,811
653329815486299343,624
653329815493976292,38
653329815501653241,-194
653329815509330190,24
653329815517007139,72
653329815524684088,-46
653329815532361037,-29
653329815540037986,17
653329815547714935,2
653329815555391884,4
653329815563068833,24
653329815570745782,24
653329815578422731,29
653329815586099680,43
653329815593776629,43
653329815601453578,38
653329815609130527,51
653329815616807476,60
653329815624484425,58
653329815632161374,58
653329815639838323,63
653329815647515272,65
653329815655192221,75
653329815662869170,87
653329815670546119,94
653329815678223068,111
653329815685900017,145
653329815693576966,172
653329815701253915,187
653329815708930864,201
653329815716607813,213
653329815724284762,223
653329815731961711,228
653329815739638660,218
653329815747315609,189
653329815754992558,140
653329815762669507,77
653329815770346456,17
653329815778023405,-21
653329815785700354,-53
653329815793377303,-80
653329815801054252,-89
653329815808731201,-92
653329815816408150,-92
653329815824085099,-82
653329815831762048,-75
653329815839438997,-72
653329815847115946,-60
653329815854792895,-55
653329815862469844,-58
653329815870146793,-53
653329815877823742,-53
653329815885500691,-48
653329815893177640,-36
653329815900854589,-34
653329815908531538,-36
653329815916208487,-29
653329815923885436,-14
653329815931562385,-7
653329815939239334,-4
653329815946916283,-7
653329815954593248,-9
653329815962270197,-4
653329815969947146,-2
653329815977624095,-4
653329815985301044,-2
653329815992977993,4
653329816000654942,0
653329816008331891,0
653329816016008840,4
653329816023685789,-4
653329816031362738,-7
653329816039039687,7
653329816046716636,9
653329816054393585,2
653329816062070534,4
653329816069747483,9
653329816077424432,12
653329816085101381,14
653329816092778330,14
653329816100455279,14
653329816108132228,19
653329816115809177,17
653329816123486126,9
653329816131163075,17
653329816138840024,17
653329816146516973,4
653329816154193922,2
653329816161870871,7
653329816169547820,7
653329816177224769,7
653329816184901718,14
653329816192578667,17
653329816200255616,17
653329816207932565,17
653329816215609514,21
653329816223286463,24
653329816230963412,24
653329816238640361,29
653329816246317310,46
653329816253994259,63
653329816261671208,60
653329816269348157,48
653329816277025106,41
653329816284702055,36
653329816292379004,31
653329816300055953,29
653329816307732902,34
653329816315409851,36
653329816323086800,41
653329816330763749,41
653329816338440698,17
653329816346117647,29
653329816353794596,221
653329816361471545,592
653329816369148494,828
653329816376825443,544
653329816384502392,-34
653329816392179341,-172
653329816399856290,51
653329816407533239,51
653329816415210188,-53
653329816422887137,-7
653329816430564086,24
653329816438241035,-7
653329816445917984,4
653329816453594933,26
653329816461271882,19
653329816468948831,26
653329816476625780,41
653329816484302729,41
653329816491979678,38
653329816499656627,48
653329816507333576,51
653329816515010541,53
653329816522687490,63
653329816530364439,72
653329816538041388,77
653329816545718337,85
653329816553395286,94
653329816561072235,106
653329816568749184,121
653329816576426133,140
653329816584103082,160
653329816591780031,182
653329816599456980,199
653329816607133929,206
653329816614810878,208
653329816622487827,213
653329816630164776,208
653329816637841725,177
653329816645518674,121
653329816653195623,60
653329816660872572,0
653329816668549521,-46
653329816676226470,-70
653329816683903419,-85
653329816691580368,-97
653329816699257317,-97
653329816706934266,-89
653329816714611215,-85
653329816722288164,-80
653329816729965113,-75
653329816737642062,-70
653329816745319011,-60
653329816752995960,-48
653329816760672909,-43
653329816768349858,-41
653329816776026807,-31
653329816783703756,-24
653329816791380705,-21
653329816799057654,-17
653329816806734603,-7
653329816814411552,-2
653329816822088501,-9
653329816829765450,-9
653329816837442399,2
653329816845119348,4
653329816852796297,-2
653329816860473246,-7
653329816868150195,-4
653329816875827144,-2
653329816883504093,0
653329816891181042,4
653329816898857991,7
653329816906534940,7
653329816914211889,9
653329816921888838,9
653329816929565787,7
653329816937242736,9
653329816944919685,17
653329816952596634,21
653329816960273583,19
653329816967950532,17
653329816975627481,21
653329816983304430,26
653329816990981379,26
653329816998658328,26
653329817006335277,29
653329817014012226,29
653329817021689175,34
653329817029366124,34
653329817037043073,34
653329817044720022,34
653329817052396971,34
653329817060073920,36
653329817067750869,38
653329817075427834,41
653329817083104783,43
653329817090781732,46
653329817098458681,41
653329817106135630,31
653329817113812579,31
653329817121489528,41
653329817129166477,43
653329817136843426,36
653329817144520375,24
653329817152197324,24
653329817159874273,34
653329817167551222,41
653329817175228171,46
653329817182905120,48
653329817190582069,38
653329817198259018,26
653329817205935967,26
653329817213612916,21
653329817221289865,17
653329817228966814,21
653329817236643763,29
653329817244320712,29
653329817251997661,26
653329817259674610,12
653329817267351559,2
653329817275028508,140
653329817282705457,495
653329817290382406,828
653329817298059355,699
653329817305736304,111
653329817313413253,-194
653329817321090202,0
653329817328767151,80
653329817336444100,-41
653329817344121049,-31
653329817351797998,17
653329817359474947,-9
653329817367151896,-14
653329817374828845,9
653329817382505794,7
653329817390182743,4
653329817397859692,17
653329817405536641,29
653329817413213590,31
653329817420890539,29
653329817428567488,26
653329817436244437,34
653329817443921386,41
653329817451598335,46
653329817459275284,55
653329817466952233,65
653329817474629182,77
653329817482306131,97
653329817489983080,116
653329817497660029,133
653329817505336978,155
653329817513013927,182
653329817520690876,199
653329817528367825,208
653329817536044774,223
653329817543721723,235
653329817551398672,230
653329817559075621,204
653329817566752570,160
653329817574429519,104
653329817582106468,53
653329817589783417,4
653329817597460366,-34
653329817605137315,-58
653329817612814264,-70
653329817620491213,-72
653329817628168162,-70
653329817635845127,-70
653329817643522076,-65
653329817651199025,-58
653329817658875974,-55
653329817666552923,-53
653329817674229872,-53
653329817681906821,-48
653329817689583770,-38
653329817697260719,-43
653329817704937668,-51
653329817712614617,-41
653329817720291566,-26
653329817727968515,-24
653329817735645464,-24
653329817743322413,-21
653329817750999362,-17
653329817758676311,-12
653329817766353260,-9
653329817774030209,-9
653329817781707158,-7
653329817789384107,-4
653329817797061056,-4
653329817804738005,-4
653329817812414954,0
653329817820091903,2
653329817827768852,4
653329817835445801,4
653329817843122750,2
653329817850799699,4
653329817858476648,9
653329817866153597,9
653329817873830546,9
653329817881507495,9
653329817889184444,9
653329817896861393,14
653329817904538342,24
653329817912215291,24
653329817919892240,19
653329817927569189,19
653329817935246138,21
653329817942923087,24
653329817950600036,26
653329817958276985,26
653329817965953934,31
653329817973630883,36
653329817981307832,36
653329817988984781,29
653329817996661730,29
653329818004338679,34
653329818012015628,38
653329818019692577,36
653329818027369526,38
653329818035046475,43
653329818042723424,41
653329818050400373,38
653329818058077322,41
653329818065754271,41
653329818073431220,36
653329818081108169,31
653329818088785118,36
653329818096462067,53
653329818104139016,72
653329818111815965,75
653329818119492914,55
653329818127169863,43
653329818134846812,43
653329818142523761,41
653329818150200710,34
653329818157877659,34
653329818165554608,31
653329818173231557,26
653329818180908506,19
653329818188585455,17
653329818196262420,0
653329818203939369,14
653329818211616318,216
653329818219293267,600
653329818226970216,835
653329818234647165,527
653329818242324114,-53
653329818250001063,-167
653329818257678012,46
653329818265354961,17
653329818273031910,-75
653329818280708859,-17
653329818288385808,4
653329818296062757,-29
653329818303739706,-24
653329818311416655,-2
653329818319093604,-2
653329818326770553,2
653329818334447502,9
653329818342124451,7
653329818349801400,9
653329818357478349,14
653329818365155298,17
653329818372832247,21
653329818380509196,26
653329818388186145,34
653329818395863094,41
653329818403540043,53
653329818411216992,68
653329818418893941,89
653329818426570890,111
653329818434247839,131
653329818441924788,150
653329818449601737,177
653329818457278686,199
653329818464955635,213
653329818472632584,218
653329818480309533,221
653329818487986482,213
653329818495663431,189
653329818503340380,140
653329818511017329,82
653329818518694278,31
653329818526371227,-7
653329818534048176,-43
653329818541725125,-65
653329818549402074,-72
653329818557079023,-75
653329818564755972,-72
653329818572432921,-65
653329818580109870,-65
653329818587786819,-68
653329818595463768,-60
653329818603140717,-46
653329818610817666,-41
653329818618494615,-41
653329818626171564,-36
653329818633848513,-26
653329818641525462,-19
653329818649202411,-19
653329818656879360,-17
653329818664556309,-9
653329818672233258,-9
653329818679910207,-17
653329818687587156,-19
653329818695264105,-14
653329818702941054,-12
653329818710618003,-9
653329818718294952,-12
653329818725971901,-7
653329818733648850,0
653329818741325799,2
653329818749002748,0
653329818756679713,0
653329818764356662,2
653329818772033611,7
653329818779710560,7
653329818787387509,7
653329818795064458,9
653329818802741407,12
653329818810418356,9
653329818818095305,12
653329818825772254,14
653329818833449203,9
653329818841126152,12
653329818848803101,12
653329818856480050,4
653329818864156999,0
653329818871833948,9
653329818879510897,14
653329818887187846,9
653329818894864795,7
653329818902541744,12
653329818910218693,17
653329818917895642,19
653329818925572591,19
653329818933249540,19
653329818940926489,21
653329818948603438,24
653329818956280387,21
653329818963957336,19
653329818971634285,26
653329818979311234,29
653329818986988183,29
653329818994665132,26
653329819002342081,29
653329819010019030,31
653329819017695979,31
653329819025372928,36
653329819033049877,53
653329819040726826,65
653329819048403775,72
653329819056080724,65
653329819063757673,53
653329819071434622,43
653329819079111571,31
653329819086788520,24
653329819094465469,26
653329819102142418,26
653329819109819367,29
653329819117496316,36
653329819125173265,38
653329819132850214,17
653329819140527163,7
653329819148204112,155
653329819155881061,510
653329819163558010,828
653329819171234959,663
653329819178911908,60
653329819186588857,-216
653329819194265806,-2
653329819201942755,60
653329819209619704,-58
653329819217296653,-41
653329819224973602,0
653329819232650551,-31
653329819240327500,-29
653329819248004449,-2
653329819255681398,2
653329819263358347,4
653329819271035296,9
653329819278712245,9
653329819286389194,9
653329819294066143,14
653329819301743092,19
653329819309420041,24
653329819317102046,29
653329819324778925,31
653329819332455804,41
653329819340132683,53
653329819347809562,65
653329819355486441,82
653329819363163320,99
653329819370840199,121
653329819378517078,140
653329819386193957,155
653329819393870836,177
653329819401547715,199
653329819409224594,208
653329819416901473,211
653329819424578352,206
653329819432255231,189
653329819439932110,153
653329819447608989,99
653329819455285868,41
653329819462962747,-4
653329819470639626,-41
653329819478316505,-65
653329819485993384,-75
653329819493670263,-77
653329819501347142,-80
653329819509024021,-77
653329819516700900,-68
653329819524377779,-60
653329819532054658,-58
653329819539731537,-48
653329819547408416,-43
653329819555085295,-41
653329819562762174,-41
653329819570439053,-38
653329819578115932,-29
653329819585792811,-24
653329819593469690,-26
653329819601146569,-24
653329819608823448,-14
653329819616500327,-9
653329819624177206,-7
653329819631854085,-7
653329819639530964,-7
653329819647207843,-2
653329819654884722,0
653329819662561601,-4
653329819670238480,-4
653329819677915359,0
653329819685592238,-12
653329819693269117,-24
653329819700945996,-17
653329819708622875,-9
653329819716299754,-7
653329819723976633,-2
653329819731653512,-4
653329819739330391,-12
653329819747007270,-4
653329819754684149,2
653329819762361028,2
653329819770037907,2
653329819777714786,9
653329819785391665,9
653329819793068544,7
653329819800745423,7
653329819808422302,4
653329819816099181,0
653329819823776060,4
653329819831452939,9
653329819839129818,7
653329819846806697,9
653329819854483576,21
653329819862160455,21
653329819869837334,9
653329819877534339,9
653329819885210939,19
653329819892887539,21
653329819900564139,19
653329819908240739,19
653329819915917339,21
653329819923593939,29
653329819931270539,24
653329819938947139,14
653329819946623739,7
653329819954300339,19
653329819961976939,41
653329819969653539,48
653329819977330139,36
653329819985006739,34
653329819992683339,36
653329820000359939,21
653329820008036539,9
653329820015713139,12
653329820023389739,21
653329820031066339,26
653329820038742939,24
653329820046419539,19
653329820054096139,-2
653329820061772739,-4
653329820069449339,172
653329820077125939,546
653329820084802539,811
653329820092479139,566
653329820100155739,-19
653329820107832339,-206
653329820115508939,9
653329820123185539,34
653329820130862139,-70
653329820138538739,-38
653329820146215339,-7
653329820153891939,-34
653329820161568539,-31
653329820169245139,-9
653329820176921739,-12
653329820184598339,-19
653329820192274939,-21
653329820199951539,-21
653329820207628139,-17
653329820215304739,-9
653329820222981339,-7
653329820230657939,0
653329820238334539,12
653329820246011139,24
653329820253687739,31
653329820261364339,41
653329820269040939,63
653329820276717539,85
653329820284394139,92
653329820292070739,106
653329820299747339,143
653329820307423939,172
653329820315100539,184
653329820322777139,191
653329820330453739,206
653329820338130339,216
653329820345806939,213
653329820353483539,187
653329820361160139,133
653329820368836739,77
653329820376513339,29
653329820384189939,-9
653329820391866539,-48
653329820399543139,-77
653329820407219739,-87
653329820414896339,-87
653329820422572939,-87
653329820430249539,-87
653329820437901074,-77
653329820445578023,-63
653329820453254972,-60
653329820460931921,-70
653329820468608870,-70
653329820476285819,-58
653329820483962768,-48
653329820491639717,-41
653329820499316666,-41
653329820506993615,-38
653329820514670564,-31
653329820522347513,-24
653329820530024462,-17
653329820537701411,-14
653329820545378360,-14
653329820553055309,-17
653329820560732258,-21
653329820568409207,-17
653329820576086156,-12
653329820583763105,-17
653329820591440054,-14
653329820599117003,-7
653329820606793952,-9
653329820614470901,-4
653329820622147850,2
653329820629824799,-2
653329820637501748,-4
653329820645178697,2
653329820652855646,2
653329820660532595,2
653329820668209544,4
653329820675886493,4
653329820683563442,4
653329820691240391,-2
653329820698917340,-14
653329820706594289,-7
653329820714271238,2
653329820721948187,0
653329820729625136,-2
653329820737302085,7
653329820744979034,9
653329820752655983,7
653329820760332932,12
653329820768009881,14
653329820775686830,12
653329820783363779,14
653329820791040728,19
653329820798717677,9
653329820806394626,4
653329820814071575,12
653329820821748524,12
653329820829425473,17
653329820837102422,41
653329820844779371,55
653329820852456320,41
653329820860133269,31
653329820867810218,31
653329820875487167,19
653329820883164116,12
653329820890841065,17
653329820898518014,24
653329820906194963,31
653329820913871912,34
653329820921548861,17
653329820929225810,-7
653329820936902759,77
653329820944579708,371
653329820952256657,745
653329820959933606,791
653329820967610555,289
653329820975287504,-182
653329820982964453,-89
653329820990641402,82
653329820998348463,-4
653329821006024994,-43
653329821013701525,14
653329821021378056,2
653329821029054587,-26
653329821036731118,-12
653329821044407649,-4
653329821052084180,-12
653329821059760711,0
653329821067437242,9
653329821075113773,9
653329821082790304,17
653329821090466835,21
653329821098143366,21
653329821105819897,26
653329821113496428,31
653329821121172959,38
653329821128849490,51
653329821136526021,65
653329821144202552,82
653329821151879083,99
653329821159555614,121
653329821167232145,145
653329821174908676,167
653329821182585207,189
653329821190261738,211
653329821197938269,213
653329821205614800,206
653329821213291331,208
653329821220967862,201
653329821228644393,160
653329821236320924,97
653329821243997455,41
653329821251673986,-4
653329821259350517,-41
653329821267027048,-68
653329821274703579,-82
653329821282380110,-87
653329821290056641,-92
653329821297733172,-94
653329821305409703,-89
653329821313086234,-77
653329821320762765,-70
653329821328439296,-63
653329821336115827,-58
653329821343792358,-53
653329821351468889,-48
653329821359145420,-41
653329821366821951,-29
653329821374498482,-21
653329821382175013,-24
653329821389851544,-19
653329821397528075,-9
653329821405204606,-4
653329821412881137,-7
653329821420557668,-4
653329821428234199,0
653329821435910730,0
653329821443587261,2
653329821451263792,7
653329821458940323,9
653329821466616854,12
653329821474293385,7
653329821481969916,4
653329821489646447,9
653329821497322978,12
653329821504999509,17
653329821512676040,17
653329821520352571,14
653329821528029102,9
653329821535705633,7
653329821543382164,7
653329821551058695,9
653329821558735238,12
653329821566411769,12
653329821574088300,17
653329821581764831,19
653329821589441362,17
653329821597117893,19
653329821604794424,24
653329821612470955,24
653329821620147486,12
653329821627824017,7
653329821635500548,17
653329821643177079,19
653329821650853610,17
653329821658530141,17
653329821666206672,14
653329821673883203,17
653329821681559734,29
653329821689236265,38
653329821696912796,34
653329821704589327,31
653329821712265858,26
653329821719942389,9
653329821727618920,0
653329821735295451,7
653329821742971982,17
653329821750648513,17
653329821758325044,14
653329821766001575,17
653329821773678106,-2
653329821781354637,-7
653329821789031168,162
653329821796707699,539
653329821804384230,833
653329821812060761,614
653329821819737292,9
653329821827413823,-206
653329821835090354,17
653329821842766885,48
653329821850443416,-70
653329821858119947,-34
653329821865796478,9
653329821873473009,-21
653329821881149540,-14
653329821888826071,12
653329821896502602,9
653329821904179133,7
653329821911855664,21
653329821919532195,31
653329821927208726,36
653329821934885257,41
653329821942561788,46
653329821950238319,51
653329821957914850,60
653329821965591381,70
653329821973267912,70
653329821980944443,77
653329821988620974,94
653329821996297505,114
653329822003974036,133
653329822011650567,155
653329822019327098,174
653329822027003629,187
653329822034680160,194
653329822042356691,204
653329822050033222,211
653329822057709753,218
653329822065386284,206
653329822073062815,174
653329822080739346,121
653329822088415877,68
653329822096092408,14
653329822103768939,-31
653329822111445470,-60
653329822119101997,-80
653329822126778806,-92
653329822134455615,-89
653329822142132424,-85
653329822149809233,-82
653329822157486042,-77
653329822165162851,-68
653329822172839660,-63
653329822180516469,-63
653329822188193278,-65
653329822195870087,-58
653329822203546896,-51
653329822211223705,-60
653329822218900514,-68
653329822226577323,-55
653329822234254132,-38
653329822241930941,-36
653329822249607750,-34
653329822257284559,-31
653329822264961368,-29
653329822272638177,-29
653329822280314986,-31
653329822287991795,-29
653329822295668604,-24
653329822303345413,-19
653329822311022222,-17
653329822318699031,-17
653329822326375840,-14
653329822334052649,-12
653329822341729458,-7
653329822349406267,-7
653329822357083076,-9
653329822364759885,-7
653329822372436694,0
653329822380113503,4
653329822387790312,7
653329822395467121,4
653329822403143930,4
653329822410820739,9
653329822418497548,14
653329822426174357,14
653329822433851166,14
653329822441527975,17
653329822449204784,19
653329822456881593,19
653329822464558402,19
653329822472235211,24
653329822479912020,29
653329822487588829,26
653329822495265638,19
653329822502942447,24
653329822510619256,31
653329822518296065,26
653329822525972874,21
653329822533649683,21
653329822541326492,24
653329822549003301,26
653329822556680110,26
653329822564356919,26
653329822572033728,24
653329822579710537,31
653329822587387346,43
653329822595064155,48
653329822602740964,53
653329822610417773,55
653329822618094582,43
653329822625771391,29
653329822633448200,24
653329822641125009,29
653329822648801818,34
653329822656478627,36
653329822664155436,41
653329822671832245,26
653329822679519124,-2
653329822687195794,75
653329822694872464,381
653329822702549134,770
653329822710225804,806
653329822717902474,276
653329822725579144,-199
653329822733255814,-94
653329822740932484,65
653329822748609154,-48
653329822756285824,-80
653329822763962494,-12
653329822771639164,-31
653329822779315834,-51
653329822786992504,-17
653329822794669174,-7
653329822802345844,-12
653329822810022514,0
653329822817699184,7
653329822825375854,12
653329822833052524,21
653329822840729194,31
653329822848405864,36
653329822856082534,46
653329822863759204,55
653329822871435874,65
653329822879112544,75
653329822886789214,87
653329822894465884,102
653329822902142554,121
653329822909819224,138
653329822917495894,155
653329822925172564,182
653329822932849234,208
653329822940525904,221
653329822948202574,225
653329822955879244,230
653329822963555914,225
653329822971232584,206
653329822978909254,165
653329822986585924,104
653329822994262594,43
653329823001939264,-7
653329823009615934,-46
653329823017292604,-77
653329823024969274,-94
653329823032645944,-97
653329823040322614,-97
653329823047999284,-92
653329823055675954,-85
653329823063352624,-80
653329823071029294,-72
653329823078705964,-63
653329823086382634,-58
653329823094059304,-55
653329823101735974,-51
653329823109412644,-41
653329823117089314,-34
653329823124765984,-31
653329823132442654,-29
653329823140119324,-24
653329823147795994,-19
653329823155472664,-14
653329823163149334,-14
653329823170826004,-9
653329823178502674,-7
653329823186179344,-4
653329823193856014,-4
653329823201532684,-2
653329823209209354,-2
653329823216886024,0
653329823224562694,0
653329823232239364,-9
653329823239926081,-14
653329823247602612,-4
653329823255279143,-4
653329823262955674,-14
653329823270632205,-14
653329823278308736,-7
653329823285985267,-4
653329823293661798,-7
653329823301338329,-9
653329823309014860,-12
653329823316691391,-7
653329823324367922,-4
653329823332044453,-2
653329823339720984,0
653329823347397515,2
653329823355074046,7
653329823362750577,14
653329823370427108,12
653329823378103639,9
653329823385780170,14
653329823393456701,19
653329823401133232,19
653329823408809763,19
653329823416486294,21
653329823424162825,24
653329823431839356,26
653329823439515887,29
653329823447192418,31
653329823454868949,31
653329823462545480,31
653329823470222011,31
653329823477898542,31
653329823485575073,34
653329823493251604,36
653329823500928135,34
653329823508604666,24
653329823516281197,24
653329823523957728,41
653329823531634259,53
653329823539310790,51
653329823546987321,53
653329823554663852,48
653329823562340383,31
653329823570016914,21
653329823577693445,34
653329823585369976,38
653329823593046507,36
653329823600723038,36
653329823608399569,38
653329823616076100,19
653329823623752631,17
653329823631429162,177
653329823639105693,544
653329823646782224,845
653329823654458755,636
653329823662135286,38
653329823669811817,-184
653329823677488348,34
653329823685164879,65
653329823692841410,-53
653329823700517941,-24
653329823708194472,21
653329823715871003,-4
653329823723547534,-2
653329823731224065,17
653329823738900596,2
653329823746577127,-4
653329823754253658,12
653329823761930189,19
653329823769606720,21
653329823777283251,31
653329823784959782,36
653329823792636313,41
653329823800307888,51
653329823807984488,63
653329823815661088,70
653329823823337688,77
653329823831014288,87
653329823838690888,99
653329823846367488,121
653329823854044088,143
653329823861720688,160
653329823869397288,172
653329823877073888,189
653329823884750488,204
653329823892427088,211
653329823900103688,213
653329823907780288,206
653329823915456888,177
653329823923133488,126
653329823930810088,70
653329823938486688,19
653329823946163288,-24
653329823953839888,-60
653329823961516488,-82
653329823969193088,-89
653329823976869688,-89
653329823984546288,-87
653329823992222888,-85
653329823999899488,-82
653329824007576088,-80
653329824015252688,-72
653329824022929288,-65
653329824030605888,-63
653329824038282488,-60
653329824045959088,-51
653329824053635688,-43
653329824061312288,-43
653329824068988888,-36
653329824076665488,-24
653329824084342088,-21
653329824092018688,-19
653329824099695288,-14
653329824107371888,-14
653329824115048488,-17
653329824122725088,-12
653329824130401688,-9
653329824138078288,-7
653329824145754888,-4
653329824153431488,-2
653329824161108088,-2
653329824168784688,-4
653329824176461288,0
653329824184137888,4
653329824191814488,2
653329824199491088,4
653329824207167688,9
653329824214844288,2
653329824222520888,4
653329824230197488,7
653329824237874088,-4
653329824245550688,-19
653329824253227288,-17
653329824260903888,-7
653329824268580488,0
653329824276257088,2
653329824283933688,0
653329824291610288,0
653329824299286888,7
653329824306963488,7
653329824314640088,7
653329824322316688,7
653329824329993288,9
653329824337669888,9
653329824345346488,14
653329824353023088,21
653329824360679661,24
653329824368356540,17
653329824376033419,14
653329824383710298,19
653329824391387177,12
653329824399064056,4
653329824406740935,14
653329824414417814,21
653329824422094693,17
653329824429771572,12
653329824437448451,17
653329824445125330,34
653329824452802209,51
653329824460479088,46
653329824468155967,31
653329824475832846,36
653329824483509725,36
653329824491186604,19
653329824498863483,9
653329824506540362,14
653329824514217241,19
653329824521894120,17
653329824529570999,21
653329824537247878,17
653329824544924757,-7
653329824552601636,43
653329824560278515,308
653329824567955394,692
653329824575632273,808
653329824583309152,369
653329824590986031,-153
653329824598662910,-131
653329824606339789,70
653329824614016668,2
653329824621693547,-63
653329824629370426,-2
653329824637047305,7
653329824644724184,-17
653329824652401063,2
653329824660077942,12
653329824667754821,4
653329824675431700,14
653329824683108579,31
653329824690785458,34
653329824698462337,29
653329824706139216,24
653329824713816095,38
653329824721492974,55
653329824729169853,53
653329824736846732,46
653329824744523611,46
653329824752200490,53
653329824759877369,68
653329824767554248,80
653329824775231127,94
653329824782908006,121
653329824790584885,145
653329824798261764,167
653329824805938643,191
653329824813615522,201
653329824821292401,208
653329824828969280,216
653329824836646159,196
653329824844323038,150
653329824851999917,102
653329824859676796,51
653329824867353675,-2
653329824875030554,-43
653329824882707433,-70
653329824890384312,-92
653329824898061191,-99
653329824905738070,-99
653329824913414949,-97
653329824921116924,-85
653329824928793455,-80
653329824936469986,-80
653329824944146517,-72
653329824951823048,-60
653329824959499579,-55
653329824967176110,-53
653329824974852641,-46
653329824982529172,-46
653329824990205703,-48
653329824997882234,-38
653329825005558765,-26
653329825013235296,-31
653329825020911827,-38
653329825028588358,-31
653329825036264889,-19
653329825043941420,-19
653329825051617951,-24
653329825059294482,-17
653329825066971013,-12
653329825074647544,-12
653329825082324075,-14
653329825090000606,-14
653329825097677137,-7
653329825105353668,2
653329825113030199,0
653329825120706730,-4
653329825128383261,-7
653329825136059792,0
653329825143736323,9
653329825151412854,12
653329825159089385,2
653329825166765916,2
653329825174442447,12
653329825182118978,12
653329825189795509,7
653329825197472040,14
653329825205148571,19
653329825212825102,14
653329825220501633,17
653329825228178164,21
653329825235854695,14
653329825243531226,12
653329825251207757,2
653329825258884288,-4
653329825266560819,2
653329825274237350,7
653329825281913881,7
653329825289590412,9
653329825297266943,9
653329825304943474,12
653329825312620005,17
653329825320296536,19
653329825327973067,21
653329825335649598,24
653329825343326129,26
653329825351002660,46
653329825358679191,55
653329825366355722,46
653329825374032253,38
653329825381708784,36
653329825389385315,26
653329825397061846,17
653329825404738377,21
653329825412414908,31
653329825420091439,34
653329825427767970,34
653329825435444501,26
653329825443121032,0
653329825450797563,43
653329825458474094,303
653329825466150625,702
653329825473827156,842
653329825481483683,410
653329825489160492,-138
653329825496837301,-138
653329825504514110,72
653329825512190919,9
653329825519867728,-58
653329825527544537,2
653329825535221346,4
653329825542898155,-31
653329825550574964,-17
653329825558251773,-2
653329825565928582,-2
653329825573605391,4
653329825581282200,9
653329825588959009,12
653329825596635818,19
653329825604312627,21
653329825611989436,21
653329825619666245,26
653329825627343054,31
653329825635019863,41
653329825642696672,53
653329825650373481,63
653329825658050290,72
653329825665727099,92
653329825673403908,111
653329825681080717,133
653329825688757526,160
653329825696434335,182
653329825704111144,204
653329825711787953,218
653329825719464762,218
653329825727141571,211
653329825734818380,201
653329825742495189,167
653329825750171998,106
653329825757848807,41
653329825765525616,-7
653329825773202425,-43
653329825780879234,-72
653329825788556043,-87
653329825796232852,-89
653329825803909661,-89
653329825811586470,-89
653329825819263279,-85
653329825826940088,-77
653329825834616897,-68
653329825842293706,-60
653329825849970515,-53
653329825857647324,-48
653329825865324133,-43
653329825873000942,-38
653329825880677751,-29
653329825888354560,-21
653329825896031369,-19
653329825903708178,-17
653329825911384987,-9
653329825919061796,-4
653329825926738605,-4
653329825934415414,0
653329825942092223,0
653329825949769032,0
653329825957445841,7
653329825965122650,9
653329825972799459,2
653329825980476268,4
653329825988153077,4
653329825995829886,0
653329826003506695,2
653329826011183504,7
653329826018860313,9
653329826026537122,7
653329826034213931,4
653329826041900810,7
653329826049577480,14
653329826057254150,17
653329826064930820,14
653329826072607490,14
653329826080284160,19
653329826087960830,21
653329826095637500,14
653329826103314170,9
653329826110990840,9
653329826118667510,14
653329826126344180,14
653329826134020850,17
653329826141697520,19
653329826149374190,21
653329826157050860,26
653329826164727530,26
653329826172404200,24
653329826180080870,24
653329826187757540,29
653329826195434210,31
653329826203110880,34
653329826210787550,26
653329826218464220,21
653329826226140890,24
653329826233817560,26
653329826241494230,21
653329826249170900,19
653329826256847570,19
653329826264524240,19
653329826272200910,34
653329826279877580,41
653329826287554250,36
653329826295230920,34
653329826302907590,29
653329826310584260,17
653329826318260930,7
653329826325937600,17
653329826333614270,21
653329826341290940,24
653329826348967610,29
653329826356644280,26
653329826364320950,-2
653329826371997620,31
653329826379674290,281
653329826387350960,675
653329826395027630,850
653329826402704300,461
653329826410380970,-106
653329826418057640,-148
653329826425734310,70
653329826433410980,19
653329826441087650,-60
653329826448764320,-4
653329826456440990,0
653329826464117660,-34
653329826471794330,-14
6.5333E+17,2
653329826487147670,-4
653329826494824340,2
653329826502501010,12
653329826510177680,14
653329826517854350,14
653329826525531020,12
653329826533207690,14
653329826540884360,26
653329826548561030,34
653329826556237700,38
653329826563914370,51
653329826571591040,65
653329826579267710,80
653329826586944380,97
653329826594621050,114
653329826602307767,136
653329826609984298,160
653329826617660829,184
653329826625337360,204
653329826633013891,213
653329826640690422,221
653329826648366953,223
653329826656043484,211
653329826663720015,170
653329826671396546,119
653329826679073077,68
653329826686749608,14
653329826694426139,-31
653329826702102670,-60
653329826709779201,-82
653329826717455732,-92
653329826725132263,-92
653329826732808794,-92
653329826740485325,-85
653329826748161856,-72
653329826755838387,-68
653329826763514918,-77
653329826771191449,-77
653329826778867980,-68
653329826786544511,-58
653329826794221042,-48
653329826801897573,-43
653329826809574104,-36
653329826817250635,-29
653329826824927166,-26
653329826832603697,-24
653329826840280228,-19
653329826847956759,-9
653329826855633290,-7
653329826863309821,-7
653329826870986352,-7
653329826878662883,-7
653329826886339414,0
653329826894015945,4
653329826901692476,4
653329826909369007,4
653329826917045538,2
653329826924722069,7
653329826932398600,14
653329826940075131,12
653329826947751662,7
653329826955428193,4
653329826963104724,4
653329826970781255,4
653329826978457786,7
653329826986134317,9
653329826993810848,14
653329827001487379,14
653329827009163910,14
653329827016840441,17
653329827024516972,19
653329827032193503,24
653329827039870034,24
653329827047546565,24
653329827055223096,21
653329827062899627,24
653329827070576158,31
653329827078252689,31
653329827085929220,31
653329827093605751,34
653329827101282282,34
653329827108958813,34
653329827116635344,36
653329827124311875,38
653329827131988406,36
653329827139664937,36
653329827147341468,36
653329827155017999,38
653329827162689574,46
653329827170366174,60
653329827178042774,70
653329827185719374,65
653329827193395974,51
653329827201072574,41
653329827208749174,31
653329827216425774,17
653329827224102374,12
653329827231778974,14
653329827239455574,19
653329827247132174,24
653329827254808774,24
653329827262485374,-7
653329827270161974,-2
653329827277838574,206
653329827285515174,587
653329827293191774,806
653329827300868374,497
653329827308544974,-70
653329827316221574,-179
653329827323898174,41
653329827331574774,21
653329827339251374,-70
653329827346927974,-19
653329827354604574,4
653329827362281174,-24
653329827369957774,-9
653329827377634374,9
653329827385310974,7
653329827392987574,9
653329827400664174,19
653329827408340774,21
653329827416017374,26
653329827423693974,29
653329827431370574,34
653329827439047174,41
653329827446723774,41
653329827454400374,38
653329827462076974,43
653329827469753574,51
653329827477430174,68
653329827485106774,89
653329827492783374,104
653329827500459974,121
653329827508136574,145
653329827515813174,170
653329827523489774,189
653329827531166374,204
653329827538842974,211
653329827546519574,216
653329827554196174,208
653329827561872774,182
653329827569549374,133
653329827577225974,80
653329827584902574,29
653329827592579174,-12
653329827600255774,-46
653329827607932374,-68
653329827615608974,-75
653329827623285574,-75
653329827630962174,-72
653329827638638774,-70
653329827646315374,-68
653329827653991974,-63
653329827661668574,-53
653329827669345174,-48
653329827677021774,-43
653329827684698374,-41
653329827692374974,-41
653329827700051574,-43
653329827707728174,-36
653329827715404774,-26
653329827723081435,-19
653329827730758035,-17
653329827738434635,-17
653329827746111235,-24
653329827753787835,-26
653329827761464435,-21
653329827769141035,-26
653329827776817635,-34
653329827784494235,-31
653329827792170835,-26
653329827799847435,-24
653329827807524035,-19
653329827815200635,-17
653329827822877235,-14
653329827830553835,-9
653329827838230435,-12
653329827845907035,-12
653329827853583635,-7
653329827861260235,-2
653329827868936835,0
653329827876613435,2
653329827884290035,2
653329827891966635,2
653329827899643235,7
653329827907319835,14
653329827914996435,14
653329827922673035,9
653329827930349635,7
653329827938026235,7
653329827945702835,7
653329827953379435,9
653329827961056035,14
653329827968732635,12
653329827976409235,9
653329827984085835,12
653329827991762435,19
653329827999439035,21
653329828007115635,21
653329828014792235,21
653329828022468835,21
653329828030145435,21
653329828037822035,26
653329828045498635,26
653329828053175235,26
653329828060851835,29
653329828068528435,34
653329828076205035,48
653329828083881635,60
653329828091558235,53
653329828099234835,46
653329828106911435,46
653329828114588035,31
653329828122264635,19
653329828129941235,26
653329828137617835,36
653329828145294435,38
653329828152971035,38
653329828160647635,29
653329828168324235,2
653329828176000835,29
653329828183677435,245
653329828191354035,609
653329828199030635,811
653329828206707235,478
653329828214383835,-89
653329828222060435,-167
653329828229737035,58
653329828237413635,29
653329828245090235,-65
653329828252766835,-12
653329828260443435,9
653329828268120035,-29
653329828275796635,-19
653329828283458248,4
653329828291135057,2
653329828298811866,2
653329828306488675,14
653329828314165484,19
653329828321842293,24
653329828329519102,26
653329828337195911,26
653329828344872720,31
653329828352549529,43
653329828360226338,53
653329828367903147,55
653329828375579956,58
653329828383256765,58
653329828390933574,72
653329828398610383,99
653329828406287192,116
653329828413964001,131
653329828421640810,157
653329828429317619,177
653329828436994428,182
653329828444671237,189
653329828452348046,199
653329828460024855,199
653329828467701664,167
653329828475378473,111
653329828483055282,53
653329828490732091,7
653329828498408900,-31
653329828506085709,-65
653329828513762518,-87
653329828521439327,-92
653329828529116136,-94
653329828536792945,-92
653329828544469754,-85
653329828552146563,-80
653329828559823372,-75
653329828567500181,-65
653329828575176990,-63
653329828582853799,-60
653329828590530608,-53
653329828598207417,-43
653329828605884226,-34
653329828613561035,-29
653329828621237844,-26
653329828628914653,-26
653329828636591462,-21
653329828644268271,-14
653329828651945080,-14
653329828659621889,-19
653329828667298698,-14
653329828674975507,-9
653329828682652316,-17
653329828690329125,-14
653329828698005934,-7
653329828705682743,-9
653329828713359552,-12
653329828721036361,-12
653329828728713170,-9
653329828736389979,-4
653329828744066788,0
653329828751743597,0
653329828759420406,-4
653329828767097215,-7
653329828774774024,-7
653329828782450833,-7
653329828790127642,-7
653329828797804451,-12
653329828805481260,-14
653329828813158069,-7
653329828820834878,0
653329828828511687,0
653329828836188496,0
653329828843885385,7
653329828851561916,9
653329828859238447,9
653329828866914978,9
653329828874591509,9
653329828882268040,9
653329828889944571,12
653329828897621102,7
653329828905297633,0
653329828912974164,12
653329828920650695,29
653329828928327226,31
653329828936003757,24
653329828943680288,14
653329828951356819,12
653329828959033350,9
653329828966709881,2
653329828974386412,-4
653329828982062943,-4
653329828989739474,12
653329828997416005,24
653329829005092536,17
653329829012769067,-7
653329829020445598,-4
653329829028122129,138
653329829035798660,473
653329829043475191,789
653329829051151722,660
653329829058828253,82
653329829066504784,-216
653329829074181315,-24
653329829081857846,58
653329829089534377,-48
653329829097210908,-31
653329829104887439,17
653329829112563970,-7
653329829120240501,-9
653329829127917032,7
653329829135593563,7
653329829143270094,17
653329829150946625,34
653329829158623156,34
653329829166299687,34
653329829173976218,36
653329829181652749,36
653329829189329280,41
653329829197005811,58
653329829204682342,70
653329829212358873,70
653329829220035404,70
653329829227711935,87
653329829235388466,109
653329829243064997,128
653329829250741528,148
653329829258418059,167
653329829266094590,191
653329829273771121,206
653329829281447652,206
653329829289124183,201
653329829296800714,206
653329829304477245,206
653329829312153776,177
653329829319830307,126
653329829327506838,70
653329829335183369,17
653329829342859900,-26
653329829350536431,-55
653329829358212962,-82
653329829365889493,-102
653329829373566024,-99
653329829381242555,-89
653329829388919086,-85
653329829396595617,-82
653329829404272160,-80
653329829411948691,-75
653329829419625222,-75
653329829427301753,-70
653329829434978284,-63
653329829442654815,-58
653329829450331346,-51
653329829458007877,-51
653329829465684408,-55
653329829473360939,-43
653329829481037470,-31
653329829488714001,-36
653329829496390532,-34
653329829504067063,-24
653329829511743594,-19
653329829519420125,-19
653329829527096656,-17
653329829534773187,-17
653329829542449718,-14
653329829550126249,-9
653329829557802780,-4
653329829565479311,-7
653329829573155842,-7
653329829580832373,-2
653329829588508904,-2
653329829596185435,0
653329829603861966,2
653329829611538497,2
653329829619215028,2
653329829626891559,4
653329829634568090,7
653329829642244621,9
653329829649921152,12
653329829657597683,12
653329829665274214,4
653329829672950745,0
653329829680627276,2
653329829688303807,7
653329829695980338,9
653329829703656869,9
653329829711333400,14
653329829719009931,17
653329829726686462,17
653329829734362993,19
653329829742039524,24
653329829749716055,24
653329829757392586,24
653329829765069117,24
653329829772745648,24
653329829780422179,29
653329829788098710,36
653329829795775241,38
653329829803451772,36
653329829811128303,26
653329829818804834,19
653329829826481365,9
653329829834157896,9
653329829841834427,14
653329829849510958,17
653329829857187489,21
653329829864864020,26
653329829872540551,17
653329829880217082,-9
653329829887893613,70
653329829895570144,376
653329829903246675,757
653329829910923206,789
653329829918599737,272
653329829926276268,-191
653329829933952799,-89
653329829941629330,75
653329829949305861,-26
653329829956982392,-65
653329829964658935,2
653329829972335466,-2
653329829980011997,-21
653329829987688528,4
653329829995365059,12
653329830003041590,7
653329830010718121,14
653329830018394652,21
653329830026071183,17
653329830033747714,26
653329830041424245,36
653329830049100776,38
653329830056777307,43
653329830064453838,53
653329830072130369,65
653329830079806900,77
653329830087483431,87
653329830095159962,102
653329830102836493,121
653329830110513024,143
653329830118189555,167
653329830125866086,191
653329830133542617,206
653329830141219148,216
653329830148895679,223
653329830156572210,225
653329830164248741,221
653329830171925272,204
653329830179601803,165
653329830187278334,104
653329830194954865,41
653329830202631396,-7
653329830210307927,-46
653329830217984458,-72
653329830225660989,-87
653329830233337520,-94
653329830241014051,-94
653329830248690582,-89
653329830256367113,-85
653329830264043644,-80
653329830271720175,-75
653329830279396706,-68
653329830287073237,-65
653329830294749768,-70
653329830302426299,-75
653329830310102830,-63
653329830317779361,-53
653329830325455892,-53
653329830333132423,-48
653329830340808954,-38
653329830348485485,-36
653329830356162016,-29
653329830363838547,-26
653329830371515078,-26
653329830379191609,-26
653329830386868140,-21
653329830394544671,-19
653329830402221202,-21
653329830409897733,-24
653329830417574264,-21
653329830425250795,-19
653329830432927326,-17
653329830440603857,-12
653329830448280388,-9
653329830455956919,-9
653329830463633450,-7
653329830471309981,-4
653329830478986512,-4
653329830486663043,0
653329830494339574,2
653329830502016105,4
653329830509692636,7
653329830517369167,4
653329830525040742,7
653329830532717342,12
653329830540393942,17
653329830548070542,14
653329830555747142,9
653329830563423742,14
653329830571100342,19
653329830578776942,14
653329830586453542,7
653329830594130142,9
653329830601806742,14
653329830609483342,12
653329830617159942,14
653329830624836542,17
653329830632513142,21
653329830640189742,21
653329830647866342,14
653329830655542942,9
653329830663219542,14
653329830670896142,24
653329830678572742,34
653329830686249342,46
653329830693925942,46
653329830701602542,41
653329830709279142,38
653329830716955742,29
653329830724632342,19
653329830732308942,17
653329830739985542,24
653329830747662142,26
653329830755338742,26
653329830763015342,29
653329830770691942,19
653329830778368542,-2
653329830786045142,94
653329830793721742,412
653329830801398342,774
653329830809074942,753
653329830816751542,206
653329830824428142,-206
653329830832104742,-65
653329830839781342,70
653329830847457942,-38
653329830855134542,-55
653329830862811142,2
653329830870487742,-17
653329830878164342,-29
653329830885840942,0
653329830893517542,4
653329830901194142,-4
653329830908870742,12
653329830916547342,21
653329830924223942,19
653329830931900542,24
653329830939577142,38
653329830947253742,46
653329830954930342,53
653329830962606942,60
653329830970283542,63
653329830977960142,75
653329830985636742,94
653329830993313342,109
653329831000989942,123
653329831008666542,143
653329831016343142,165
653329831024019742,189
653329831031696342,211
653329831039372942,221
653329831047049542,228
653329831054726142,233
653329831062402742,230
653329831070079342,208
653329831077755942,170
653329831085442611,114
653329831093119072,55
653329831100795533,-2
653329831108471994,-53
653329831116148455,-85
653329831123824916,-89
653329831131501377,-94
653329831139177838,-102
653329831146854299,-102
653329831154530760,-94
653329831162207221,-87
653329831169883682,-80
653329831177560143,-75
653329831185236604,-68
653329831192913065,-65
653329831200589526,-58
653329831208265987,-53
653329831215942448,-51
653329831223618909,-43
653329831231295370,-34
653329831238971831,-34
653329831246648292,-34
653329831254324753,-29
653329831262001214,-24
653329831269677675,-19
653329831277354136,-19
653329831285030597,-19
653329831292707058,-26
653329831300383519,-34
653329831308059980,-29
653329831315736441,-24
653329831323412902,-24
653329831331089363,-21
653329831338765824,-17
653329831346442285,-14
653329831354118746,-14
653329831361795207,-9
653329831369471668,-4
653329831377148129,-7
653329831384824590,-12
653329831392501051,-12
653329831400177512,-7
653329831407853973,-2
653329831415530434,0
653329831423206895,2
653329831430883356,4
653329831438559817,4
653329831446236278,2
653329831453912739,4
653329831461589200,12
653329831469265661,14
653329831476942122,12
653329831484618583,12
653329831492295044,14
653329831499971505,17
653329831507647966,19
653329831515324427,19
653329831523000888,19
653329831530677349,17
653329831538353810,21
653329831546030271,29
653329831553706732,29
653329831561383193,24
653329831569059654,24
653329831576736115,31
653329831584412576,34
653329831592089037,48
653329831599765498,60
653329831607441959,51
653329831615118420,41
653329831622794881,38
653329831630471342,24
653329831638147803,12
653329831645819260,17
653329831653495791,21
653329831661172322,17
653329831668848853,21
653329831676525384,19
653329831684201915,0
653329831691878446,36
653329831699554977,272
653329831707231508,658
653329831714908039,830
653329831722584570,434
653329831730261101,-133
653329831737937632,-165
653329831745614163,53
653329831753290694,-2
653329831760967225,-85
653329831768643756,-21
653329831776320287,-7
653329831783996818,-34
653329831791673349,-17
653329831799349880,-7
653329831807026411,-24
653329831814702942,-17
653329831822379473,7
653329831830056004,14
653329831837732535,14
653329831845409066,17
653329831853085597,19
653329831860762128,31
653329831868438659,48
653329831876115190,55
653329831883791721,55
653329831891468252,60
653329831899144783,82
653329831906821314,104
653329831914497845,121
653329831922174376,145
653329831929850907,172
653329831937527438,189
653329831945203969,201
653329831952880500,213
653329831960557031,225
653329831968233562,228
653329831975910093,208
653329831983586624,174
653329831991263155,123
653329831998939686,60
653329832006616217,4
653329832014292748,-41
653329832021969279,-72
653329832029645810,-92
653329832037322341,-94
653329832044998872,-94
653329832052675403,-99
653329832060351934,-97
653329832068028465,-85
653329832075704996,-80
653329832083381527,-80
653329832091058058,-75
653329832098734589,-68
653329832106411120,-58
653329832114087651,-51
653329832121764182,-55
653329832129440713,-58
653329832137117244,-48
653329832144793775,-38
653329832152470306,-36
653329832160146837,-36
653329832167823368,-36
653329832175499899,-34
653329832183176430,-21
653329832190852961,-19
653329832198529492,-26
653329832206206035,-21
653329832213882566,-17
653329832221559097,-19
653329832229235628,-17
653329832236912159,-14
653329832244588690,-14
653329832252265221,-12
653329832259941752,-19
653329832267618283,-29
653329832275294814,-19
653329832282971345,-7
653329832290647876,-12
653329832298324407,-24
653329832306000938,-24
653329832313677469,-19
6.5333E+17,-19
653329832329030531,-19
653329832336707062,-21
653329832344383593,-17
653329832352060124,-9
653329832359736655,-4
653329832367413186,-9
653329832375089717,-14
653329832382766248,-4
653329832390442779,-4
653329832398119310,-9
653329832405795841,-4
653329832413472372,2
653329832421148903,7
653329832428825434,7
653329832436501965,7
653329832444178496,4
653329832451855027,7
653329832459531558,14
653329832467208089,26
653329832474884620,43
653329832482561151,43
653329832490237682,31
653329832497914213,29
653329832505590744,24
653329832513267275,7
653329832520943806,7
653329832528620337,19
653329832536296868,19
653329832543973399,17
653329832551649930,21
653329832559326461,17
653329832567002992,2
653329832574679523,80
653329832582356054,374
653329832590032585,753
653329832597709116,782
653329832605385647,262
653329832613062178,-199
653329832620738709,-94
653329832628415240,70
653329832636091771,-24
653329832643768302,-60
653329832651444833,0
653329832659121364,-2
653329832666797895,-19
653329832674474426,-2
653329832682150957,4
653329832689827488,2
653329832697504019,14
653329832705180550,31
653329832712857081,31
653329832720533612,29
653329832728210143,38
653329832735886674,53
653329832743563205,55
653329832751239736,63
653329832758916267,75
653329832766567754,85
653329832774244633,92
653329832781921512,109
653329832789598391,126
653329832797275270,143
653329832804952149,165
653329832812629028,174
653329832820305907,179
653329832827982786,191
653329832835659665,208
653329832843336544,208
653329832851013423,201
653329832858690302,179
653329832866367181,131
653329832874044060,70
653329832881720939,19
653329832889397818,-29
653329832897074697,-72
653329832904751576,-99
653329832912428455,-102
653329832920105334,-104
653329832927782213,-109
653329832935459092,-106
653329832943135971,-99
653329832950812850,-92
653329832958489729,-82
653329832966166608,-77
653329832973843487,-75
653329832981520366,-63
653329832989197245,-55
653329832996874124,-58
653329833004551003,-48
653329833012227882,-36
653329833019904761,-31
653329833027581640,-26
653329833035258519,-21
653329833042935398,-24
653329833050612277,-19
653329833058289156,-9
653329833065966035,-9
653329833073642914,-12
653329833081319793,-4
653329833088996672,0
653329833096673551,-7
653329833104350430,-9
653329833112027309,-9
653329833119704188,-9
653329833127381067,-4
653329833135057946,-4
653329833142734825,-9
653329833150411704,-4
653329833158088583,2
653329833165765462,4
653329833173442341,0
653329833181119220,0
653329833188796099,4
653329833196472978,12
653329833204149857,14
653329833211826736,17
653329833219503615,17
653329833227180494,14
653329833234857373,17
653329833242534252,19
653329833250211131,19
653329833257888010,21
653329833265564889,24
653329833273241768,21
653329833280918647,24
653329833288595526,29
653329833296272405,29
653329833303949284,26
653329833311626163,29
653329833319303042,26
653329833326909687,19
653329833334587542,29
653329833342265397,46
653329833349943252,46
653329833357621107,29
653329833365298962,19
653329833372976817,12
653329833380654672,-2
653329833388332527,-7
653329833396010382,4
653329833403688237,9
653329833411366092,7
653329833419043947,9
653329833426721802,0
653329833434399657,-17
653329833442077512,92
653329833449755367,420
653329833457433222,789
653329833465111077,755
653329833472788932,194
653329833480466787,-201
653329833488144642,-51
653329833495822497,70
653329833503500352,-41
653329833511178207,-51
653329833518856062,9
653329833526533917,-7
653329833534211772,-14
653329833541889627,9
653329833549567482,12
653329833557245337,9
653329833564923192,24
653329833572601047,31
653329833580278902,36
653329833587956757,41
653329833595634612,41
653329833603312467,43
653329833610990322,53
653329833618668177,63
653329833626346032,70
653329833634023887,77
653329833641701742,89
653329833649379597,104
653329833657057452,116
653329833664735307,136
653329833672413162,160
653329833680091017,182
653329833687768872,201
653329833695446727,216
653329833703124582,223
653329833710802437,225
653329833718480292,223
653329833726158147,194
653329833733836002,143
653329833741513857,85
653329833749191712,34
653329833756869567,-12
653329833764547422,-48
653329833772225277,-70
653329833779903132,-82
653329833787580987,-87
653329833795258842,-87
653329833802936697,-82
653329833810614552,-77
653329833818292407,-70
653329833825970262,-68
653329833833648117,-72
653329833841325972,-75
653329833849003827,-68
653329833856681682,-63
653329833864359537,-63
653329833872037392,-58
653329833879715247,-48
653329833887578718,-38
653329833895253995,-34
653329833902929272,-31
653329833910604549,-31
653329833918279826,-26
653329833925955103,-19
653329833933630380,-17
653329833941305657,-24
653329833948980934,-26
653329833956656211,-21
653329833964331488,-19
653329833972006765,-19
653329833979682042,-14
653329833987357319,-12
653329833995032596,-7
653329834002707873,-9
653329834010383150,-12
653329834018058427,-7
653329834025733704,0
653329834033408981,4
653329834041084258,4
653329834048759535,2
653329834056434812,2
653329834064110089,9
653329834071785366,14
653329834079460643,12
653329834087135920,12
653329834094811197,14
653329834102486474,7
653329834110161751,7
653329834117837028,14
653329834125512305,19
653329834133187582,19
653329834140862859,21
653329834148538136,17
653329834156213413,17
653329834163888690,24
653329834171563967,26
653329834179239244,29
653329834186914521,29
653329834194589798,24
653329834202265075,26
653329834209940352,36
653329834217615629,48
653329834225290906,58
653329834232966183,55
653329834240641460,48
653329834248316737,43
653329834255992014,36
653329834263667291,24
653329834271342568,26
653329834279017845,34
653329834286693122,31
653329834294368399,34
653329834302043676,38
653329834309718953,21
653329834317394230,12
653329834325069507,148
653329834332744784,490
653329834340420061,804
653329834348095338,653
653329834355770615,63
653329834363445892,-218
653329834371121169,-17
653329834378796446,51
653329834386471723,-65
6.5333E+17,-51
653329834401822277,0
653329834409497554,-21
653329834417172831,-21
653329834424848108,0
653329834432523385,2
653329834440198662,4
653329834447763637,19
653329834455440446,24
653329834463117255,24
653329834470794064,34
653329834478470873,41
653329834486147682,46
653329834493824491,51
653329834501501300,53
653329834509178109,58
653329834516854918,68
653329834524531727,85
653329834532208536,102
653329834539885345,116
653329834547562154,136
653329834555238963,160
653329834562915772,177
653329834570592581,191
653329834578269390,206
653329834585946199,216
653329834593623008,216
653329834601299817,201
653329834608976626,172
653329834616653435,126
653329834624330244,70
653329834632007053,17
653329834639683862,-26
653329834647360671,-63
653329834655037480,-85
653329834662714289,-94
653329834670391098,-97
653329834678067907,-97
653329834685744716,-92
653329834693421525,-82
653329834701098334,-80
653329834708775143,-75
653329834716451952,-68
653329834724128761,-58
653329834731805570,-48
653329834739482379,-46
653329834747159188,-48
653329834754835997,-43
653329834762512806,-34
653329834770189615,-24
653329834777866424,-24
653329834785543233,-26
653329834793220042,-24
653329834800896851,-14
653329834808573660,-9
653329834816250469,-12
653329834823927278,-9
653329834831604087,-12
653329834839280896,-21
653329834846957705,-26
653329834854634514,-21
653329834862311323,-19
653329834869988132,-14
653329834877664941,-12
653329834885341750,-14
653329834893018559,-12
653329834900695368,-4
653329834908372177,0
653329834916048986,-2
653329834923725795,-2
653329834931402604,-2
653329834939079413,4
653329834946756222,7
653329834954433031,7
653329834962109840,4
653329834969786649,7
653329834977463458,9
653329834985140267,12
653329834992817076,17
653329835000493885,21
653329835008210860,24
653329835015887112,21
653329835023563364,17
653329835031239616,14
653329835038915868,19
653329835046592120,26
653329835054268372,29
653329835061944624,24
653329835069620876,24
653329835077297128,24
653329835084973380,21
653329835092649632,26
653329835100325884,34
653329835108002136,29
653329835115678388,21
653329835123354640,21
653329835131030892,14
653329835138707144,4
653329835146383396,7
653329835154059648,14
653329835161735900,14
653329835169412152,19
653329835177088404,21
653329835184764656,4
653329835192440908,-17
653329835200117160,82
653329835207793412,395
653329835215469664,755
653329835223145916,731
653329835230822168,196
653329835238498420,-199
653329835246174672,-53
653329835253850924,75
653329835261527176,-38
653329835269203428,-58
653329835276879680,2
653329835284555932,-9
653329835292232184,-19
653329835299908436,2
653329835307584688,2
653329835315260940,4
653329835322937192,21
653329835330613444,19
653329835338289696,12
653329835345965948,14
653329835353642200,14
653329835361318452,26
653329835368994704,41
653329835376670956,41
653329835384347208,46
653329835392023460,60
653329835399699712,80
653329835407375964,94
653329835415052216,109
653329835422728468,133
653329835430404720,167
653329835438080972,191
653329835445757224,201
653329835453433476,211
653329835461109728,221
653329835468785980,225
653329835476462232,223
653329835484138484,204
653329835491814736,165
653329835499490988,106
653329835507167240,43
653329835514843492,-7
653329835522519744,-48
653329835530195996,-77
653329835537872248,-94
653329835545548500,-102
653329835553224752,-102
653329835560901004,-94
653329835568557203,-87
653329835576233734,-97
653329835583910265,-97
653329835591586796,-82
653329835599263327,-70
653329835606939858,-72
653329835614616389,-75
653329835622292920,-75
653329835629969451,-72
653329835637645982,-58
653329835645322513,-51
653329835652999044,-55
653329835660675575,-55
653329835668352106,-46
653329835676028637,-38
653329835683705168,-34
653329835691381699,-38
653329835699058230,-38
653329835706734761,-29
653329835714411292,-26
653329835722087823,-31
653329835729764354,-26
653329835737440885,-19
653329835745117416,-14
653329835752793947,-14
653329835760470478,-19
653329835768147009,-19
653329835775823540,-12
653329835783500071,-9
653329835791176602,-12
653329835798853133,-12
653329835806529664,-4
653329835814206195,-2
653329835821882726,-9
653329835829559257,-9
653329835837235788,-9
653329835844912319,-12
653329835852588850,-19
653329835860265381,-24
653329835867941912,-17
653329835875618443,-12
653329835883294974,-7
653329835890971505,-2
653329835898648036,-7
653329835906324567,-12
653329835914001098,0
653329835921677629,19
653329835929354160,31
653329835937030691,31
653329835944707222,19
653329835952383753,17
653329835960060284,14
653329835967736815,2
653329835975413346,2
653329835983089877,17
653329835990766408,17
653329835998442939,9
653329836006119470,7
653329836013796001,7
653329836021472532,2
653329836029149063,72
653329836036825594,349
653329836044502125,721
653329836052178656,767
653329836059855187,264
653329836067531718,-206
653329836075208249,-123
653329836082884780,53
653329836090561311,-19
653329836098237842,-53
653329836105914373,2
653329836113590904,-7
653329836121267435,-29
653329836128943978,-2
653329836136620509,17
653329836144297040,7
653329836151973571,9
653329836159650102,24
653329836167326633,34
653329836175003164,31
653329836182679695,24
653329836190356226,31
653329836198032757,48
653329836205709288,55
653329836213385819,60
653329836221062350,72
653329836228738881,85
653329836236415412,99
653329836244091943,126
653329836251768474,150
653329836259445005,170
653329836267121536,194
653329836274798067,213
653329836282474598,230
653329836290151129,242
653329836297827660,250
653329836305504191,240
653329836313180722,208
653329836320857253,160
653329836328533784,106
653329836336210315,48
653329836343886846,-4
653329836351563377,-43
653329836359239908,-75
653329836366916439,-92
653329836374592970,-92
653329836382269501,-97
653329836389946032,-97
653329836397622563,-92
653329836405299094,-87
653329836412975625,-85
653329836420652156,-87
653329836428328687,-80
653329836436005218,-72
653329836443681749,-70
653329836451358280,-63
653329836459034811,-55
653329836466711342,-48
653329836474387873,-46
653329836482064404,-38
653329836489740935,-36
653329836497417466,-34
653329836505093997,-26
653329836512770528,-24
653329836520447059,-21
653329836528123590,-17
653329836535800121,-14
653329836543476652,-19
653329836551153183,-17
653329836558829714,-19
653329836566506245,-24
653329836574182776,-21
653329836581859307,-19
653329836589535838,-19
653329836597212369,-14
653329836604888900,-9
653329836612565431,-9
653329836620241962,-7
653329836627918493,-7
653329836635595024,-9
653329836643271555,-2
653329836650948086,2
653329836658624617,2
653329836666301148,7
653329836673977679,7
653329836681654210,2
653329836689330753,2
653329836697007284,9
653329836704683815,14
653329836712360346,12
653329836720036877,9
653329836727713408,17
653329836735389939,26
653329836743066470,24
653329836750743001,26
653329836758419532,26
653329836766096063,12
653329836773772594,0
653329836781449125,2
653329836789125656,7
653329836796802187,9
653329836804478718,12
653329836812155249,12
653329836819831780,-2
653329836827508311,-19
653329836835184842,75
653329836842861373,391
653329836850537904,757
653329836858214435,743
653329836865890966,196
653329836873567497,-233
653329836881244028,-92
653329836888920559,63
653329836896597090,-43
653329836904273621,-68
653329836911950152,-7
653329836919626683,-21
653329836927303214,-34
653329836934979745,-4
653329836942656276,4
653329836950332807,0
653329836958009338,7
653329836965685869,19
653329836973362400,26
653329836981038931,34
653329836988715462,34
653329836996391993,38
653329837004068524,48
653329837011745055,60
653329837019421586,72
653329837027098117,85
653329837034774648,99
653329837042451179,114
653329837050127710,123
653329837057804241,136
653329837065480772,160
653329837073157303,191
653329837080833834,213
653329837088510365,225
653329837096186896,233
653329837103863427,235
653329837111539958,230
653329837119216489,208
653329837126893020,160
653329837134569551,102
653329837142246082,46
653329837149922613,2
653329837157599144,-29
653329837165275675,-48
653329837172952206,-55
653329837180628737,-55
653329837188305268,-58
653329837195981799,-58
653329837203658330,-55
653329837211334861,-51
653329837219011392,-46
653329837226687923,-41
653329837234364454,-41
653329837242040985,-38
653329837249717528,-31
653329837257394059,-29
653329837265070590,-34
653329837272747121,-36
653329837280423652,-31
653329837288100183,-29
653329837295776714,-34
653329837303453245,-41
653329837311129776,-38
653329837318806307,-34
653329837326482838,-36
653329837334159369,-38
653329837341835900,-31
653329837349512431,-26
653329837357188962,-24
653329837364865493,-26
653329837372542024,-34
653329837380218555,-38
653329837387895086,-31
653329837395571617,-24
653329837403248148,-26
653329837410924679,-26
653329837418601210,-21
653329837426277741,-17
653329837433954272,-14
653329837441630803,-12
653329837449307334,-12
653329837456983865,-9
653329837464660396,-4
653329837472336927,-2
653329837480013458,-2
653329837487689989,0
653329837495366520,7
653329837503043051,9
653329837510719582,4
653329837518396113,4
653329837526072644,12
653329837533749175,14
653329837541425706,12
653329837549102237,9
653329837556778768,9
653329837564455299,9
653329837572131830,17
653329837579808361,29
653329837587484892,34
653329837595161423,38
653329837602837954,43
653329837610514485,29
653329837618191016,9
653329837625867547,14
653329837633544078,21
653329837641220609,21
653329837648897140,21
653329837656573671,24
653329837664250202,24
653329837671926733,0
653329837679603264,24
653329837687279795,245
653329837694956326,631
653329837702632857,835
653329837710309388,488
653329837717985919,-85
653329837725662450,-157
653329837733338981,63
653329837741015512,26
653329837748692043,-63
653329837756368574,-9
653329837764045105,9
653329837771721636,-17
653329837779398167,0
653329837787074698,12
653329837794751229,2
653329837802427760,9
653329837810104303,26
653329837817780834,29
653329837825457365,29
653329837833133896,36
653329837840810427,43
653329837848486958,51
653329837856163489,58
653329837863840020,55
653329837871516551,51
653329837879193082,55
653329837886869613,75
653329837894546144,97
653329837902222675,114
653329837909899206,138
653329837917575737,165
653329837925252268,184
653329837932928799,199
653329837940605330,216
653329837948281861,230
653329837955958392,230
653329837963634923,213
653329837971311454,174
653329837978987985,126
653329837986664516,72
653329837994341047,26
653329838002017578,-14
653329838009694109,-46
653329838017370640,-58
653329838025047171,-60
653329838032723702,-60
653329838040400233,-65
653329838048076764,-58
653329838055753295,-53
653329838063429826,-51
653329838071106357,-46
653329838078782888,-38
653329838086459419,-36
653329838094135950,-34
653329838101812481,-31
653329838109489012,-31
653329838117165543,-26
653329838124842074,-17
653329838132518605,-14
653329838140195136,-21
653329838147871667,-24
653329838155548198,-24
653329838163224729,-24
653329838170901260,-26
653329838178577791,-29
653329838186254322,-26
653329838193930853,-24
653329838201607384,-24
653329838209283915,-24
653329838216960446,-19
653329838224636977,-19
653329838232313508,-19
653329838239990039,-19
653329838247666570,-19
653329838255343101,-17
653329838263019632,-12
653329838270696163,-9
653329838278372694,-7
653329838286049225,-12
653329838293725756,-19
653329838301402287,-14
653329838309078818,-2
653329838316755349,-4
653329838324431880,-7
653329838332108411,-2
653329838339784942,2
653329838347461473,0
653329838355138004,0
653329838362814535,2
653329838370491078,7
653329838378167609,7
653329838385844140,-9
653329838393520671,-14
653329838401197202,-4
653329838408873733,-2
653329838416550264,-7
653329838424226795,-4
653329838431903326,0
653329838439579857,9
653329838447256388,19
653329838454932919,12
653329838462609450,9
653329838470285981,9
653329838477962512,-2
653329838485639043,-9
653329838493315574,-2
653329838500992105,0
653329838508668636,0
653329838516345167,4
653329838524021698,2
653329838531698229,-14
653329838539374760,-26
653329838547051291,82
653329838554727822,408
653329838562404353,760
653329838570080884,702
653329838577757415,145
653329838585433946,-218
653329838593110477,-55
653329838600787008,58
653329838608463539,-55
653329838616140070,-65
653329838623816601,-4
653329838631493132,-17
653329838639169663,-29
653329838646846194,-7
653329838654522725,0
653329838662199256,0
653329838669875787,14
653329838677552318,21
653329838685228849,17
653329838692905380,19
653329838700581911,26
653329838708258442,38
653329838715934973,48
653329838723611504,55
653329838731288035,68
653329838738964566,80
653329838746641097,92
653329838754317628,102
653329838761994159,111
653329838769670690,133
653329838777347221,170
653329838785023752,199
653329838792700283,211
653329838800376814,218
653329838808053345,228
653329838815729876,242
653329838823406407,235
653329838831082938,204
653329838838759469,157
6.5333E+17,102
653329838854112531,46
653329838861789062,2
653329838869465593,-31
653329838877142124,-53
653329838884818655,-72
653329838892495186,-89
653329838900171717,-92
653329838907848248,-85
653329838915524779,-75
653329838923201310,-65
653329838930877853,-58
653329838938554384,-55
653329838946230915,-48
653329838953907446,-41
653329838961583977,-41
653329838969260508,-43
653329838976937039,-48
653329838984613570,-55
653329838992290101,-48
653329838999966632,-36
653329839007643163,-34
653329839015319694,-36
653329839022996225,-41
653329839030672756,-43
653329839038349287,-43
653329839046025818,-51
653329839053702349,-55
653329839061378880,-48
653329839069055411,-36
653329839076731942,-36
653329839084408473,-43
653329839092085004,-41
653329839099761535,-31
653329839107438066,-34
653329839115114597,-38
653329839122791128,-34
653329839130467659,-31
653329839138144190,-26
653329839145820721,-21
653329839153497252,-24
653329839161173783,-21
653329839168850314,-19
653329839176526845,-19
653329839184203376,-14
653329839191879907,-7
653329839199556438,-7
653329839207232969,-7
653329839214909500,-9
653329839222586031,-9
653329839230262562,-7
653329839237939093,2
653329839245615624,7
653329839253292155,4
653329839260968686,2
653329839268645217,-2
653329839276321748,4
653329839283998279,19
653329839291674810,21
653329839299351341,26
653329839307027872,24
653329839314704403,9
653329839322380934,0
653329839330057465,4
653329839337733996,7
653329839345410527,9
653329839353087058,14
653329839360763589,19
653329839368440120,17
653329839376116651,-4
653329839383793182,4
653329839391469713,189
653329839399146244,553
653329839406822775,799
653329839414499306,517
653329839422175837,-75
653329839429852368,-211
653329839437528899,21
653329839445205430,21
653329839452881961,-75
653329839460558492,-29
653329839468235023,2
653329839475911554,-21
653329839483588085,-17
653329839491264628,-2
653329839498941159,4
653329839506617690,12
653329839514294221,14
653329839521970752,19
653329839529647283,26
653329839537323814,19
653329839545000345,14
653329839552676876,29
653329839560353407,48
653329839568029938,55
653329839575706469,55
6.5333E+17,65
653329839591059531,89
653329839598736062,111
653329839606412593,128
653329839614089124,150
653329839621765655,177
653329839629442186,196
653329839637118717,216
653329839644795248,230
653329839652471779,233
653329839660148310,238
653329839667824841,225
653329839675501372,184
653329839683177903,131
653329839690854434,77
653329839698530965,29
653329839706207496,-9
653329839713884027,-38
653329839721560558,-60
653329839729237089,-65
653329839736913620,-60
653329839744590151,-58
653329839752266682,-55
653329839759943213,-60
653329839767619744,-60
653329839775296275,-53
653329839782972806,-48
653329839790649337,-46
653329839798325868,-43
653329839806002399,-38
653329839813678930,-34
653329839821355461,-31
653329839829031992,-26
653329839836708523,-19
653329839844385054,-17
653329839852061585,-21
653329839859738116,-24
653329839867414647,-21
653329839875091178,-21
653329839882767709,-19
653329839890444240,-21
653329839898120771,-36
653329839905797302,-41
653329839913473833,-29
653329839921150364,-26
653329839928826895,-31
653329839936503426,-29
653329839944179957,-24
653329839951856488,-24
653329839959533019,-26
653329839967209550,-21
653329839974886081,-17
653329839982562612,-12
653329839990239143,-12
653329839997915674,-17
653329840005592205,-19
653329840013268736,-17
653329840020945267,-14
653329840028621798,-14
653329840036298329,-14
653329840043974860,-12
653329840051651403,-4
653329840059327934,0
653329840067004465,0
653329840074680996,2
653329840082357527,7
653329840090034058,7
653329840097710589,0
653329840105387120,-7
653329840113063651,-2
653329840120740182,7
653329840128416713,7
653329840136093244,0
653329840143769775,2
653329840151446306,17
653329840159122837,29
653329840166799368,31
653329840174475899,34
653329840182152430,34
653329840189828961,21
653329840197505492,9
653329840205182023,12
653329840212858554,21
653329840220535085,26
653329840228211616,21
653329840235888147,21
653329840243564678,19
653329840251241209,-7
653329840258917740,9
653329840266594271,228
653329840274270802,619
653329840281947333,842
653329840289623864,510
653329840297300395,-80
653329840304976926,-174
653329840312653457,51
653329840320329988,24
653329840328006519,-68
653329840335683050,-12
653329840343359581,7
653329840351036112,-21
653329840358712643,-4
653329840366389174,14
653329840374065705,7
653329840381742236,14
653329840389418767,26
653329840397095298,21
653329840404771829,14
653329840412448360,19
653329840420124891,29
653329840427801422,36
653329840435477953,46
653329840443154484,58
653329840450831015,68
653329840458507546,75
653329840466184077,89
653329840473860608,109
653329840481537139,133
653329840489213670,155
653329840496890201,170
653329840504566732,184
653329840512243263,204
653329840519919794,218
653329840527596325,228
653329840535272856,230
653329840542949387,218
653329840550625918,182
653329840558302449,128
653329840565978980,77
653329840573655511,31
653329840581332042,-9
653329840589008573,-41
653329840596685104,-60
653329840604361635,-72
653329840612008082,-72
653329840619685031,-65
653329840627361980,-65
653329840635038929,-63
653329840642715878,-60
653329840650392827,-55
653329840658069776,-60
653329840665746725,-70
653329840673423674,-72
653329840681100623,-65
653329840688777572,-63
653329840696454521,-60
653329840704131470,-55
653329840711808419,-48
653329840719485368,-43
653329840727162317,-38
653329840734839266,-41
653329840742516215,-41
653329840750193164,-38
653329840757870113,-34
653329840765547062,-31
653329840773224011,-34
653329840780900960,-31
653329840788577909,-26
653329840796254858,-24
653329840803931807,-26
653329840811608756,-21
653329840819285705,-17
653329840826962654,-17
653329840834639603,-19
653329840842316552,-14
653329840849993501,-7
653329840857670450,-4
653329840865347399,-2
653329840873024348,-4
653329840880701297,-2
653329840888378246,2
653329840896055195,4
653329840903732144,-2
653329840911409093,-9
653329840919086042,-4
653329840926762991,2
653329840934439940,2
653329840942116889,0
653329840949793838,7
653329840957470787,12
653329840965147736,9
653329840972824685,12
653329840980501634,14
653329840988178583,14
653329840995855532,12
653329841003532481,9
653329841011209430,7
653329841018886379,9
653329841026563328,17
653329841034240277,21
653329841041917226,21
653329841049594175,19
653329841057271124,17
653329841064948073,21
653329841072625022,36
653329841080301971,48
653329841087978920,51
653329841095655869,48
653329841103332818,43
653329841111009767,29
653329841118686716,19
653329841126363665,26
653329841134040614,34
653329841141717563,36
653329841149394512,31
653329841157071461,34
653329841164748410,29
653329841172455471,7
653329841180132002,60
653329841187808533,327
653329841195485064,711
653329841203161595,811
653329841210838126,354
653329841218514657,-157
653329841226191188,-119
653329841233867719,70
653329841241544250,-12
653329841249220781,-75
653329841256897312,-9
653329841264573843,-4
653329841272250374,-29
653329841279926905,-4
653329841287603436,7
653329841295279967,0
653329841302956498,9
653329841310633029,24
653329841318309560,29
653329841325986091,31
653329841333662622,34
653329841341339153,41
653329841349015684,51
653329841356692215,60
653329841364368746,68
653329841372045277,77
653329841379721808,89
653329841387398339,104
653329841395074870,121
653329841402751401,138
653329841410427932,155
653329841418104463,167
653329841425780994,182
653329841433457525,201
653329841441134056,216
653329841448810587,218
653329841456487118,218
653329841464163649,204
653329841471840180,167
653329841479516711,116
653329841487193242,58
653329841494869773,4
653329841502546304,-36
653329841510222835,-65
653329841517899366,-85
653329841525575897,-92
653329841533252428,-94
653329841540928959,-94
653329841548605490,-89
653329841556282021,-80
653329841563958552,-75
653329841571635083,-72
653329841579311614,-68
653329841586988145,-60
653329841594664676,-51
653329841602341207,-48
653329841610017738,-48
653329841617694269,-41
653329841625370800,-31
653329841633047331,-29
653329841640723862,-26
653329841648400393,-24
653329841656076924,-21
653329841663753455,-17
653329841671429986,-14
653329841679106517,-14
653329841686783048,-12
653329841694459579,-7
653329841702136110,-7
653329841709812641,-7
653329841717489172,-4
653329841725165703,-7
653329841732842246,-12
653329841740518777,-14
653329841748195308,-12
653329841755871839,-7
653329841763548370,-4
653329841771224901,0
653329841778901432,-2
653329841786577963,-2
653329841794254494,0
653329841801931025,4
653329841809607556,4
653329841817284087,-7
653329841824960618,-12
653329841832637149,-4
653329841840313680,0
653329841847990211,0
653329841855666742,2
653329841863343273,9
653329841871019804,12
653329841878696335,4
653329841886372866,2
653329841894049397,7
653329841901725928,14
653329841909402459,14
653329841917078990,4
653329841924755521,-2
653329841932432052,0
653329841940108583,2
653329841947785114,2
653329841955461645,7
653329841963138176,12
653329841970814707,9
653329841978491238,2
653329841986167769,0
653329841993844300,17
653329842001520831,36
653329842009197362,36
653329842016873893,21
653329842024550424,19
653329842032226955,24
653329842039903486,14
653329842047580017,7
653329842055256548,14
653329842062933079,19
653329842070609610,14
653329842078286141,24
653329842085962672,24
653329842093639203,-2
653329842101315734,7
653329842108992265,191
653329842116668796,551
653329842124345327,808
653329842132021858,563
653329842139698389,-17
653329842147374920,-187
653329842155051451,29
653329842162727982,41
653329842170404513,-68
653329842178081044,-26
653329842185757575,9
653329842193434106,-17
653329842201110637,-12
653329842208787168,12
653329842216463699,9
653329842224140230,4
653329842231816761,12
653329842239493292,19
653329842247169823,21
653329842254846354,31
653329842262522885,38
653329842270199416,36
653329842277875947,46
653329842285552478,65
653329842293209005,70
653329842300885814,72
653329842308562623,82
653329842316239432,92
653329842323916241,114
653329842331593050,143
653329842339269859,162
653329842346946668,179
653329842354623477,201
653329842362300286,211
653329842369977095,206
653329842377653904,199
653329842385330713,189
653329842393007522,165
653329842400684331,119
653329842408361140,63
653329842416037949,12
653329842423714758,-38
653329842431391567,-89
653329842439068376,-111
653329842446745185,-114
653329842454421994,-119
653329842462098803,-119
653329842469775612,-114
653329842477452421,-114
653329842485129230,-111
653329842492806039,-102
653329842500482848,-87
653329842508159657,-80
653329842515836466,-75
653329842523513275,-75
653329842531190084,-70
653329842538866893,-53
653329842546543702,-48
653329842554220511,-55
653329842561897320,-43
653329842569574129,-34
653329842577250938,-36
653329842584927747,-29
653329842592604556,-21
653329842600281365,-24
653329842607958174,-24
653329842615634983,-21
653329842623311792,-26
653329842630988601,-26
653329842638665410,-12
653329842646342219,-4
653329842654019028,-14
653329842661695837,-17
653329842669372646,-9
653329842677049455,-9
653329842684726264,-12
653329842692403073,-9
653329842700079882,-2
653329842707756691,0
653329842715433500,-12
653329842723110309,-17
653329842730787118,-7
653329842738463927,-4
653329842746140736,-7
653329842753817545,-2
653329842761494354,0
653329842769171163,-4
653329842776847972,2
653329842784524781,12
653329842792201590,7
653329842799878399,4
653329842807555208,9
653329842815232017,7
653329842822908826,4
653329842830585635,14
653329842838262444,17
653329842845939253,14
653329842853626132,17
653329842861302802,17
653329842868979472,19
653329842876656142,34
653329842884332812,48
653329842892009482,43
653329842899686152,26
653329842907362822,12
653329842915039492,9
653329842922716162,9
653329842930392832,2
653329842938069502,-9
653329842945746172,-4
653329842953422842,7
653329842961099512,2
653329842968776182,-19
653329842976452852,-36
653329842984129522,58
653329842991806192,361
653329842999482862,728
653329843007159532,736
653329843014836202,216
653329843022512872,-218
653329843030189542,-99
653329843037866212,55
653329843045542882,-38
653329843053219552,-63
653329843060896222,-2
653329843068572892,-17
653329843076249562,-36
653329843083926232,-9
653329843091602902,4
653329843099279572,2
653329843106956242,17
653329843114632912,26
653329843122309582,21
653329843129986252,24
653329843137662922,38
653329843145339592,48
653329843153016262,43
653329843160692932,46
653329843168369602,63
653329843176046272,77
653329843183722942,80
653329843191399612,94
653329843199076282,116
653329843206752952,126
653329843214429622,128
653329843222106292,153
653329843229782962,179
653329843237459632,194
653329843245136302,204
653329843252812972,206
653329843260489642,204
653329843268166312,187
653329843275842982,143
653329843283519652,89
653329843291196322,38
653329843298872992,-4
653329843306549662,-46
653329843314226332,-72
653329843321903002,-87
653329843329579672,-92
653329843337256342,-89
653329843344933012,-80
653329843352609682,-75
653329843360286352,-75
653329843367963022,-70
653329843375639692,-60
653329843383316362,-55
653329843390993032,-51
653329843398669702,-46
653329843406346372,-41
653329843414033089,-38
653329843421709620,-31
653329843429386151,-26
653329843437062682,-29
653329843444739213,-36
653329843452415744,-43
653329843460092275,-48
653329843467768806,-48
653329843475445337,-41
653329843483121868,-38
653329843490798399,-36
653329843498474930,-36
653329843506151461,-34
653329843513827992,-29
653329843521504523,-26
653329843529181054,-24
653329843536857585,-24
653329843544534116,-21
653329843552210647,-19
653329843559887178,-14
653329843567563709,-14
653329843575240240,-14
653329843582916771,-9
653329843590593302,-7
653329843598269833,-7
653329843605946364,-2
653329843613622895,2
653329843621299426,2
653329843628975957,2
653329843636652488,2
653329843644329019,2
653329843652005550,7
653329843659682081,14
653329843667358612,12
653329843675035143,7
653329843682711674,12
653329843690388205,17
653329843698064736,12
653329843705741267,4
653329843713417798,2
653329843721094329,9
653329843728770860,12
653329843736447391,14
653329843744123922,17
653329843751800453,29
653329843759476984,43
653329843767153515,51
653329843774830046,41
653329843782506577,36
653329843790183108,36
653329843797859639,29
653329843805536170,19
653329843813212701,17
653329843820889232,21
653329843828565763,29
653329843836242294,36
653329843843918825,29
653329843851595356,4
653329843859271887,14
653329843866948418,204
653329843874624949,580
653329843882301480,845
653329843889978011,585
653329843897654542,-9
653329843905331073,-184
653329843913007604,36
653329843920684135,48
653329843928360666,-58
653329843936037197,-17
653329843943713728,12
653329843951390259,-29
653329843959066790,-24
653329843966743321,4
653329843974389768,4
653329843982066717,9
653329843989743666,21
653329843997420615,24
653329844005097564,26
653329844012774513,36
653329844020451462,34
653329844028128411,26
653329844035805360,31
653329844043482309,46
653329844051159258,51
653329844058836207,55
653329844066513156,72
653329844074190105,92
653329844081867054,106
653329844089544003,121
653329844097220952,138
653329844104897901,155
653329844112574850,177
653329844120251799,191
653329844127928748,194
653329844135605697,194
653329844143282646,189
653329844150959595,165
653329844158636544,121
653329844166313493,63
653329844173990442,12
653329844181667391,-29
653329844189344340,-65
653329844197021289,-92
653329844204698238,-97
653329844212375187,-94
653329844220052136,-94
653329844227729085,-92
653329844235406034,-87
653329844243082983,-82
653329844250759932,-72
653329844258436881,-60
653329844266113830,-55
653329844273790779,-51
653329844281467728,-46
653329844289144677,-38
653329844296821626,-34
653329844304498575,-26
653329844312175524,-19
653329844319852473,-17
653329844327529422,-14
653329844335206371,-9
653329844342883320,-4
653329844350560269,-2
653329844358237218,0
653329844365914167,2
653329844373591116,2
653329844381268065,4
653329844388945014,12
653329844396621963,14
653329844404298912,12
653329844411975861,12
653329844419652810,14
653329844427329759,17
653329844435006708,17
653329844442683657,9
653329844450360606,2
653329844458037555,0
653329844465714504,2
653329844473391453,2
653329844481068402,7
653329844488745351,14
653329844496422300,17
653329844504099249,14
653329844511776198,14
653329844519453147,19
653329844527130096,24
653329844534837157,26
653329844542513688,29
653329844550190219,26
653329844557866750,26
653329844565543281,29
653329844573219812,31
653329844580896343,24
653329844588572874,19
653329844596249405,21
653329844603925936,24
653329844611602467,21
653329844619278998,21
653329844626955529,26
653329844634632060,26
653329844642308591,21
653329844649985122,26
653329844657661653,41
653329844665338184,53
653329844673014715,53
653329844680691246,43
653329844688367777,31
653329844696044308,19
653329844703720839,14
653329844711397370,17
653329844719073901,24
653329844726750432,24
653329844734426963,24
653329844742103494,26
653329844749780025,12
653329844757456556,-2
653329844765133087,99
653329844772809618,415
653329844780486149,774
653329844788162680,748
653329844795839211,199
653329844803515742,-196
653329844811192273,-43
653329844818868804,85
653329844826545335,-26
653329844834221866,-43
653329844841898397,14
653329844849574928,0
653329844857251459,-9
653329844864927990,17
653329844872604521,19
653329844880281052,17
653329844887957583,29
653329844895634114,38
653329844903310645,38
653329844910987176,48
653329844918663707,58
653329844926340238,58
653329844934016769,55
653329844941693300,63
653329844949369831,63
653329844957046362,63
653329844964722893,72
653329844972399424,87
653329844980075955,109
653329844987752486,133
653329844995429017,150
653329845003105548,167
653329845010782079,189
653329845018458610,201
653329845026135141,208
653329845033811672,216
653329845041488203,213
653329845049164734,196
653329845056841265,160
653329845064517796,106
653329845072194327,48
653329845079870858,4
653329845087547389,-26
653329845095223932,-51
653329845102900463,-65
653329845110576994,-68
653329845118253525,-65
653329845125930056,-63
653329845133606587,-58
653329845141283118,-51
653329845148959649,-46
653329845156636180,-41
653329845164312711,-36
653329845171989242,-29
653329845179665773,-26
653329845187342304,-29
653329845195018835,-24
653329845202695366,-19
653329845210371897,-24
653329845218048428,-24
653329845225724959,-12
653329845233401490,-7
653329845241078021,-14
653329845248754552,-12
653329845256431083,-2
653329845264107614,0
653329845271784145,-2
653329845279460676,-2
653329845287137207,2
653329845294813738,7
653329845302490269,7
653329845310166800,14
653329845317843331,14
653329845325519862,4
653329845333196393,2
653329845340872924,2
653329845348549455,9
653329845356225986,14
653329845363902517,7
653329845371579048,14
653329845379255579,24
653329845386932110,9
653329845394608641,-4
653329845402285172,9
653329845409961703,17
653329845417638234,7
653329845425314765,4
653329845432991296,9
653329845440667827,4
653329845448344358,7
653329845456020889,4
653329845463697420,-7
653329845471373951,-7
653329845479050482,-2
653329845486727013,-4
653329845494403544,-4
653329845502080075,2
653329845509756606,9
653329845517433137,9
653329845525109668,12
653329845532786199,24
653329845540462730,36
653329845548139261,36
653329845555815792,34
653329845563492323,24
653329845571168854,9
653329845578845385,4
653329845586521916,9
653329845594198447,17
653329845601874978,17
653329845609551509,12
653329845617228040,19
653329845624904571,4
653329845632581102,-12
653329845640257633,131
653329845647934164,493
653329845655610707,806
653329845663287238,646
653329845670963769,53
653329845678640300,-230
653329845686316831,-24
653329845693993362,55
653329845701669893,-60
653329845709346424,-48
653329845717022955,2
653329845724699486,-21
653329845732376017,-24
653329845740052548,-9
653329845747729079,-12
653329845755405610,-2
653329845763082141,17
653329845770758672,21
653329845778435203,19
653329845786111734,29
653329845793788265,41
653329845801464796,38
653329845809141327,46
653329845816817858,63
653329845824494389,65
653329845832170920,77
653329845839847451,99
653329845847523982,114
653329845855200513,131
653329845862877044,155
653329845870553575,177
653329845878230106,196
653329845885906637,216
653329845893583168,230
653329845901259699,242
653329845908936230,247
653329845916612761,233
653329845924289292,199
653329845931965823,155
653329845939642354,92
653329845947318885,17
653329845954995416,-26
653329845962671947,-60
653329845970348478,-97
653329845978025009,-114
653329845985701540,-109
653329845993378071,-104
653329846001054602,-99
653329846008731133,-97
653329846016407664,-92
653329846024084195,-82
653329846031760726,-77
653329846039437257,-72
653329846047113788,-68
653329846054790319,-60
653329846062466850,-53
653329846070143381,-48
653329846077819912,-46
653329846085496443,-38
653329846093172974,-34
653329846100849505,-26
653329846108526036,-19
653329846116202567,-19
653329846123879098,-21
653329846131555629,-17
653329846139232160,-9
653329846146908691,-4
653329846154585222,-2
653329846162261753,-9
653329846169938284,-17
653329846177614815,-14
653329846185291346,-7
653329846192967877,-7
653329846200644408,-9
653329846208320939,-4
653329846215972426,-4
653329846223649305,-7
653329846231326184,-4
653329846239003063,-2
653329846246679942,2
653329846254356821,4
653329846262033700,-7
653329846269710579,-19
653329846277387458,-9
653329846285064337,4
653329846292741216,0
653329846300418095,-2
653329846308094974,2
653329846315771853,4
653329846323448732,4
653329846331125611,7
653329846338802490,12
653329846346479369,17
653329846354156248,19
653329846361833127,14
653329846369510006,12
653329846377186885,21
653329846384863764,41
653329846392540643,53
653329846400217522,48
653329846407894401,34
653329846415571280,24
653329846423248159,21
653329846430925038,14
653329846438601917,9
653329846446278796,14
653329846453955675,26
653329846461632554,24
653329846469309433,9
653329846476986312,-7
653329846484663191,-14
653329846492340070,111
653329846500016949,454
653329846507693828,801
653329846515370707,709
653329846523047586,126
653329846530724465,-218
653329846538401344,-36
653329846546078223,65
653329846553755102,-46
653329846561431981,-41
653329846569108860,9
653329846576785739,-14
653329846584462618,-19
653329846592139497,9
653329846599816376,12
653329846607493255,12
653329846615170134,26
653329846622847013,34
653329846630523892,31
653329846638200771,38
653329846645877650,46
653329846653554529,46
653329846661231408,51
653329846668908287,63
653329846676585166,68
653329846684262045,77
653329846691938924,97
653329846699615803,114
653329846707292682,128
653329846714969561,148
653329846722646440,172
653329846730323319,194
653329846738000198,213
653329846745677077,228
653329846753353956,233
653329846761030835,235
653329846768707714,233
653329846776404719,211
653329846784081319,165
653329846791757919,104
653329846799434519,48
653329846807111119,0
653329846814787719,-41
653329846822464319,-72
653329846830140919,-85
653329846837817519,-85
653329846845494119,-80
653329846853170719,-77
653329846860847319,-72
653329846868523919,-68
653329846876200519,-58
653329846883877119,-51
653329846891553719,-46
653329846899230319,-48
653329846906906919,-53
653329846914583519,-46
653329846922260119,-29
653329846929936719,-26
653329846937613319,-26
653329846945289919,-17
653329846952966519,-12
653329846960643119,-14
653329846968319719,-21
653329846975996319,-24
653329846983672919,-14
653329846991349519,-12
653329846999026119,-19
653329847006702719,-17
653329847014379319,-9
653329847022055919,-9
653329847029732519,-12
653329847037409119,-9
653329847045085719,-7
653329847052762319,-4
653329847060438919,-2
653329847068115519,-2
653329847075792119,0
653329847083468719,4
653329847091145319,2
653329847098821919,2
653329847106498519,7
653329847114175119,9
653329847121851719,12
653329847129528319,12
653329847137204919,9
653329847144881519,9
653329847152558119,9
653329847160234719,12
653329847167911319,14
653329847175587919,12
653329847183264519,12
653329847190941119,19
653329847198617719,21
653329847206294319,21
653329847213970919,24
653329847221647519,29
653329847229324119,29
653329847237000719,29
653329847244677319,31
653329847252353919,34
653329847260030519,36
653329847267707119,43
653329847275383719,51
653329847283060319,60
653329847290736919,58
653329847298413519,51
653329847306090119,46
653329847313766719,34
653329847321443319,24
653329847329119919,31
653329847336801548,41
653329847344478079,38
653329847352154610,38
653329847359831141,41
653329847367507672,21
653329847375184203,9
653329847382860734,145
653329847390537265,497
653329847398213796,821
653329847405890327,670
653329847413566858,75
653329847421243389,-213
653329847428919920,-9
653329847436596451,63
653329847444272982,-55
653329847451949513,-41
653329847459626044,4
653329847467302575,-26
653329847474979106,-36
653329847482655637,-7
653329847490332168,-2
653329847498008699,-4
653329847505685230,7
653329847513361761,17
653329847521038292,19
653329847528714823,26
653329847536391354,38
653329847544067885,43
653329847551744416,46
653329847559420947,55
653329847567097478,68
653329847574774009,80
653329847582450540,94
653329847590127071,106
653329847597803602,121
653329847605480133,145
653329847613156664,172
653329847620833195,189
653329847628509726,204
653329847636186257,211
653329847643862788,213
653329847651539319,218
653329847659215850,213
653329847666892381,187
653329847674568912,143
653329847682245443,87
653329847689921974,26
653329847697598505,-24
653329847705275036,-60
653329847712951567,-80
653329847720628098,-89
653329847728304629,-94
653329847735981160,-97
653329847743657691,-92
653329847751334222,-82
653329847759010753,-77
653329847766687284,-72
653329847774363815,-68
653329847782040346,-63
653329847789716877,-55
653329847797393408,-48
653329847805069939,-43
653329847812746470,-38
653329847820423001,-34
653329847828099532,-29
653329847835776063,-29
653329847843452594,-26
653329847851129125,-19
653329847858805656,-14
653329847866482187,-14
653329847874158718,-14
653329847881835249,-14
653329847889511780,-14
653329847897188325,-14
653329847904864856,-12
653329847912541387,-14
653329847920217918,-14
653329847927894449,-12
653329847935570980,-12
653329847943247511,-17
653329847950924042,-17
653329847958600573,-12
653329847966277104,-19
653329847973953635,-29
653329847981630166,-29
653329847989306697,-21
653329847996983228,-14
653329848004659759,-14
653329848012336290,-17
653329848020012821,-12
653329848027689352,-2
653329848035365883,2
653329848043042414,-2
653329848050718945,-2
653329848058395476,0
653329848066072007,4
653329848073748538,4
653329848081425069,7
653329848089101600,12
653329848096778131,17
653329848104454662,14
653329848112131193,9
653329848119807724,14
653329848127484255,19
653329848135160786,12
653329848142837317,9
653329848150513848,14
653329848158190379,9
653329848165866910,9
653329848173543441,21
653329848181219972,21
653329848188896503,24
653329848196573034,43
653329848204249565,53
653329848211926096,43
653329848219602627,36
653329848227279158,31
653329848234955689,17
653329848242632220,12
653329848250308751,19
653329848257985282,26
653329848265661813,26
653329848273338344,29
653329848281014875,24
653329848288691406,-2
653329848296367937,17
653329848304044468,228
653329848311720999,614
653329848319397530,842
653329848327074061,527
653329848334750592,-63
653329848342427123,-179
653329848350103654,48
653329848357780185,34
653329848365456716,-65
653329848373133247,-17
653329848380809778,4
653329848388486309,-31
653329848396162840,-19
653329848403839371,2
653329848411515902,2
653329848419192433,12
653329848426868964,19
653329848434545495,17
653329848442222026,26
653329848449898557,38
653329848457575100,38
653329848465251631,43
653329848472928162,48
653329848480604693,41
653329848488281224,51
653329848495957755,72
653329848503634286,77
653329848511310817,89
653329848518987348,116
653329848526663879,138
653329848534340410,148
653329848542016941,160
653329848549693472,184
653329848557370003,204
653329848565046534,206
653329848572723065,206
653329848580399596,201
653329848588076127,174
653329848595752658,121
653329848603429189,58
653329848611105720,-4
653329848618782251,-51
