timestamp ecg,
652984673685113069,14112
652984673692787509,14051
652984673700461949,13992
652984673708136389,13929
652984673715810829,13846
652984673723485269,13780
652984673731159709,13724
652984673738834149,13656
652984673746508589,13600
652984673754183029,13551
652984673761857469,13471
652984673769531909,13383
652984673777206349,13293
652984673784880789,13142
652984673792555229,12976
652984673800229669,12832
652984673807904109,12674
652984673815578549,12520
652984673823252989,12408
652984673830927429,12313
652984673838601869,12196
652984673846276309,12074
652984673853950749,11955
652984673861625189,11855
652984673869299629,11782
652984673876974069,11694
652984673884648509,11594
652984673892322949,11499
652984673899997389,11399
652984673907671829,11306
652984673915346269,11219
652984673923020709,11106
652984673930695149,10997
652984673938369589,10924
652984673946044029,10841
652984673953718469,10729
652984673961392909,10631
652984673969067349,10543
652984673976741789,10453
652984673984416229,10361
652984673992090669,10249
652984673999765109,10153
652984674007439549,10066
652984674015113989,9944
652984674022788429,9832
652984674030462869,9754
652984674038137309,9671
652984674045811749,9568
652984674053486189,9469
652984674061160629,9378
652984674068835069,9281
652984674076509509,9171
652984674084183949,9076
652984674091858389,8996
652984674099532829,8893
652984674107207269,8784
652984674114881709,8706
652984674122556149,8635
652984674130230589,8545
652984674137905029,8445
652984674145579469,8360
652984674153253909,8286
652984674160928349,8199
652984674168602789,8091
652984674176277229,7984
652984674183951669,7899
652984674191626109,7833
652984674199300549,7767
652984674206974989,7680
652984674214649429,7580
652984674222323869,7509
652984674229998309,7448
652984674237672749,7355
652984674245347254,7268
652984674253021694,7202
652984674260696134,7119
652984674268370574,7024
652984674276045014,6943
652984674283719454,6873
652984674291393894,6802
652984674299068334,6729
652984674306742774,6646
652984674314417214,6568
652984674322091654,6512
652984674329766094,6468
652984674337440534,6407
652984674345114974,6305
652984674352789414,6205
652984674360463854,6139
652984674368138294,6078
652984674375812734,6003
652984674383487174,5934
652984674391161614,5873
652984674398836054,5803
652984674406510494,5727
652984674414184934,5659
652984674421859374,5654
652984674429533814,5847
652984674437208254,6215
652984674444882694,6371
652984674452557134,5871
652984674460231574,5125
652984674467906014,5001
652984674475580454,5228
652984674483254894,5128
652984674490929334,4957
652984674498603774,4969
652984674506278214,4928
652984674513952654,4823
652984674521627094,4784
652984674529301534,4750
652984674536975974,4679
652984674544650414,4638
652984674552324854,4606
652984674559999294,4545
652984674567673734,4487
652984674575348174,4455
652984674583022614,4418
652984674590697054,4362
652984674598371494,4309
652984674606045934,4267
652984674613720374,4228
652984674621394814,4187
652984674629069254,4150
652984674636743694,4131
652984674644418134,4104
652984674652092574,4055
652984674659767014,4021
652984674667441454,4021
652984674675115894,4002
652984674682790334,3960
652984674690464774,3928
652984674698139214,3899
652984674705813654,3868
652984674713488094,3824
652984674721162534,3758
652984674728836974,3673
652984674736511414,3573
652984674744185854,3473
652984674751860294,3385
652984674759534734,3312
652984674767209174,3241
652984674774883614,3166
652984674782558054,3117
652984674790232494,3095
652984674797906934,3058
652984674805571359,3012
652984674813245939,2983
652984674820920519,2954
652984674828595099,2919
652984674836269679,2883
652984674843944259,2858
652984674851618839,2844
652984674859293419,2810
652984674866967999,2759
652984674874642579,2727
652984674882317159,2705
652984674889991739,2681
652984674897666319,2656
652984674905340899,2617
652984674913015479,2573
652984674920690059,2544
652984674928364639,2525
652984674936039219,2495
652984674943713799,2456
652984674951388379,2425
652984674959062959,2395
652984674966737539,2359
652984674974412119,2334
652984674982086699,2320
652984674989761279,2293
652984674997435859,2254
652984675005110439,2222
652984675012785019,2196
652984675020459599,2174
652984675028134179,2149
652984675035808759,2118
652984675043483339,2093
652984675051157919,2076
652984675058832499,2054
652984675066507079,2030
652984675074181659,2008
652984675081856239,1986
652984675089530819,1959
652984675097205399,1940
652984675104879979,1923
652984675112554559,1898
652984675120229139,1874
652984675127903719,1859
652984675135578299,1842
652984675143252879,1825
652984675150927459,1803
652984675158602039,1769
652984675166276619,1747
652984675173951199,1737
652984675181625779,1720
652984675189300359,1696
652984675196974939,1676
652984675204649519,1662
652984675212324099,1645
652984675219998679,1628
652984675227673259,1618
652984675235347839,1611
652984675243022419,1594
652984675250696999,1576
652984675258371579,1562
652984675266046159,1535
652984675273720739,1501
652984675281395319,1477
652984675289069899,1464
652984675296744479,1450
652984675304419059,1428
652984675312093639,1423
652984675319768219,1440
652984675327442799,1418
652984675335117379,1396
652984675342791959,1574
652984675350466539,1981
652984675358141119,2298
652984675365805706,2057
652984675373480425,1325
652984675381155144,996
652984675388829863,1252
652984675396504582,1323
652984675404179301,1172
652984675411854020,1189
652984675419528739,1230
652984675427203458,1172
652984675434878177,1157
652984675442552896,1186
652984675450227615,1167
652984675457902334,1140
652984675465577053,1140
652984675473251772,1140
652984675480926491,1130
652984675488601210,1121
652984675496275929,1111
652984675503950648,1104
652984675511625367,1101
652984675519300086,1099
652984675526974805,1091
652984675534649524,1087
652984675542324243,1094
652984675549998962,1108
652984675557673681,1123
652984675565348400,1123
652984675573023119,1128
652984675580697838,1147
652984675588372557,1167
652984675596047276,1172
652984675603721995,1174
652984675611396714,1184
652984675619071433,1184
652984675626746152,1169
652984675634420871,1147
652984675642095590,1104
652984675649770309,1033
652984675657445028,955
652984675665119747,892
652984675672794466,840
652984675680469185,801
652984675688143904,767
652984675695818623,740
652984675703493342,728
652984675711168061,728
652984675718842780,726
652984675726517499,716
652984675734192218,704
652984675741866937,699
652984675749541656,701
652984675757216375,704
652984675764891094,704
652984675772565813,699
652984675780240532,697
652984675787915251,697
652984675795589970,697
652984675803264689,689
652984675810939408,687
652984675818614127,684
652984675826288846,677
652984675833963565,670
652984675841638284,662
652984675849313003,653
652984675856987722,645
652984675864662441,638
652984675872337160,626
652984675880011879,616
652984675887686598,614
652984675895361317,611
652984675903036036,604
652984675910710755,599
652984675918385474,599
652984675926080327,592
652984675933754767,587
652984675941429207,582
652984675949103647,575
652984675956778087,577
652984675964452527,580
652984675972126967,570
652984675979801407,555
652984675987475847,548
652984675995150287,545
652984676002824727,541
652984676010499167,536
652984676018173607,526
652984676025848047,499
652984676033522487,487
652984676041196927,524
652984676048871367,555
652984676056545807,538
652984676064220247,514
652984676071894687,511
652984676079569127,516
652984676087243567,528
652984676094918007,533
652984676102592447,499
652984676110266887,477
652984676117941327,494
652984676125615767,502
652984676133290207,524
652984676140964647,565
652984676148639087,545
652984676156313527,487
652984676163987967,472
652984676171662407,472
652984676179336847,465
652984676187011287,455
652984676194685727,436
652984676202360167,441
652984676210034607,463
652984676217709047,511
652984676225383487,762
652984676233057927,1191
652984676240732367,1379
652984676248406807,945
652984676256081247,290
652984676263755687,212
652984676271430127,458
652984676279104567,407
652984676286779007,321
652984676294453447,411
652984676302127887,414
652984676309802327,348
652984676317476767,385
652984676325151207,416
652984676332825647,389
652984676340500087,389
652984676348174527,424
652984676355848967,421
652984676363523407,394
652984676371197847,392
652984676378872287,411
652984676386546727,426
652984676394221167,419
652984676401895607,402
652984676409570047,414
652984676417244487,455
652984676424918927,477
652984676432593367,480
652984676440267807,463
652984676447942247,453
652984676455616687,497
652984676463291127,543
652984676470965567,524
652984676478640007,511
652984676486289384,558
652984676493964173,582
652984676501638962,553
652984676509313751,524
652984676516988540,480
652984676524663329,424
652984676532338118,394
652984676540012907,370
652984676547687696,307
652984676555362485,248
652984676563037274,238
652984676570712063,238
652984676578386852,224
652984676586061641,224
652984676593736430,216
652984676601411219,202
652984676609086008,219
652984676616760797,246
652984676624435586,241
652984676632110375,226
652984676639785164,231
652984676647459953,246
652984676655134742,251
652984676662809531,251
652984676670484320,280
652984676678159109,307
652984676685833898,287
652984676693508687,265
652984676701183476,277
652984676708858265,285
652984676716533054,270
652984676724207843,258
652984676731882632,263
652984676739557421,275
652984676747232210,270
652984676754906999,243
652984676762581788,255
652984676770256577,290
652984676777931366,280
652984676785606155,253
652984676793280944,260
652984676800955733,272
652984676808630522,265
652984676816305311,255
652984676823980100,255
652984676831654889,248
652984676839329678,243
652984676847004467,251
652984676854679256,258
652984676862354045,270
652984676870028834,280
652984676877703623,263
652984676885378412,258
652984676893053201,290
652984676900727990,292
652984676908402779,268
652984676916077568,260
652984676923752357,268
652984676931427146,265
652984676939101935,263
652984676946776724,280
652984676954451513,292
652984676962126302,272
652984676969801091,248
652984676977475880,238
652984676985150669,253
652984676992825458,282
652984677000500247,275
652984677008175036,260
652984677015849825,297
652984677023524614,324
652984677031199403,294
652984677038874192,265
652984677046579096,272
652984677054253467,275
652984677061927838,258
652984677069602209,246
652984677077276580,229
652984677084950951,214
652984677092625322,236
652984677100299693,270
652984677107974064,277
652984677115648435,409
652984677123322806,804
652984677130997177,1194
652984677138671548,1038
652984677146345919,331
652984677154020290,-43
652984677161694661,192
652984677169369032,299
652984677177043403,146
652984677184717774,148
652984677192392145,221
652984677200066516,190
652984677207740887,163
652984677215415258,202
652984677223089629,229
6.52985E+17,221
652984677238438371,221
652984677246112742,236
652984677253787113,236
652984677261461484,226
652984677269135855,231
652984677276810226,233
652984677284484597,241
652984677292158968,260
652984677299833339,277
652984677307507710,299
652984677315182081,319
652984677322856452,311
652984677330530823,311
652984677338205194,326
652984677345879565,341
652984677353553936,355
652984677361228307,382
652984677368902678,424
652984677376577049,463
652984677384251420,463
652984677391925791,460
652984677399600162,480
652984677407274533,463
652984677414948904,411
652984677422623275,363
652984677430297646,307
652984677437972017,246
652984677445646388,194
652984677453320759,155
652984677460995130,131
652984677468669501,136
652984677476343872,148
652984677484018243,138
652984677491692614,126
652984677499366985,126
652984677507041356,146
652984677514715727,165
652984677522390098,155
652984677530064469,146
652984677537738840,155
652984677545413211,158
652984677553087582,158
652984677560761953,165
652984677568436324,170
652984677576110695,170
652984677583785066,175
652984677591459437,182
652984677599133808,185
652984677606808194,180
652984677614482565,175
652984677622156936,175
652984677629831307,173
652984677637505678,173
652984677645180049,170
652984677652854420,173
652984677660528791,173
652984677668203162,163
652984677675877533,153
652984677683551904,155
652984677691226275,153
652984677698900646,138
652984677706575017,138
652984677714249388,158
652984677721923759,163
652984677729598130,148
652984677737272501,143
652984677744946872,134
652984677752621243,134
652984677760295614,170
652984677767969985,194
652984677775644356,168
652984677783318727,153
652984677790993098,168
652984677798667469,170
652984677806341840,163
652984677814016211,163
652984677821690582,151
652984677829364953,146
652984677837039324,182
652984677844713695,212
652984677852388066,192
652984677860062437,175
652984677867736808,182
652984677875411179,185
652984677883085550,185
652984677890759921,209
652984677898434292,231
652984677906108663,231
652984677913783034,233
652984677921457405,229
652984677929131776,209
652984677936806147,202
652984677944480518,204
652984677952154889,194
652984677959829260,182
652984677967503631,204
652984677975178002,229
652984677982852373,202
652984677990526744,187
652984677998201115,363
652984678005875486,758
652984678013549857,1104
652984678021224228,923
652984678028898599,226
652984678036572970,-119
652984678044247341,124
652984678051921712,214
652984678059596083,73
652984678067270454,87
652984678074944825,141
652984678082619196,121
652984678090293567,131
652984678097967938,155
652984678105642309,151
652984678113316680,148
652984678120991051,148
652984678128665422,153
652984678136339793,160
652984678144014164,168
652984678151688535,173
652984678159362906,182
652984678167037292,192
652984678174711663,197
652984678182386034,194
652984678190060405,194
652984678197734776,209
652984678205409147,231
652984678213083518,246
652984678220757889,253
652984678228432260,263
652984678236106631,299
652984678243781002,338
652984678251455373,355
652984678259129744,365
652984678266804115,377
652984678274478486,389
652984678282152857,392
652984678289827228,377
652984678297501599,338
652984678305175970,285
652984678312850341,233
652984678320524712,180
652984678328199083,129
652984678335873454,97
652984678343547825,77
652984678351222196,73
652984678358896567,75
652984678366570938,70
652984678374245309,65
652984678381919680,70
652984678389594051,80
652984678397268422,77
652984678404942793,77
652984678412617164,90
652984678420291535,97
652984678427965906,97
652984678435640277,102
652984678443314648,107
652984678450989019,107
652984678458663390,112
652984678466337761,116
652984678474012132,114
652984678481686503,116
652984678489360874,124
652984678497035245,126
652984678504709616,121
652984678512383987,116
652984678520058358,121
652984678527732729,131
652984678535407100,129
652984678543081471,121
652984678550755842,124
652984678558430213,129
652984678566104584,121
652984678573778955,119
652984678581453326,124
652984678589127697,126
652984678596802068,124
652984678604476439,119
652984678612150810,119
652984678619825181,121
652984678627499552,121
652984678635173923,119
652984678642848294,114
652984678650522665,116
652984678658197036,121
652984678665871407,126
652984678673545778,131
652984678681220149,121
652984678688894520,116
652984678696568891,116
652984678704243262,116
652984678711917633,116
652984678719592004,124
652984678727271430,126
652984678734945731,119
652984678742620032,124
652984678750294333,146
652984678757968634,155
652984678765642935,151
652984678773317236,151
652984678780991537,141
652984678788665838,109
652984678796340139,109
652984678804014440,129
652984678811688741,124
652984678819363042,119
652984678827037343,131
652984678834711644,138
652984678842385945,129
652984678850060246,153
652984678857734547,350
652984678865408848,755
652984678873083149,1089
652984678880757450,853
652984678888431751,129
652984678896106052,-165
652984678903780353,112
652984678911454654,185
652984678919128955,48
652984678926803256,80
652984678934477557,131
652984678942151858,102
652984678949826159,97
652984678957500460,116
652984678965174761,119
652984678972849062,129
652984678980523363,146
652984678988197664,151
652984678995871965,151
652984679003546266,151
652984679011220567,158
652984679018894868,173
652984679026569169,180
652984679034243470,185
652984679041917771,194
652984679049592072,209
652984679057266373,224
652984679064940674,236
652984679072614975,248
652984679080289276,272
652984679087963577,307
652984679095637878,329
652984679103312179,343
652984679110986480,370
652984679118660781,397
652984679126335082,411
652984679134009383,407
652984679141683684,397
652984679149357985,385
652984679157032286,348
652984679164706587,285
652984679172380888,219
652984679180055189,158
652984679187729490,114
652984679195403791,87
652984679203078092,63
652984679210752393,43
652984679218426694,48
652984679226100995,58
652984679233775296,51
652984679241449597,46
652984679249123898,58
652984679256798199,73
652984679264472500,75
652984679272146801,73
652984679279821102,75
652984679287485437,90
652984679295159877,104
652984679302834317,107
652984679310508757,107
652984679318183197,109
652984679325857637,112
652984679333532077,119
652984679341206517,119
652984679348880957,114
652984679356555397,114
652984679364229837,121
652984679371904277,114
652984679379578717,107
652984679387253157,114
652984679394927597,116
652984679402602037,119
652984679410276477,116
652984679417950917,114
652984679425625357,119
652984679433299797,119
652984679440974237,116
652984679448648677,116
652984679456323117,119
652984679463997557,119
652984679471671997,121
652984679479346437,121
652984679487020877,119
652984679494695317,119
652984679502369757,124
652984679510044197,129
652984679517718637,121
652984679525393077,114
652984679533067517,119
652984679540741957,126
652984679548416397,126
652984679556090837,119
652984679563765277,112
652984679571439717,126
652984679579114157,151
652984679586788597,151
652984679594463037,148
652984679602137477,151
652984679609811917,136
652984679617486357,116
652984679625160797,116
652984679632835237,126
652984679640509677,126
652984679648184117,126
652984679655858557,136
652984679663532997,138
652984679671207437,116
652984679678881877,134
652984679686556317,353
652984679694230757,779
652984679701905197,1094
652984679709579637,811
652984679717254077,85
652984679724928517,-168
652984679732602957,112
652984679740277397,163
652984679747951837,29
652984679755626277,65
652984679763300717,114
652984679770975157,82
652984679778649597,87
652984679786324037,114
652984679793998477,114
652984679801672917,112
652984679809347357,124
652984679817021797,138
652984679824696237,146
652984679832370677,146
652984679840045117,148
652984679847689450,155
652984679855364309,165
652984679863039168,177
652984679870714027,187
652984679878388886,199
652984679886063745,216
652984679893738604,231
652984679901413463,236
652984679909088322,253
652984679916763181,277
652984679924438040,299
652984679932112899,321
652984679939787758,350
652984679947462617,368
652984679955137476,372
652984679962812335,380
652984679970487194,377
652984679978162053,350
652984679985836912,304
652984679993511771,251
652984680001186630,192
652984680008861489,138
652984680016536348,97
652984680024211207,73
652984680031886066,60
652984680039560925,48
652984680047235784,43
652984680054910643,48
652984680062585502,51
652984680070260361,56
652984680077935220,60
652984680085610079,65
652984680093284938,70
652984680100959797,75
652984680108634656,77
652984680116309515,85
652984680123984374,92
652984680131659233,102
652984680139334092,107
652984680147008951,107
652984680154683810,109
652984680162358669,109
652984680170033528,107
652984680177708387,112
652984680185383246,116
652984680193058105,112
652984680200732964,107
652984680208407823,102
652984680216082682,97
652984680223757541,99
652984680231432400,102
652984680239107259,102
652984680246782118,99
652984680254456977,102
652984680262131836,109
652984680269806695,112
652984680277481554,112
652984680285156413,114
652984680292831272,112
652984680300506131,112
652984680308180990,119
652984680315855849,124
652984680323530708,121
652984680331205567,119
652984680338880426,121
652984680346555285,124
652984680354230144,116
652984680361905003,116
652984680369579862,124
652984680377254721,126
652984680384929580,126
652984680392604439,124
652984680400279298,124
652984680407984325,121
652984680415658765,109
652984680423333205,102
652984680431007645,104
652984680438682085,104
652984680446356525,109
652984680454030965,126
652984680461705405,134
652984680469379845,131
652984680477054285,134
652984680484728725,119
652984680492403165,99
652984680500077605,102
652984680507752045,114
652984680515426485,114
652984680523100925,109
652984680530775365,116
652984680538449805,121
652984680546124245,102
652984680553798685,119
652984680561473125,329
652984680569147565,760
652984680576822005,1106
652984680584496445,867
652984680592170885,134
652984680599845325,-170
652984680607519765,99
652984680615194205,168
652984680622868645,26
652984680630543085,63
652984680638217525,119
652984680645891965,77
652984680653566405,75
652984680661240845,99
652984680668915285,97
652984680676589725,97
652984680684264165,114
652984680691938605,124
652984680699613045,126
652984680707287485,131
652984680714961925,129
652984680722636365,129
652984680730310805,143
652984680737985245,155
652984680745659685,158
652984680753334125,168
652984680761008565,187
652984680768683005,204
652984680776357445,219
652984680784031885,236
652984680791706325,260
652984680799380765,287
652984680807055205,311
652984680814729645,336
652984680822404085,355
652984680830078525,365
652984680837752965,372
652984680845427405,370
652984680853101845,348
652984680860776285,304
652984680868450725,253
652984680876125165,199
652984680883799605,146
652984680891474045,102
652984680899148485,73
652984680906822925,53
652984680914497365,43
652984680922171805,38
652984680929846245,41
652984680937520685,46
652984680945195125,46
652984680952869565,51
652984680960544005,60
652984680968203462,68
652984680975878111,75
652984680983552760,75
652984680991227409,75
652984680998902058,80
652984681006576707,87
652984681014251356,92
652984681021926005,97
652984681029600654,97
652984681037275303,99
652984681044949952,102
652984681052624601,99
652984681060299250,97
652984681067973899,92
652984681075648548,92
652984681083323197,95
652984681090997846,92
652984681098672495,92
652984681106347144,97
652984681114021793,99
652984681121696442,99
652984681129371091,102
652984681137045740,104
652984681144720389,102
652984681152395038,97
652984681160069687,95
652984681167744336,97
652984681175418985,102
652984681183093634,104
652984681190768283,104
652984681198442932,107
652984681206117581,109
652984681213792230,102
652984681221466879,97
652984681229141528,102
652984681236816177,107
652984681244490826,104
652984681252165475,104
652984681259840124,104
652984681267514773,102
652984681275189422,102
652984681282864071,109
652984681290538720,109
652984681298213369,102
652984681305888018,99
652984681313562667,99
652984681321237316,104
652984681328911965,109
652984681336586614,109
652984681344261263,104
652984681351935912,104
652984681359610561,109
652984681367285210,109
652984681374959859,109
652984681382634508,112
652984681390309157,112
652984681397983806,114
652984681405658455,124
652984681413333104,131
652984681421007753,138
652984681428682402,129
652984681436357051,107
652984681444031700,99
652984681451706349,104
652984681459380998,109
652984681467055647,114
652984681474730296,119
652984681482404945,121
652984681490079594,116
652984681497754243,95
652984681505428892,153
652984681513103541,450
652984681520778190,911
652984681528452904,1099
652984681536127553,611
652984681543802202,-65
652984681551476851,-95
652984681559151500,173
652984681566826149,109
652984681574500798,14
652984681582175447,82
652984681589850096,90
652984681597524745,53
652984681605199394,80
652984681612874043,99
652984681620548692,90
652984681628223341,95
652984681635897990,109
652984681643572639,112
652984681651247288,112
652984681658921937,116
652984681666596586,124
652984681674271235,131
652984681681945884,143
652984681689620533,151
652984681697295182,155
652984681704969831,170
652984681712644480,185
652984681720319129,194
652984681727993778,207
652984681735668427,229
652984681743343076,255
652984681751017725,280
652984681758692374,304
652984681766367023,324
652984681774041672,338
652984681781716321,348
652984681789390970,353
652984681797065619,353
652984681804740268,333
652984681812414917,292
652984681820089566,233
652984681827764215,173
652984681835438864,121
652984681843113513,90
652984681850788162,63
652984681858462811,46
652984681866137460,36
652984681873812109,38
652984681881486758,41
652984681889161407,38
652984681896836056,38
652984681904510705,41
652984681912185354,46
652984681919860003,53
652984681927534652,63
652984681935209301,65
652984681942883950,63
652984681950558599,68
652984681958233248,77
652984681965907897,85
652984681973582546,85
652984681981257195,85
652984681988931844,90
652984681996606493,92
652984682004281142,92
652984682011955791,92
652984682019630440,95
652984682027305089,95
652984682034979738,92
652984682042654387,90
652984682050329036,97
652984682058003685,102
652984682065678334,95
652984682073352983,90
652984682081027632,95
652984682088717398,97
652984682096391838,97
652984682104066278,99
652984682111740718,99
652984682119415158,102
652984682127089598,104
652984682134764038,95
652984682142438478,82
652984682150112918,82
652984682157787358,92
652984682165461798,92
652984682173136238,85
652984682180810678,80
652984682188485118,80
652984682196159558,85
652984682203833998,87
652984682211508438,82
652984682219182878,75
652984682226857318,70
652984682234531758,75
652984682242206198,82
652984682249880638,85
652984682257555078,87
652984682265229518,87
652984682272903958,87
652984682280578398,85
652984682288252838,85
652984682295927278,92
652984682303601718,99
652984682311276158,99
652984682318950598,97
652984682326625038,99
652984682334299478,102
652984682341973918,99
652984682349648358,104
652984682357322798,112
652984682364997238,112
652984682372671678,107
652984682380346118,109
652984682388020558,126
652984682395694998,134
652984682403369438,126
652984682411043878,124
652984682418718318,119
652984682426392758,107
652984682434067198,107
652984682441741638,114
652984682449416078,114
652984682457090518,104
652984682464764958,112
652984682472439398,121
652984682480113838,112
652984682487788278,102
652984682495462718,216
652984682503137158,565
652984682510811598,996
652984682518486038,1028
652984682526160478,409
652984682533834918,-143
652984682541509358,-17
652984682549183798,182
652984682556858238,63
652984682564532678,19
652984682572207118,97
652984682579881558,82
652984682587555998,58
652984682595230438,92
652984682602904878,102
652984682610579318,92
652984682618253758,99
652984682625928198,107
652984682633602638,109
652984682641277078,116
652984682648951583,124
652984682656626023,124
652984682664300463,129
652984682671974903,136
652984682679649343,148
652984682687323783,158
652984682694998223,165
652984682702672663,175
652984682710347103,192
652984682718021543,209
652984682725695983,224
652984682733370423,236
652984682741044863,263
652984682748719303,292
652984682756393743,311
652984682764068183,324
652984682771742623,336
652984682779417063,338
652984682787091503,333
652984682794765943,314
652984682802440383,275
652984682810114823,209
652984682817789263,151
652984682825463703,104
652984682833138143,63
652984682840812583,31
652984682848487023,21
652984682856161463,19
652984682863835903,12
652984682871510343,9
652984682879184783,14
652984682886859223,21
652984682894533663,17
652984682902208103,12
652984682909882543,26
652984682917556983,36
652984682925231423,43
652984682932905863,48
652984682940580303,53
652984682948254743,58
652984682955929183,60
652984682963603623,63
652984682971278063,70
652984682978952503,70
652984682986626943,65
652984682994301383,68
652984683001975823,75
652984683009650263,73
652984683017324703,65
652984683024999143,65
652984683032673583,68
652984683040348023,65
652984683048022463,63
652984683055696903,56
652984683063371343,53
652984683071045783,56
652984683078720223,58
652984683086394663,60
652984683094069103,60
652984683101743543,60
652984683109417983,65
652984683117092423,68
652984683124766863,63
652984683132441303,60
652984683140115743,63
652984683147790183,73
652984683155464623,75
652984683163139063,73
652984683170813503,75
652984683178487943,80
652984683186162383,77
652984683193836823,82
652984683201511263,90
652984683209185768,85
652984683216860208,85
652984683224534648,97
652984683232209088,92
652984683239883528,77
652984683247557968,75
652984683255232408,82
652984683262906848,85
652984683270581288,85
652984683278255728,85
652984683285930168,85
652984683293604608,87
652984683301279048,92
652984683308953488,95
652984683316627928,99
652984683324302368,104
652984683331976808,102
652984683339651248,99
652984683347325688,112
652984683355000128,126
652984683362674568,126
652984683370349008,126
652984683378023448,124
652984683385697888,102
652984683393372328,92
652984683401046768,107
652984683408721208,107
652984683416395648,102
652984683424070088,107
652984683431744528,112
652984683439418968,109
652984683447093408,95
652984683454767848,131
652984683462442288,377
652984683470116728,814
652984683477791168,1082
652984683485465608,721
652984683493140048,9
652984683500814488,-155
652984683508488928,126
652984683516163368,136
652984683523837808,17
652984683531512248,65
652984683539186688,97
652984683546861128,68
652984683554535568,80
652984683562210008,99
652984683569884448,95
652984683577558888,102
652984683585233328,112
652984683592907768,116
652984683600582208,121
652984683608256648,124
652984683615931088,124
652984683623605528,134
652984683631279968,146
652984683638954408,153
652984683646628848,158
652984683654303288,168
652984683661977728,185
652984683669652168,199
652984683677326608,212
652984683685001048,229
652984683692675488,253
652984683700349928,277
652984683708024368,302
652984683715698808,329
652984683723373248,348
652984683731047688,355
652984683738722128,348
652984683746396568,338
652984683754071008,329
652984683761745448,294
652984683769419953,236
652984683777094393,180
652984683784768833,129
652984683792443273,85
652984683800117713,51
652984683807792153,34
652984683815466593,17
652984683823141033,2
652984683830815473,4
652984683838489913,9
652984683846164353,12
652984683853838793,9
652984683861513233,7
652984683869187673,14
652984683876862113,19
652984683884536553,19
652984683892210993,24
652984683899885433,31
652984683907559873,36
652984683915234313,46
652984683922908753,53
652984683930583193,56
652984683938257633,53
652984683945932073,56
652984683953606513,58
652984683961280953,58
652984683968955393,58
652984683976629833,63
652984683984304273,65
652984683991978713,65
652984683999653153,65
652984684007327593,63
652984684015002033,65
652984684022676473,68
652984684030350913,68
652984684038025353,65
652984684045699793,65
652984684053374233,73
652984684061048673,77
652984684068723113,73
652984684076397553,75
652984684084071993,80
652984684091746433,85
652984684099420873,82
652984684107095313,80
652984684114769753,80
652984684122444193,85
652984684130118633,85
652984684137793073,87
652984684145467513,90
652984684153141953,90
652984684160816393,90
652984684168490833,92
652984684176165273,97
652984684183839713,99
652984684191514153,102
652984684199188593,104
652984684206863033,104
652984684214537473,104
652984684222211913,104
652984684229886353,109
652984684237560793,112
652984684245235233,104
652984684252909673,97
652984684260584113,102
652984684268258553,107
652984684275932993,109
652984684283607433,109
652984684291281873,114
652984684298956313,114
652984684306630753,112
652984684314305193,114
652984684321979633,114
652984684329639090,116
652984684337313739,131
652984684344988388,138
652984684352663037,136
652984684360337686,141
652984684368012335,129
652984684375686984,107
652984684383361633,102
652984684391036282,109
652984684398710931,112
652984684406385580,116
652984684414060229,119
652984684421734878,112
652984684429409527,97
652984684437084176,99
652984684444758825,253
652984684452433474,641
652984684460108123,1035
652984684467782772,945
652984684475457421,272
652984684483132070,-175
652984684490806719,24
652984684498481368,173
652984684506156017,38
652984684513830666,31
652984684521505315,97
652984684529179964,68
652984684536854613,58
652984684544529262,92
652984684552203911,92
652984684559878560,87
652984684567553209,104
652984684575227858,109
652984684582902507,109
652984684590577156,116
652984684598251805,121
652984684605926454,124
652984684613601103,131
652984684621275752,138
652984684628950401,143
652984684636625050,155
652984684644299699,173
652984684651974348,187
652984684659648997,199
652984684667323646,216
652984684674998295,238
652984684682672944,263
652984684690347593,282
652984684698022242,299
652984684705696891,316
652984684713371540,331
652984684721046189,343
652984684728720838,348
652984684736395487,336
652984684744070136,304
652984684751744785,251
652984684759419434,185
652984684767094083,131
652984684774768732,87
652984684782443381,48
652984684790118030,21
652984684797792679,7
652984684805467328,2
652984684813141977,-2
652984684820816626,2
652984684828491275,9
652984684836165924,12
652984684843840573,12
652984684851515222,12
652984684859189871,21
652984684866864520,31
652984684874539169,36
652984684882213818,38
652984684889908548,41
652984684897582919,46
652984684905257290,51
652984684912931661,58
652984684920606032,63
652984684928280403,70
652984684935954774,73
652984684943629145,65
652984684951303516,63
652984684958977887,73
652984684966652258,82
652984684974326629,75
6.52985E+17,68
652984684989675371,70
652984684997349742,75
652984685005024113,77
652984685012698484,80
652984685020372855,80
652984685028047226,85
652984685035721597,87
652984685043395968,85
652984685051070339,85
652984685058744710,87
652984685066419081,90
652984685074093452,95
652984685081767823,97
652984685089442194,99
652984685097116565,102
652984685104790936,99
652984685112465307,99
652984685120139678,97
652984685127814049,97
652984685135488420,104
652984685143162791,112
652984685150837162,107
652984685158511533,107
652984685166185904,114
652984685173860275,114
652984685181534646,109
652984685189209017,112
652984685196883388,116
652984685204557759,119
652984685212232130,121
652984685219906501,124
652984685227580872,124
652984685235255243,124
652984685242929614,121
652984685250603985,121
652984685258278356,124
652984685265952727,121
652984685273627098,119
652984685281301469,119
652984685288975840,119
652984685296650211,121
652984685304324582,126
652984685311998953,129
652984685319673324,141
652984685327347695,148
652984685335022066,151
652984685342696437,141
652984685350370808,121
652984685358045179,109
652984685365719550,116
652984685373393921,121
652984685381068292,119
652984685388742663,124
652984685396417034,129
652984685404091405,121
652984685411765776,107
652984685419440147,141
652984685427114518,377
652984685434788889,814
652984685442463260,1101
652984685450137646,775
652984685457812017,58
652984685465486388,-146
652984685473160759,126
652984685480835130,148
652984685488509501,14
652984685496183872,58
652984685503858243,92
652984685511532614,56
652984685519206985,70
652984685526881356,99
652984685534555727,95
652984685542230098,90
652984685549904469,102
652984685557578840,107
652984685565253211,114
652984685572927582,121
652984685580601953,124
652984685588276324,119
652984685595950695,131
652984685603625066,146
652984685611299437,148
652984685618973808,158
652984685626648179,177
652984685634322550,190
652984685641996921,194
652984685649671292,209
652984685657345663,238
652984685665020034,275
652984685672694405,299
652984685680368776,309
652984685688043147,324
652984685695717518,343
652984685703391889,350
652984685711066260,336
652984685718740631,314
652984685726415002,285
652984685734089373,238
652984685741763744,175
652984685749438115,119
652984685757112486,75
652984685764786857,38
652984685772461228,12
652984685780135599,-4
652984685787809970,-14
652984685795484341,-14
652984685803158712,-12
652984685810833083,-2
652984685818507454,0
652984685826181825,-4
652984685833856196,-4
652984685841530567,4
652984685849204938,19
652984685856879309,29
652984685864553680,26
652984685872228051,26
652984685879902422,41
652984685887576793,43
652984685895251164,41
652984685902925535,48
652984685910599906,60
652984685918274277,63
652984685925948648,58
652984685933623019,58
652984685941297390,63
652984685948971761,63
652984685956646132,56
652984685964320503,58
652984685971994874,65
652984685979669245,65
652984685987343616,68
652984685995017987,68
652984686002692358,65
652984686010336648,68
652984686018011437,73
652984686025686226,73
652984686033361015,75
652984686041035804,75
652984686048710593,70
652984686056385382,70
652984686064060171,73
652984686071734960,73
652984686079409749,70
652984686087084538,73
652984686094759327,68
652984686102434116,65
652984686110108905,77
652984686117783694,85
652984686125458483,80
652984686133133272,75
652984686140808061,80
652984686148482850,90
652984686156157639,92
652984686163832428,90
652984686171507217,87
652984686179182006,90
652984686186856795,97
652984686194531584,104
652984686202206373,97
652984686209881162,90
652984686217555951,99
652984686225230740,104
652984686232905529,102
652984686240580318,104
652984686248255107,104
652984686255929896,109
652984686263604685,126
652984686271279474,126
652984686278954263,121
652984686286629052,116
652984686294303841,97
652984686301978630,80
652984686309653419,82
652984686317328208,87
652984686325002997,92
652984686332677786,99
652984686340352575,102
652984686348027364,92
652984686355702153,73
652984686363376942,138
652984686371051731,431
652984686378726520,872
652984686386401309,1060
652984686394076098,602
652984686401750887,-80
652984686409425676,-143
652984686417100465,131
652984686424775254,97
652984686432450043,0
652984686440124832,65
652984686447799621,85
652984686455474410,46
652984686463149199,63
652984686470823988,82
652984686478498777,77
652984686486173566,85
652984686493848355,97
652984686501523144,99
652984686509197933,109
652984686516872722,116
652984686524547511,119
652984686532222300,126
652984686539897089,134
652984686547571878,134
652984686555246667,146
652984686562921456,158
652984686570621396,168
652984686578295836,177
652984686585970276,194
652984686593644716,219
652984686601319156,243
652984686608993596,265
652984686616668036,290
652984686624342476,304
652984686632016916,311
652984686639691356,324
652984686647365796,331
652984686655040236,326
652984686662714676,309
652984686670389116,268
652984686678063556,202
652984686685737996,143
652984686693412436,90
652984686701086876,43
652984686708761316,17
652984686716435756,0
652984686724110196,-14
652984686731784636,-21
652984686739459076,-17
652984686747133516,-14
652984686754807956,-12
652984686762482396,-7
652984686770156836,-2
652984686777831276,-4
652984686785505716,0
652984686793180156,7
652984686800854596,12
652984686808529036,17
652984686816203476,21
652984686823877916,26
652984686831552356,31
652984686839226796,31
652984686846901236,34
652984686854575676,46
652984686862250116,46
652984686869924556,41
652984686877598996,46
652984686885273436,48
652984686892947876,48
652984686900622316,48
652984686908296756,48
652984686915971196,46
652984686923645636,51
652984686931320076,56
652984686938994516,56
652984686946668956,51
652984686954343396,58
652984686962017836,65
652984686969692276,65
652984686977366716,63
652984686985041156,65
652984686992715596,68
652984687000390036,68
652984687008064476,73
652984687015738916,73
652984687023413356,73
652984687031087796,75
652984687038762236,82
652984687046436676,82
652984687054111116,77
652984687061785556,73
652984687069459996,75
652984687077134436,80
652984687084808876,82
652984687092483316,85
652984687100157756,90
652984687107832196,87
652984687115506636,82
652984687123181076,85
652984687130855581,92
652984687138530021,95
652984687146204461,92
652984687153878901,92
652984687161553341,92
652984687169227781,95
652984687176902221,99
652984687184576661,95
652984687192251101,90
652984687199925541,95
652984687207599981,112
652984687215274421,116
652984687222948861,116
652984687230623301,121
652984687238297741,109
652984687245972181,85
652984687253646621,82
652984687261321061,95
652984687268995501,97
652984687276669941,87
652984687284344381,87
652984687292018821,92
652984687299693261,80
652984687307367701,80
652984687315042141,263
652984687322716581,680
652984687330391021,1050
652984687338065461,872
652984687345739901,163
652984687353414341,-199
652984687361088781,41
652984687368763221,138
652984687376437661,-2
652984687384112101,14
652984687391786541,75
652984687399460981,41
652984687407135421,38
652984687414809861,75
652984687422484301,75
652984687430158741,68
652984687437833181,80
652984687445507621,87
652984687453182061,92
652984687460856501,102
652984687468530941,107
652984687476205381,112
652984687483879821,114
652984687491554261,121
652984687499228701,134
652984687506903141,148
652984687514577581,163
652984687522252021,173
652984687529926461,182
652984687537600901,199
652984687545275341,224
652984687552949781,248
652984687560624221,270
652984687568298661,287
652984687575973101,304
652984687583647541,321
652984687591321981,329
652984687598996421,326
652984687606670861,314
652984687614345301,287
652984687622019741,238
652984687629694181,180
652984687637368621,121
652984687645043061,73
652984687652717501,36
652984687660391941,12
652984687668066381,-2
652984687675740821,-9
652984687683415261,-9
652984687691089766,-7
652984687698764206,-4
652984687706438646,0
652984687714113086,4
652984687721787526,9
652984687729461966,17
652984687737136406,21
652984687744810846,24
652984687752485286,29
652984687760159726,36
652984687767834166,43
652984687775508606,48
652984687783183046,46
652984687790857486,36
652984687798531926,36
652984687806206366,38
652984687813880806,34
652984687821555246,36
652984687829229686,43
652984687836904126,43
652984687844578566,41
652984687852253006,46
652984687859927446,46
652984687867601886,43
652984687875276326,48
652984687882950766,53
652984687890625206,48
652984687898299646,53
652984687905974086,60
652984687913648526,60
652984687921322966,60
652984687928997406,60
652984687936671846,65
652984687944346286,70
652984687952020726,70
652984687959695166,73
652984687967369606,77
652984687975044046,75
652984687982718486,75
652984687990392926,77
652984687998067366,82
652984688005741806,85
652984688013416246,87
652984688021090686,87
652984688028765126,85
652984688036439566,87
652984688044114006,87
652984688051788446,85
652984688059462886,87
652984688067137326,90
652984688074811766,92
652984688082486206,92
652984688090160646,90
652984688097835086,90
652984688105509526,95
652984688113183966,99
652984688120858406,99
652984688128532846,97
652984688136207286,102
652984688143881726,104
652984688151556166,107
652984688159230606,104
652984688166905046,99
652984688174579486,104
652984688182253926,124
652984688189928366,131
652984688197602806,129
652984688205277246,131
652984688212951686,124
652984688220626126,107
652984688228300566,102
652984688235975006,102
652984688243649446,104
652984688251323951,107
652984688258998391,112
652984688266672831,114
652984688274347271,104
652984688282021711,97
652984688289696151,207
652984688297370591,550
652984688305045031,974
652984688312719471,989
652984688320393911,360
652984688328068351,-175
652984688335742791,-31
652984688343417231,158
652984688351091671,24
652984688358766111,-9
652984688366440551,73
652984688374114991,56
652984688381789431,36
652984688389463871,75
652984688397138311,82
652984688404812751,60
652984688412487191,68
652984688420161631,90
652984688427836071,95
652984688435510511,97
652984688443184951,104
652984688450859391,112
652984688458533831,119
652984688466208271,131
652984688473882711,138
652984688481557151,136
652984688489231591,148
652984688496906031,170
652984688504580471,187
652984688512254911,199
652984688519929351,219
652984688527603791,246
652984688535278231,268
652984688542952671,287
652984688550627111,307
652984688558301551,326
652984688565975991,338
652984688573650431,338
652984688581324871,329
652984688588999311,304
652984688596673751,260
652984688604348191,207
652984688612022631,148
652984688619697071,92
652984688627371511,51
652984688635045951,24
652984688642720391,4
652984688650394831,-7
652984688658069271,-12
652984688665743711,-14
652984688673418151,-9
652984688681092591,0
652984688688767031,7
652984688696441471,9
652984688704115911,14
652984688711790351,17
652984688719464791,19
652984688727139231,21
652984688734813671,29
652984688742488111,38
652984688750162551,38
652984688757836991,41
652984688765511431,48
652984688773185871,53
652984688780860311,51
652984688788534751,46
652984688796209191,48
652984688803883631,46
652984688811558136,41
652984688819232576,41
652984688826907016,38
652984688834581456,38
652984688842255896,51
652984688849930336,56
652984688857604776,43
652984688865279216,41
652984688872953656,48
652984688880628096,51
652984688888302536,51
652984688895976976,51
652984688903651416,51
652984688911325856,56
652984688919000296,60
652984688926674736,65
652984688934349176,68
652984688942023616,68
652984688949698056,68
652984688957372496,68
652984688965046936,73
652984688972721376,80
652984688980395816,80
652984688988070256,77
652984688995744696,77
652984689003419136,80
652984689011093576,82
652984689018768016,87
652984689026442456,87
652984689034116896,80
652984689041791336,80
652984689049465776,90
652984689057140216,92
652984689064814656,90
652984689072489096,90
652984689080163536,92
652984689087837976,92
652984689095512416,99
652984689103186856,95
652984689110861296,90
652984689118535736,102
652984689126210176,109
652984689133884616,102
652984689141559056,104
652984689149233496,126
652984689156907936,136
652984689164582376,126
652984689172256816,126
652984689179931256,119
652984689187605696,92
652984689195280136,90
652984689202954576,104
652984689210629016,104
652984689218303456,107
652984689225977896,116
652984689233652336,116
652984689241326776,95
652984689249001216,102
652984689256675656,287
652984689264350096,704
652984689272024536,1074
652984689279698976,889
652984689287373416,160
652984689295047856,-204
652984689302722296,46
652984689310396736,141
652984689318071176,-7
652984689325745616,21
652984689333420056,87
652984689341094496,46
652984689348768936,38
652984689356443376,77
652984689364117816,75
652984689371792321,70
652984689379466761,90
652984689387141201,95
652984689394815641,92
652984689402490081,107
652984689410164521,114
652984689417838961,112
652984689425513401,116
652984689433187841,129
652984689440862281,138
652984689448536721,143
652984689456211161,148
652984689463885601,168
652984689471560041,194
652984689479234481,214
652984689486908921,236
652984689494583361,265
652984689502257801,285
652984689509932241,304
652984689517606681,329
652984689525281121,338
652984689532955561,341
652984689540630001,343
652984689548304441,333
652984689555978881,292
652984689563653321,238
652984689571327761,187
652984689579002201,136
652984689586676641,80
652984689594351081,38
652984689602025521,12
652984689609699961,0
652984689617374401,-4
652984689625048841,-9
652984689632723281,-12
652984689640397721,-12
652984689648072161,-4
652984689655746601,4
652984689663421041,4
652984689671095481,7
652984689678769921,14
652984689686444361,21
652984689694118801,29
652984689701793241,34
652984689709467681,38
652984689717142121,46
652984689724816561,48
652984689732491001,48
652984689740165441,56
652984689747839881,58
652984689755514321,58
652984689763188761,60
652984689770863201,56
652984689778537641,51
652984689786212081,56
652984689793886521,53
652984689801560961,51
652984689809235401,56
652984689816909841,53
652984689824584281,48
652984689832258721,48
652984689839933161,51
652984689847607601,56
652984689855282041,63
652984689862956481,60
652984689870630921,60
652984689878305361,65
652984689885979801,65
652984689893654241,68
652984689901328681,75
652984689909003121,77
652984689916677561,70
652984689924352001,73
652984689931996334,82
652984689939671193,87
652984689947346052,82
652984689955020911,80
652984689962695770,82
652984689970370629,87
652984689978045488,85
652984689985720347,80
652984689993395206,85
652984690001070065,92
652984690008744924,90
652984690016419783,82
652984690024094642,82
652984690031769501,85
652984690039444360,90
652984690047119219,90
652984690054794078,87
652984690062468937,90
652984690070143796,99
652984690077818655,99
652984690085493514,97
652984690093168373,99
652984690100843232,99
652984690108518091,95
652984690116192950,104
652984690123867809,124
652984690131542668,126
652984690139217527,129
652984690146892386,129
652984690154567245,112
652984690162242104,95
652984690169916963,97
652984690177591822,102
652984690185266681,102
652984690192941540,102
652984690200616399,109
652984690208291258,112
652984690215966117,95
652984690223640976,102
652984690231315835,292
652984690238990694,709
652984690246665553,1077
652984690254340412,892
652984690262015271,165
652984690269690130,-194
652984690277364989,58
652984690285039848,153
652984690292714707,7
652984690300389566,26
652984690308064425,87
652984690315739284,51
652984690323414143,41
652984690331089002,70
652984690338763861,68
652984690346438720,68
652984690354113579,85
652984690361788438,92
652984690369463297,90
652984690377138156,95
652984690384813015,104
652984690392487874,114
652984690400162733,119
652984690407837592,126
652984690415512451,134
652984690423187310,143
652984690430862169,158
652984690438537028,170
652984690446211887,187
652984690453886746,209
652984690461561605,233
652984690469236464,253
652984690476911323,277
652984690484586182,302
652984690492291209,316
652984690499965649,331
652984690507640089,338
652984690515314529,333
652984690522988969,316
652984690530663409,290
652984690538337849,238
652984690546012289,165
652984690553686729,104
652984690561361169,63
652984690569035609,31
652984690576710049,2
652984690584384489,-17
652984690592058929,-24
652984690599733369,-21
652984690607407809,-17
652984690615082249,-14
652984690622756689,-12
652984690630431129,-4
652984690638105569,2
652984690645780009,7
652984690653454449,9
652984690661128889,14
652984690668803329,21
652984690676477769,29
652984690684152209,31
652984690691826649,34
652984690699501089,41
652984690707175529,46
652984690714849969,48
652984690722524409,53
652984690730198849,58
652984690737873289,60
652984690745547729,58
652984690753222169,53
652984690760896609,51
652984690768571049,56
652984690776245489,58
652984690783919929,53
652984690791594369,53
652984690799268809,60
652984690806943249,60
652984690814617689,60
652984690822292129,63
652984690829966569,58
652984690837641009,53
652984690845315449,56
652984690852989889,60
652984690860664329,65
652984690868338769,68
652984690876013209,68
652984690883687649,68
652984690891362089,70
652984690899036529,70
652984690906710969,75
652984690914385409,77
652984690922059849,77
652984690929734289,80
652984690937408729,82
652984690945083169,85
652984690952757609,87
652984690960432049,87
652984690968106489,87
652984690975780929,87
652984690983455369,92
652984690991129809,95
652984690998804249,90
652984691006478689,87
652984691014153129,92
652984691021827569,95
652984691029502009,92
652984691037176449,92
652984691044850889,95
652984691052525394,97
652984691060199834,97
652984691067874274,97
652984691075548714,97
652984691083223154,102
652984691090897594,107
652984691098572034,104
652984691106246474,99
652984691113920914,107
652984691121595354,124
652984691129269794,126
652984691136944234,124
652984691144618674,119
652984691152293114,102
652984691159967554,87
652984691167641994,85
652984691175316434,87
652984691182990874,92
652984691190665314,97
652984691198339754,99
652984691206014194,97
652984691213688634,82
652984691221363074,104
652984691229037514,316
652984691236711954,745
652984691244386394,1072
652984691252060834,799
652984691259735274,75
652984691267409714,-182
652984691275084154,85
652984691282758594,126
652984691290433034,-4
652984691298107474,36
652984691305781914,80
652984691313456354,41
652984691321130794,48
652984691328805234,68
652984691336479674,53
652984691344154114,58
652984691351828554,75
652984691359502994,77
652984691367177434,82
652984691374851874,95
652984691382526314,97
652984691390200754,102
652984691397875194,109
652984691405549634,119
652984691413224074,131
652984691420898514,141
652984691428572954,151
652984691436247394,163
652984691443921834,180
652984691451596274,194
652984691459270714,214
652984691466945154,241
652984691474619594,270
652984691482294034,290
652984691489968474,302
652984691497642914,309
652984691505317354,314
652984691512991794,316
652984691520666234,304
652984691528340674,270
652984691536015114,221
652984691543689554,168
652984691551363994,112
652984691559038434,60
652984691566712874,26
652984691574387314,4
652984691582061754,-4
652984691589736194,-7
652984691597410634,-7
652984691605085074,-9
652984691612759579,-7
652984691620434019,0
652984691628108459,4
652984691635782899,9
652984691643457339,17
652984691651131779,24
652984691658806219,24
652984691666480659,21
652984691674155099,26
652984691681829539,34
652984691689503979,38
652984691697178419,41
652984691704852859,43
652984691712527299,43
652984691720201739,51
652984691727876179,60
652984691735550619,58
652984691743225059,53
652984691750899499,56
652984691758573939,58
652984691766248379,58
652984691773922819,58
652984691781597259,58
652984691789271699,58
652984691796946139,58
652984691804620579,63
652984691812295019,63
652984691819969459,63
652984691827643899,65
652984691835318339,60
652984691842992779,58
652984691850667219,63
652984691858341659,65
652984691866016099,68
652984691873690539,70
652984691881364979,70
652984691889039419,70
652984691896713859,73
652984691904388299,77
652984691912062739,80
652984691919737179,82
652984691927411619,82
652984691935086059,85
652984691942760499,82
652984691950434939,87
652984691958109379,92
652984691965783819,90
652984691973458259,90
652984691981132699,92
652984691988807139,87
652984691996481579,85
652984692004156019,90
652984692011830459,97
652984692019504899,95
652984692027179339,95
652984692034853779,92
652984692042528219,92
652984692050202659,97
652984692057877099,99
652984692065551539,104
652984692073225979,104
652984692080900419,99
652984692088574859,97
652984692096249299,99
652984692103923739,107
652984692111598179,124
652984692119272619,129
652984692126947059,131
652984692134621499,131
652984692142295939,109
652984692149970379,87
652984692157644819,95
652984692165319259,104
652984692172993764,102
652984692180668204,99
652984692188342644,102
652984692196017084,102
652984692203691524,90
652984692211365964,104
652984692219040404,282
652984692226714844,680
652984692234389284,1050
652984692242063724,896
652984692249738164,185
652984692257412604,-204
652984692265087044,31
652984692272761484,141
652984692280435924,0
652984692288110364,14
652984692295784804,77
652984692303459244,41
652984692311133684,38
652984692318808124,70
652984692326482564,65
652984692334157004,60
652984692341831444,73
652984692349505884,75
652984692357180324,75
652984692364854764,85
652984692372529204,92
652984692380203644,97
652984692387878084,109
652984692395552524,116
652984692403226964,116
652984692410901404,131
652984692418575844,151
652984692426250284,158
652984692433924724,165
652984692441599164,185
652984692449273604,212
652984692456948044,236
652984692464622484,258
652984692472296924,280
652984692479971364,292
652984692487645804,302
652984692495320244,311
652984692502994684,316
652984692510669124,307
652984692518343564,282
652984692526018004,233
652984692533692444,170
652984692541366884,104
652984692549041324,58
652984692556715764,31
652984692564390204,2
652984692572064644,-19
652984692579739084,-21
652984692587413524,-21
652984692595087964,-21
652984692602762404,-19
652984692610436844,-17
652984692618111284,-12
652984692625785724,-2
652984692633460164,2
652984692641134604,4
652984692648809044,9
652984692656483484,14
652984692664157924,19
652984692671832364,29
652984692679506804,41
652984692687181244,41
652984692694855684,36
652984692702530124,41
652984692710204564,53
652984692717879004,53
652984692725553444,43
652984692733197853,46
652984692740872711,51
652984692748547569,48
652984692756222427,46
652984692763897285,48
652984692771572143,48
652984692779247001,46
652984692786921859,43
652984692794596717,43
652984692802271575,51
652984692809946433,53
652984692817621291,51
652984692825296149,53
652984692832971007,58
652984692840645865,63
652984692848320723,58
652984692855995581,46
652984692863670439,43
652984692871345297,56
652984692879020155,63
652984692886695013,63
652984692894369871,63
652984692902044729,63
652984692909719587,63
652984692917394445,70
652984692925069303,73
652984692932744161,68
652984692940419019,77
652984692948093877,90
652984692955768735,80
652984692963443593,70
652984692971118451,73
652984692978793309,85
652984692986468167,85
652984692994143025,77
652984693001817883,80
652984693009492741,85
652984693017167599,90
652984693024842457,90
652984693032517315,90
652984693040192173,90
652984693047867031,90
652984693055541889,97
652984693063216747,114
652984693070891605,121
652984693078566463,119
652984693086241321,121
652984693093916179,114
652984693101591037,92
652984693109265895,85
652984693116940753,90
652984693124615611,92
652984693132290469,97
652984693139965327,102
652984693147640185,107
652984693155315043,104
652984693162989901,92
652984693170664759,155
652984693178339617,455
652984693186014475,901
652984693193689333,1065
652984693201364191,563
652984693209039049,-109
652984693216713907,-129
652984693224388765,143
652984693232063623,82
652984693239738481,-9
652984693247413339,65
652984693255088197,82
652984693262763055,43
652984693270437913,58
652984693278112771,80
652984693285787629,75
652984693293492652,82
652984693301167092,97
652984693308841532,102
652984693316515972,102
652984693324190412,109
652984693331864852,116
652984693339539292,119
652984693347213732,116
652984693354888172,119
652984693362562612,131
652984693370237052,143
652984693377911492,151
652984693385585932,158
652984693393260372,175
652984693400934812,194
652984693408609252,219
652984693416283692,248
652984693423958132,272
652984693431632572,294
652984693439307012,309
652984693446981452,319
652984693454655892,316
652984693462330332,309
652984693470004772,290
652984693477679212,246
652984693485353652,190
652984693493028092,131
652984693500702532,80
652984693508376972,43
652984693516051412,12
652984693523725852,-14
652984693531400292,-21
652984693539074732,-19
652984693546749172,-24
652984693554423612,-21
652984693562098052,-14
652984693569772492,-9
652984693577446932,0
652984693585121372,7
652984693592795812,9
652984693600470252,12
652984693608144692,21
652984693615819132,31
652984693623493572,38
652984693631168012,43
652984693638842452,46
652984693646516892,48
652984693654191332,56
652984693661865772,58
652984693669540212,58
652984693677214652,65
652984693684889092,65
652984693692563532,60
652984693700237972,58
652984693707912412,58
652984693715586852,58
652984693723261292,58
652984693730935732,58
652984693738610172,58
652984693746284612,63
652984693753959052,70
652984693761633492,65
652984693769307932,60
652984693776982372,65
652984693784656812,73
652984693792331252,75
652984693800005692,75
652984693807680132,75
652984693815354572,77
652984693823029012,80
652984693830703452,85
652984693838377892,82
652984693846052332,82
652984693853726837,82
652984693861401277,75
652984693869075717,70
652984693876750157,77
652984693884424597,82
652984693892099037,85
652984693899773477,82
652984693907447917,77
652984693915122357,80
652984693922796797,85
652984693930471237,87
652984693938145677,85
652984693945820117,82
652984693953494557,80
652984693961168997,82
652984693968843437,87
652984693976517877,92
652984693984192317,92
652984693991866757,92
652984693999541197,92
652984694007215637,95
652984694014890077,95
652984694022564517,99
652984694030238957,99
652984694037913397,99
652984694045587837,112
652984694053262277,124
652984694060936717,129
652984694068611157,129
652984694076285597,114
652984694083960037,95
652984694091634477,95
652984694099308917,99
652984694106983357,97
652984694114657797,99
652984694122332237,109
652984694130006677,112
652984694137681117,102
652984694145355557,87
652984694153029997,170
652984694160704437,492
652984694168378877,940
652984694176053317,1069
652984694183727757,526
652984694191402197,-119
652984694199076637,-92
652984694206751077,158
652984694214425517,73
652984694222099957,-7
652984694229774397,68
652984694237448837,73
652984694245123277,38
652984694252797717,65
652984694260472157,82
652984694268146597,70
652984694275821037,80
652984694283495477,92
652984694291169917,95
652984694298844357,99
652984694306518797,109
652984694314193237,116
652984694321867677,119
652984694329542117,124
652984694337216557,129
652984694344890997,141
652984694352565437,153
652984694360239877,158
652984694367914317,165
652984694375588757,182
652984694383263197,204
652984694390937637,226
652984694398612077,251
652984694406286517,272
652984694413930926,290
652984694421605784,302
652984694429280642,311
652984694436955500,319
652984694444630358,311
652984694452305216,290
652984694459980074,253
652984694467654932,202
652984694475329790,141
652984694483004648,87
652984694490679506,46
652984694498354364,9
652984694506029222,-14
652984694513704080,-17
652984694521378938,-17
652984694529053796,-19
652984694536728654,-14
652984694544403512,-9
652984694552078370,-7
652984694559753228,-2
652984694567428086,4
652984694575102944,12
652984694582777802,19
652984694590452660,21
652984694598127518,26
652984694605802376,31
652984694613477234,38
652984694621152092,46
652984694628826950,48
652984694636501808,51
652984694644176666,56
652984694651851524,56
652984694659526382,56
652984694667201240,58
652984694674876098,63
652984694682550956,63
652984694690225814,58
652984694697900672,56
652984694705575530,58
652984694713250388,58
652984694720925246,60
652984694728600104,63
652984694736274962,65
652984694743949820,63
652984694751624678,63
652984694759299536,70
652984694766974394,73
652984694774649252,73
652984694782324110,77
652984694789998968,77
652984694797673826,77
652984694805348684,77
652984694813023542,80
652984694820698400,82
652984694828373258,85
652984694836048116,87
652984694843722974,90
652984694851397832,87
652984694859072690,77
652984694866747548,77
652984694874422406,85
652984694882097264,87
652984694889772122,85
652984694897446980,87
652984694905121838,92
652984694912796696,95
652984694920471554,95
652984694928146412,97
652984694935821270,92
652984694943496128,92
652984694951170986,92
652984694958845844,92
652984694966520702,92
652984694974225725,95
652984694981900165,97
652984694989574605,97
652984694997249045,99
652984695004923485,104
652984695012597925,107
652984695020272365,104
652984695027946805,102
652984695035621245,109
652984695043295685,126
652984695050970125,131
652984695058644565,124
652984695066319005,116
652984695073993445,102
652984695081667885,87
652984695089342325,90
652984695097016765,95
652984695104691205,97
652984695112365645,102
652984695120040085,107
652984695127714525,107
652984695135388965,92
652984695143063405,95
652984695150737845,260
652984695158412285,660
652984695166086725,1045
652984695173761165,911
652984695181435605,214
652984695189110045,-187
652984695196784485,34
652984695204458925,148
652984695212133365,9
652984695219807805,19
652984695227482245,82
652984695235156685,51
652984695242831125,43
652984695250505565,75
652984695258180005,77
652984695265854445,75
652984695273528885,87
652984695281203325,90
652984695288877765,92
652984695296552205,102
652984695304226645,112
652984695311901085,116
652984695319575525,116
652984695327249965,124
652984695334924405,136
652984695342598845,148
652984695350273285,155
652984695357947725,163
652984695365622165,170
652984695373296605,187
652984695380971045,212
652984695388645485,236
652984695396319925,258
652984695403994365,277
652984695411668805,292
652984695419343245,304
652984695427017685,314
652984695434692125,314
652984695442366565,302
652984695450041005,277
652984695457715445,236
652984695465389885,177
652984695473064325,119
652984695480738765,70
652984695488413205,34
652984695496087645,9
652984695503762085,-2
652984695511436525,-9
652984695519110965,-14
652984695526785405,-9
652984695534459910,-4
652984695542134350,-2
652984695549808790,2
652984695557483230,7
652984695565157670,12
652984695572832110,14
652984695580506550,19
652984695588180990,19
652984695595855430,21
652984695603529870,34
652984695611204310,38
652984695618878750,36
652984695626553190,41
652984695634227630,46
652984695641902070,48
652984695649576510,51
652984695657250950,53
652984695664925390,56
652984695672599830,56
652984695680274270,53
652984695687948710,51
652984695695623150,53
652984695703297590,53
652984695710972030,53
652984695718646470,56
652984695726320910,58
652984695733995350,60
652984695741669790,63
652984695749344230,65
652984695757018670,65
652984695764693110,65
652984695772367550,70
652984695780041990,75
652984695787716430,73
652984695795390870,70
652984695803065310,73
652984695810739750,80
652984695818414190,80
652984695826088630,82
652984695833763070,87
652984695841437510,90
652984695849111950,85
652984695856786390,77
652984695864460830,75
652984695872135270,80
652984695879809710,82
652984695887484150,85
652984695895158590,85
652984695902833030,85
652984695910507470,85
652984695918181910,87
652984695925856350,90
652984695933530790,85
652984695941205230,80
652984695948879670,85
652984695956554110,90
652984695964228550,92
652984695971902990,90
652984695979577430,90
652984695987251870,92
652984695994926310,97
652984696002600750,97
652984696010275190,90
652984696017949630,97
652984696025624070,112
652984696033298510,121
652984696040972950,124
652984696048647390,124
652984696056321830,104
652984696063996270,90
652984696071670710,90
652984696079345150,92
652984696087019590,92
652984696094694095,102
652984696102368535,104
652984696110042975,102
652984696117717415,87
652984696125391855,87
652984696133066295,238
652984696140740735,631
652984696148415175,1035
652984696156089615,938
652984696163764055,238
652984696171438495,-209
652984696179112935,2
652984696186787375,148
652984696194461815,9
652984696202136255,4
652984696209810695,73
652984696217485135,43
652984696225159575,29
652984696232834015,65
652984696240508455,73
652984696248182895,68
652984696255857335,77
652984696263531775,87
652984696271206215,92
652984696278880655,97
652984696286555095,99
652984696294229535,109
652984696301903975,116
652984696309578415,121
652984696317252855,129
652984696324927295,141
652984696332601735,158
652984696340276175,175
652984696347950615,185
652984696355625055,192
652984696363299495,204
652984696370973935,233
652984696378648375,265
652984696386322815,280
652984696393997255,294
652984696401671695,316
652984696409346135,326
652984696417020575,316
652984696424695015,304
652984696432369455,282
652984696440043895,236
652984696447718335,175
652984696455392775,114
652984696463067215,60
652984696470741655,24
652984696478416095,2
652984696486090535,-12
652984696493764975,-19
652984696501439415,-26
652984696509113855,-24
652984696516788295,-14
652984696524462735,-12
652984696532137175,-14
652984696539811615,-7
652984696547486055,0
652984696555160495,4
652984696562834935,12
652984696570509375,21
652984696578183815,26
652984696585858255,29
652984696593532695,36
652984696601207135,46
652984696608881575,46
652984696616556015,41
652984696624230455,43
652984696631904895,51
652984696639579335,56
652984696647253775,53
652984696654903148,51
652984696662577937,51
652984696670252726,53
652984696677927515,53
652984696685602304,51
652984696693277093,53
652984696700951882,51
652984696708626671,48
652984696716301460,53
652984696723976249,53
652984696731651038,48
652984696739325827,51
652984696747000616,58
652984696754675405,60
652984696762350194,60
652984696770024983,65
652984696777699772,70
652984696785374561,65
652984696793049350,70
652984696800724139,75
652984696808398928,68
652984696816073717,70
652984696823748506,82
652984696831423295,82
652984696839098084,77
652984696846772873,77
652984696854447662,85
652984696862122451,92
652984696869797240,82
652984696877472029,70
652984696885146818,75
652984696892821607,80
652984696900496396,77
652984696908171185,80
652984696915845974,80
652984696923520763,82
652984696931195552,87
652984696938870341,90
652984696946545130,90
652984696954219919,99
652984696961894708,114
652984696969569497,119
652984696977244286,121
652984696984919075,116
652984696992593864,95
652984697000268653,85
652984697007943442,95
652984697015618231,99
652984697023293020,97
652984697030967809,95
652984697038642598,102
652984697046317387,104
652984697053992176,87
652984697061666965,116
652984697069341754,343
652984697077016543,775
652984697084691332,1087
652984697092366121,779
652984697100040910,38
652984697107715699,-194
652984697115390488,95
652984697123065277,134
652984697130740066,-2
652984697138414855,43
652984697146089644,90
652984697153764433,48
652984697161439222,53
652984697169114011,85
652984697176788800,80
652984697184463589,80
652984697192138378,95
652984697199813167,102
652984697207487956,102
652984697215182856,107
652984697222857366,116
652984697230531876,124
652984697238206386,126
652984697245880896,134
652984697253555406,151
652984697261229916,158
652984697268904426,163
652984697276578936,173
652984697284253446,190
652984697291927956,212
652984697299602466,236
652984697307276976,260
652984697314951486,282
652984697322625996,307
652984697330300506,326
652984697337975016,341
652984697345649526,348
652984697353324036,346
652984697360998546,321
652984697368673056,277
652984697376347566,216
652984697384022076,146
652984697391696586,87
652984697399371096,46
652984697407045606,9
652984697414720116,-17
652984697422394626,-24
652984697430069136,-29
652984697437743646,-34
652984697445418156,-26
652984697453092666,-19
652984697460767176,-17
652984697468441686,-14
652984697476116196,-7
652984697483790706,0
652984697491465216,0
652984697499139726,7
652984697506814236,19
652984697514488746,24
652984697522163256,26
652984697529837766,36
652984697537512276,41
652984697545186786,41
652984697552861296,41
652984697560535806,43
652984697568210316,48
652984697575884826,51
652984697583559336,51
652984697591233846,51
652984697598908356,48
652984697606582866,46
652984697614257376,51
652984697621931886,56
652984697629606396,56
652984697637280906,53
652984697644955416,53
652984697652629926,56
652984697660304436,56
652984697667978946,53
652984697675653456,56
652984697683327966,60
652984697691002476,60
652984697698676986,58
652984697706351496,63
652984697714026006,70
652984697721700516,73
652984697729375026,70
652984697737049536,68
652984697744724046,65
652984697752398556,68
652984697760073066,77
652984697767747576,80
652984697775427168,77
652984697783101608,75
652984697790776048,73
652984697798450488,80
652984697806124928,87
652984697813799368,87
652984697821473808,82
652984697829148248,82
652984697836822688,85
652984697844497128,87
652984697852171568,82
652984697859846008,77
652984697867520448,80
652984697875194888,82
652984697882869328,75
652984697890543768,75
652984697898218208,85
652984697905892648,90
652984697913567088,95
652984697921241528,97
652984697928915968,75
652984697936590408,56
652984697944264848,63
652984697951939288,70
652984697959613728,68
652984697967288168,73
652984697974962608,82
652984697982637048,82
652984697990311488,65
652984697997985928,80
652984698005660368,277
652984698013334808,697
652984698021009248,1050
652984698028683688,833
652984698036358128,109
652984698044032568,-216
652984698051707008,43
652984698059381448,121
652984698067055888,-21
652984698074730328,7
652984698082404768,63
652984698090079208,26
652984698097753648,31
652984698105428088,63
652984698113102528,58
652984698120776968,56
652984698128451408,68
652984698136125848,77
652984698143800288,80
652984698151474728,80
652984698159149168,85
652984698166823608,87
652984698174498048,95
652984698182172488,107
652984698189846928,116
652984698197521368,126
652984698205195808,136
652984698212870248,148
652984698220544688,168
652984698228219128,190
652984698235893568,212
652984698243568008,236
652984698251242448,260
652984698258916888,282
652984698266591328,304
652984698274265768,316
652984698281940208,324
652984698289614648,324
652984698297289088,309
652984698304963528,277
652984698312637968,224
652984698320312408,163
652984698327986848,107
652984698335651273,56
652984698343325853,14
652984698351000433,-12
652984698358675013,-24
652984698366349593,-26
652984698374024173,-31
652984698381698753,-34
652984698389373333,-36
652984698397047913,-36
652984698404722493,-26
652984698412397073,-19
652984698420071653,-21
652984698427746233,-21
652984698435420813,-19
652984698443095393,-9
652984698450769973,-2
652984698458444553,2
652984698466119133,9
652984698473793713,14
652984698481468293,17
652984698489142873,21
652984698496817453,26
652984698504492033,29
652984698512166613,34
652984698519841193,34
652984698527515773,31
652984698535190353,34
652984698542864933,36
652984698550539513,36
652984698558214093,38
652984698565888673,41
652984698573563253,41
652984698581237833,46
652984698588912413,48
652984698596586993,46
652984698604261573,48
652984698611936153,51
652984698619610733,51
652984698627285313,53
652984698634959893,53
652984698642634473,51
652984698650309053,58
652984698657983633,60
652984698665658213,60
652984698673332793,63
652984698681007373,70
652984698688681953,70
652984698696356533,68
652984698704031113,70
652984698711705693,75
652984698719380273,77
652984698727054853,77
652984698734729433,80
652984698742404013,82
652984698750078593,85
652984698757753173,85
652984698765427753,82
652984698773102333,85
652984698780776913,87
652984698788451493,92
652984698796126073,92
652984698803800653,90
652984698811475233,95
652984698819149813,99
652984698826824393,97
652984698834498973,95
652984698842173553,97
652984698849848133,95
652984698857522713,95
652984698865197293,104
652984698872871873,121
652984698880546453,124
652984698888221033,116
652984698895885620,107
652984698903560339,87
652984698911235058,75
652984698918909777,77
652984698926584496,87
652984698934259215,87
652984698941933934,82
652984698949608653,82
652984698957283372,90
652984698964958091,75
652984698972632810,77
652984698980307529,255
652984698987982248,665
652984698995656967,1043
652984699003331686,879
652984699011006405,170
652984699018681124,-202
652984699026355843,36
652984699034030562,141
652984699041705281,0
6.52985E+17,12
652984699057054719,73
652984699064729438,43
652984699072404157,38
652984699080078876,68
652984699087753595,65
652984699095428314,65
652984699103103033,80
652984699110777752,87
652984699118452471,87
652984699126127190,90
652984699133801909,92
652984699141476628,102
652984699149151347,112
652984699156826066,119
652984699164500785,126
652984699172175504,136
652984699179850223,148
652984699187524942,163
652984699195199661,182
652984699202874380,202
652984699210549099,224
652984699218223818,246
652984699225898537,270
652984699233573256,292
652984699241247975,309
652984699248922694,324
652984699256597413,336
652984699264272132,338
652984699271946851,329
652984699279621570,302
652984699287296289,251
652984699294971008,187
652984699302645727,131
652984699310320446,87
652984699317995165,48
652984699325669884,19
652984699333344603,4
652984699341019322,-4
652984699348694041,-12
652984699356368760,-9
652984699364043479,-4
652984699371718198,-2
652984699379392917,-4
652984699387067636,-2
652984699394742355,-4
652984699402417074,-7
652984699410091793,2
652984699417766512,14
652984699425441231,17
652984699433115950,19
652984699440790669,24
652984699448465388,26
652984699456160241,31
652984699463834681,36
652984699471509121,43
652984699479183561,46
652984699486858001,43
652984699494532441,43
652984699502206881,43
652984699509881321,36
652984699517555761,36
652984699525230201,43
652984699532904641,46
652984699540579081,43
652984699548253521,51
652984699555927961,58
652984699563602401,53
652984699571276841,51
652984699578951281,56
652984699586625721,58
652984699594300161,60
652984699601974601,68
652984699609649041,68
652984699617323481,60
652984699624997921,58
652984699632672361,63
652984699640346801,65
652984699648021241,60
652984699655695681,68
652984699663370121,80
652984699671044561,80
652984699678719001,80
652984699686393441,85
652984699694067881,85
652984699701742321,80
652984699709416761,80
652984699717091201,87
652984699724765641,90
652984699732440081,90
652984699740114521,90
652984699747788961,87
652984699755463401,92
652984699763137841,97
652984699770812281,95
652984699778486721,95
652984699786161161,99
652984699793835601,104
652984699801510041,102
652984699809184481,97
652984699816858921,97
652984699824533361,97
652984699832207801,104
652984699839882241,109
652984699847556681,107
652984699855231121,112
652984699862905561,121
652984699870580001,124
652984699878254441,126
652984699885928881,119
652984699893603321,97
652984699901277761,77
652984699908952201,73
652984699916626641,77
652984699924301081,87
652984699931975521,95
652984699939649961,97
652984699947324401,95
652984699954998841,80
652984699962673281,107
652984699970347721,343
652984699978022161,794
652984699985696601,1096
652984699993371041,755
652984700001045481,14
652984700008719921,-187
652984700016394426,102
652984700024068866,116
652984700031743306,-17
652984700039417746,38
652984700047092186,80
652984700054766626,36
652984700062441066,38
652984700070115506,58
652984700077789946,56
652984700085464386,68
652984700093138826,85
652984700100813266,77
652984700108487706,70
652984700116162146,80
652984700123836586,97
652984700131511026,107
652984700139185466,109
652984700146859906,116
652984700154534346,124
652984700162208786,141
652984700169883226,155
652984700177557666,158
652984700185232106,173
652984700192906546,207
652984700200580986,233
652984700208255426,248
652984700215929866,277
652984700223604306,309
652984700231278746,326
652984700238953186,338
652984700246627626,346
652984700254302066,343
652984700261976506,333
652984700269650946,294
652984700277325386,233
652984700284999826,177
652984700292674266,124
652984700300348706,68
652984700308023146,26
652984700315697586,7
652984700323372026,-7
652984700331046466,-21
652984700338720906,-21
652984700346395346,-17
652984700354069786,-21
652984700361744226,-24
652984700369418666,-14
652984700377093106,-4
652984700384767546,-9
652984700392441986,-4
652984700400116426,4
652984700407790866,4
652984700415465306,4
652984700423139746,12
652984700430814186,17
652984700438488626,17
652984700446163066,24
652984700453837506,31
652984700461511946,36
652984700469186386,38
652984700476860826,36
652984700484535266,41
652984700492209706,48
652984700499884146,41
652984700507558586,41
652984700515233026,43
652984700522907466,41
652984700530581906,43
652984700538256346,56
652984700545930786,56
652984700553605226,51
652984700561279666,51
652984700568954106,53
652984700576608523,58
652984700584283242,63
652984700591957961,63
652984700599632680,58
652984700607307399,56
652984700614982118,58
652984700622656837,58
652984700630331556,58
652984700638006275,65
652984700645680994,65
652984700653355713,58
652984700661030432,58
652984700668705151,70
652984700676379870,75
652984700684054589,70
652984700691729308,68
652984700699404027,75
652984700707078746,77
652984700714753465,80
652984700722428184,77
652984700730102903,77
652984700737777622,85
652984700745452341,87
652984700753127060,92
652984700760801779,97
652984700768476498,85
652984700776151217,92
652984700783825936,116
652984700791500655,121
652984700799175374,114
652984700806850093,116
652984700814524812,107
652984700822199531,87
652984700829874250,87
652984700837548969,92
652984700845223688,90
652984700852898407,87
652984700860573126,90
652984700868247845,92
652984700875922564,77
652984700883597283,92
652984700891272002,285
652984700898946721,699
652984700906621440,1050
652984700914296159,850
652984700921970878,131
652984700929645597,-224
652984700937320316,29
652984700944995035,136
652984700952669754,2
652984700960344473,19
652984700968019192,77
652984700975693911,41
652984700983368630,38
652984700991043349,70
652984700998718068,77
652984701006392787,75
652984701014067506,77
652984701021742225,80
652984701029416944,87
652984701037091663,99
652984701044766382,107
652984701052441101,116
652984701060115820,121
652984701067790539,124
652984701075465258,131
652984701083139977,146
652984701090814696,160
652984701098489415,173
652984701106164134,182
652984701113838853,202
652984701121513572,221
652984701129188291,248
652984701136873060,282
652984701144547640,307
652984701152222220,321
652984701159896800,338
652984701167571380,350
652984701175245960,346
652984701182920540,329
652984701190595120,297
652984701198269700,241
652984701205944280,175
652984701213618860,114
652984701221293440,60
652984701228968020,24
652984701236642600,2
652984701244317180,-14
652984701251991760,-26
652984701259666340,-29
652984701267340920,-26
652984701275015500,-19
652984701282690080,-19
652984701290364660,-19
652984701298039240,-12
652984701305713820,-7
652984701313388400,0
652984701321062980,7
652984701328737560,12
652984701336412140,19
652984701344086720,21
652984701351761300,21
652984701359435880,24
652984701367110460,36
652984701374785040,41
652984701382459620,38
652984701390134200,38
652984701397808780,43
652984701405483360,48
652984701413157940,41
652984701420832520,34
652984701428507100,31
652984701436181680,34
652984701443856260,38
652984701451530840,43
652984701459205420,41
6.52985E+17,41
652984701474554580,48
652984701482229160,51
652984701489903740,48
652984701497578320,48
652984701505252900,56
652984701512927480,60
652984701520602060,60
652984701528276640,60
652984701535951220,63
652984701543625800,68
652984701551300380,70
652984701558974960,70
652984701566649540,68
652984701574324120,68
652984701581998700,70
652984701589673280,75
652984701597347860,75
652984701605022440,75
652984701612697020,73
652984701620371600,75
652984701628046180,77
652984701635720760,77
652984701643395340,82
652984701651069920,87
652984701658744500,87
652984701666419080,87
652984701674093660,90
652984701681768240,92
652984701689442820,97
652984701697127499,97
652984701704801939,90
652984701712476379,97
652984701720150819,112
652984701727825259,119
652984701735499699,124
652984701743174139,119
652984701750848579,97
652984701758523019,85
652984701766197459,90
652984701773871899,92
652984701781546339,87
652984701789220779,87
652984701796895219,92
652984701804569659,90
652984701812244099,75
652984701819918539,99
652984701827592979,319
652984701835267419,745
652984701842941859,1069
652984701850616299,804
652984701858290739,75
652984701865965179,-199
652984701873639619,73
652984701881314059,124
652984701888988499,-17
652984701896662939,24
652984701904337379,73
652984701912011819,29
652984701919686259,26
652984701927360699,58
652984701935035139,56
652984701942709579,53
652984701950384019,68
652984701958058459,73
652984701965732899,80
652984701973407339,90
652984701981081779,92
652984701988756219,99
652984701996430659,109
652984702004105099,114
652984702011779539,124
652984702019453979,136
652984702027128419,146
652984702034802859,158
652984702042477299,180
652984702050151739,199
652984702057826179,219
652984702065500619,241
652984702073175059,270
652984702080849499,292
652984702088523939,304
652984702096198379,319
652984702103872819,329
652984702111547259,329
652984702119221699,314
652984702126896139,277
652984702134570579,224
652984702142245019,163
652984702149919459,112
652984702157593899,65
652984702165268339,26
652984702172942779,2
652984702180617219,-7
652984702188291659,-17
652984702195966099,-21
652984702203640539,-21
652984702211314979,-17
652984702218989419,-12
652984702226663859,-9
652984702234338299,-2
652984702242012739,2
652984702249687179,7
652984702257331588,12
652984702265006446,14
652984702272681304,17
652984702280356162,21
652984702288031020,31
652984702295705878,34
652984702303380736,31
652984702311055594,26
652984702318730452,31
652984702326405310,34
652984702334080168,31
652984702341755026,29
652984702349429884,34
652984702357104742,36
652984702364779600,36
652984702372454458,36
652984702380129316,38
652984702387804174,41
652984702395479032,43
652984702403153890,43
652984702410828748,41
652984702418503606,36
652984702426178464,36
652984702433853322,43
652984702441528180,46
652984702449203038,46
652984702456877896,51
652984702464552754,53
652984702472227612,56
652984702479902470,58
652984702487577328,58
652984702495252186,60
652984702502927044,65
652984702510601902,65
652984702518276760,65
652984702525951618,68
652984702533626476,68
652984702541301334,70
652984702548976192,73
652984702556651050,75
652984702564325908,77
652984702572000766,77
652984702579675624,70
652984702587350482,70
652984702595025340,77
652984702602700198,80
652984702610375056,77
652984702618049914,77
652984702625724772,77
652984702633399630,82
652984702641074488,90
652984702648749346,92
652984702656424204,85
652984702664099062,87
652984702671773920,104
652984702679448778,112
652984702687123636,114
652984702694798494,119
652984702702473352,104
652984702710148210,85
652984702717823068,82
652984702725497926,85
652984702733172784,87
652984702740847642,92
652984702748522500,99
652984702756197358,99
652984702763872216,90
652984702771547074,80
652984702779221932,177
652984702786896790,511
652984702794571648,952
652984702802246506,1030
652984702809921364,446
652984702817626387,-155
652984702825300827,-77
652984702832975267,146
652984702840649707,43
652984702848324147,-12
652984702855998587,58
652984702863673027,46
652984702871347467,17
652984702879021907,51
652984702886696347,63
652984702894370787,51
652984702902045227,60
652984702909719667,73
652984702917394107,68
652984702925068547,68
652984702932742987,80
652984702940417427,87
652984702948091867,90
652984702955766307,97
652984702963440747,112
652984702971115187,119
652984702978789627,126
652984702986464067,143
652984702994138507,165
652984703001812947,180
652984703009487387,197
652984703017161827,221
652984703024836267,251
652984703032510707,277
652984703040185147,290
652984703047859587,302
652984703055534027,321
652984703063208467,329
652984703070882907,316
652984703078557347,292
652984703086231787,251
652984703093906227,197
652984703101580667,138
652984703109255107,85
652984703116929547,41
652984703124603987,12
652984703132278427,-4
652984703139952867,-12
652984703147627307,-17
652984703155301747,-19
652984703162976187,-17
652984703170650627,-14
652984703178325067,-17
652984703185999507,-12
652984703193673947,0
652984703201348387,7
652984703209022827,7
652984703216697267,9
652984703224371707,17
652984703232046147,24
652984703239720587,31
652984703247395027,29
652984703255069467,26
652984703262743907,31
652984703270418347,38
652984703278092787,41
652984703285767227,41
652984703293441667,43
652984703301116107,46
652984703308790547,48
652984703316464987,46
652984703324139427,41
652984703331813867,41
652984703339488307,46
652984703347162747,43
652984703354837187,43
652984703362511627,46
652984703370186067,53
652984703377860572,56
652984703385535012,56
652984703393209452,58
652984703400883892,60
652984703408558332,63
652984703416232772,65
652984703423907212,58
652984703431581652,48
652984703439256092,53
652984703446930532,63
652984703454604972,63
652984703462279412,56
652984703469953852,58
652984703477628292,63
652984703485302732,65
652984703492977172,65
652984703500651612,63
652984703508326052,65
652984703516000492,75
652984703523674932,77
652984703531349372,75
652984703539023812,73
652984703546698252,77
652984703554372692,85
652984703562047132,80
652984703569721572,77
652984703577396012,80
652984703585070452,80
652984703592744892,80
652984703600419332,85
652984703608093772,87
652984703615768212,87
652984703623442652,99
652984703631117092,116
652984703638791532,116
652984703646465972,112
652984703654140412,107
652984703661814852,92
652984703669489292,82
652984703677163732,85
652984703684838172,87
652984703692512612,90
652984703700187052,97
652984703707861492,104
652984703715535932,92
652984703723210372,70
652984703730884812,148
652984703738559252,460
652984703746233692,909
652984703753908132,1069
652984703761582572,563
652984703769257012,-116
652984703776931452,-129
652984703784605892,148
652984703792280332,80
652984703799954772,-17
652984703807629212,53
652984703815303652,68
652984703822978092,34
652984703830652532,53
652984703838326972,63
652984703846001412,53
652984703853675852,70
652984703861350292,92
652984703869024732,87
652984703876699172,82
652984703884373612,99
652984703892048052,112
652984703899722492,116
652984703907396932,119
652984703915071372,126
652984703922745812,134
652984703930420252,136
652984703938064661,143
652984703945739519,158
652984703953414377,175
652984703961089235,202
652984703968764093,238
652984703976438951,265
652984703984113809,277
652984703991788667,292
652984703999463525,314
652984704007138383,333
652984704014813241,338
652984704022488099,331
652984704030162957,309
652984704037837815,270
652984704045512673,207
652984704053187531,138
652984704060862389,85
652984704068537247,43
652984704076212105,9
652984704083886963,-7
652984704091561821,-17
652984704099236679,-24
652984704106911537,-26
652984704114586395,-19
652984704122261253,-14
652984704129936111,-19
652984704137610969,-19
652984704145285827,-7
652984704152960685,-2
652984704160635543,-7
652984704168310401,-4
652984704175985259,7
652984704183660117,19
652984704191334975,19
652984704199009833,14
652984704206684691,17
652984704214359549,26
652984704222034407,34
652984704229709265,34
652984704237384123,34
652984704245058981,34
652984704252733839,36
652984704260408697,36
652984704268083555,36
652984704275758413,41
652984704283433271,38
652984704291108129,34
652984704298782987,38
652984704306457845,41
652984704314132703,38
652984704321807561,38
652984704329482419,36
652984704337157277,36
652984704344832135,48
652984704352506993,58
652984704360181851,56
652984704367856709,48
652984704375531567,48
652984704383206425,58
652984704390881283,63
652984704398556141,58
652984704406230999,58
652984704413905857,68
652984704421580715,73
652984704429255573,65
652984704436930431,58
652984704444605289,60
652984704452280147,65
652984704459955005,68
652984704467629863,65
652984704475304721,68
652984704482979579,73
652984704490654437,75
652984704498359460,73
652984704506033900,75
652984704513708340,80
652984704521382780,82
652984704529057220,85
652984704536731660,95
652984704544406100,104
652984704552080540,107
652984704559754980,109
652984704567429420,99
652984704575103860,73
652984704582778300,60
652984704590452740,68
652984704598127180,75
652984704605801620,75
652984704613476060,77
652984704621150500,87
652984704628824940,85
652984704636499380,68
652984704644173820,126
652984704651848260,407
652984704659522700,855
652984704667197140,1067
652984704674871580,616
652984704682546020,-87
652984704690220460,-165
652984704697894900,119
652984704705569340,85
652984704713243780,-21
652984704720918220,48
652984704728592660,75
652984704736267100,38
652984704743941540,53
652984704751615980,75
652984704759290420,68
652984704766964860,68
652984704774639300,82
652984704782313740,90
652984704789988180,92
652984704797662620,97
652984704805337060,107
652984704813011500,112
652984704820685940,119
652984704828360380,124
652984704836034820,129
652984704843709260,143
652984704851383700,160
652984704859058140,177
652984704866732580,194
652984704874407020,216
652984704882081460,236
652984704889755900,260
652984704897430340,287
652984704905104780,314
652984704912779220,331
652984704920453660,343
652984704928128100,348
652984704935802540,343
652984704943476980,314
652984704951151420,263
652984704958825860,204
652984704966500300,146
652984704974174740,87
652984704981849180,46
652984704989523620,21
652984704997198060,-2
652984705004872500,-12
652984705012546940,-9
652984705020221380,-14
652984705027895820,-17
652984705035570260,-9
652984705043244700,-7
652984705050919140,-9
652984705058563549,-4
652984705066238407,-2
652984705073913265,0
652984705081588123,4
652984705089262981,12
652984705096937839,17
652984705104612697,19
652984705112287555,19
652984705119962413,26
652984705127637271,34
652984705135312129,29
652984705142986987,26
652984705150661845,29
652984705158336703,31
652984705166011561,29
652984705173686419,34
652984705181361277,36
652984705189036135,34
652984705196710993,34
652984705204385851,34
652984705212060709,36
652984705219735567,38
652984705227410425,41
652984705235085283,43
652984705242760141,46
652984705250434999,46
652984705258109857,51
652984705265784715,53
652984705273459573,56
652984705281134431,56
652984705288809289,51
652984705296484147,51
652984705304159005,58
652984705311833863,60
652984705319508721,63
652984705327183579,65
652984705334858437,65
652984705342533295,65
652984705350208153,68
652984705357883011,75
652984705365557869,80
652984705373232727,77
652984705380907585,75
652984705388582443,75
652984705396257301,82
652984705403932159,82
652984705411607017,77
652984705419281875,82
652984705426956733,87
652984705434631591,87
652984705442306449,82
652984705449981307,77
652984705457656165,77
652984705465331023,80
652984705473005881,80
652984705480680739,85
652984705488355597,87
652984705496030455,82
652984705503705313,92
652984705511380171,114
652984705519055029,121
652984705526729887,116
652984705534404745,109
652984705542079603,92
652984705549754461,77
652984705557429319,77
652984705565104177,82
652984705572779035,87
652984705580453893,92
652984705588128751,95
652984705595803609,95
652984705603478467,85
652984705611153325,82
652984705618828252,219
652984705626503110,599
652984705634177968,1018
652984705641852826,970
652984705649527684,302
652984705657202542,-190
652984705664877400,-17
652984705672552258,146
652984705680227116,14
652984705687901974,-4
652984705695576832,68
652984705703251690,46
652984705710926548,31
652984705718601406,60
652984705726276264,65
652984705733951122,60
652984705741625980,73
652984705749300838,82
652984705756975696,85
652984705764650554,92
652984705772325412,97
652984705780000270,95
652984705787675128,102
652984705795349986,114
652984705803024844,121
652984705810699702,129
652984705818374560,141
652984705826049418,158
652984705833724276,173
652984705841399134,190
652984705849073992,209
652984705856748850,233
652984705864423708,263
652984705872098566,285
652984705879773424,302
652984705887448282,316
652984705895123140,324
652984705902797998,329
652984705910472856,324
652984705918147714,302
652984705925822572,260
652984705933497430,204
652984705941172288,143
652984705948847146,92
652984705956522004,46
652984705964196862,14
652984705971871720,-2
652984705979546578,-12
652984705987221436,-17
652984705994896294,-14
652984706002571152,-9
652984706010246010,-9
652984706017920868,-9
652984706025595726,-12
652984706033270584,-12
652984706040945442,-4
652984706048620300,-2
652984706056295158,2
652984706063970016,12
652984706071644874,19
652984706079319732,19
652984706086994590,24
652984706094669448,29
652984706102344306,31
652984706110019164,34
652984706117694022,38
652984706125368880,38
652984706133043738,38
652984706140718596,43
652984706148393454,46
652984706156068312,46
652984706163743170,43
652984706171418028,46
652984706179123051,48
652984706186797491,48
652984706194471931,51
652984706202146371,53
652984706209820811,56
652984706217495251,48
652984706225169691,46
652984706232844131,51
652984706240518571,58
652984706248193011,58
652984706255867451,58
652984706263541891,56
652984706271216331,51
652984706278890771,53
652984706286565211,60
652984706294239651,68
652984706301914091,65
652984706309588531,63
652984706317262971,65
652984706324937411,70
652984706332611851,75
652984706340286291,77
652984706347960731,77
652984706355635171,77
652984706363309611,75
652984706370984051,75
652984706378658491,85
652984706386332931,90
652984706394007371,85
652984706401681811,85
652984706409356251,92
652984706417030691,97
652984706424705131,95
652984706432379571,90
652984706440054011,87
652984706447728451,90
652984706455402891,95
652984706463077331,95
652984706470751771,87
652984706478426211,85
652984706486100651,85
652984706493775091,87
652984706501449531,95
652984706509123971,112
652984706516798411,116
652984706524472851,114
652984706532147291,109
652984706539821731,92
652984706547496171,77
652984706555170611,80
652984706562845051,90
652984706570519491,92
652984706578193931,95
652984706585868371,97
652984706593542811,99
652984706601217251,85
652984706608891691,77
652984706616566131,214
652984706624240571,594
652984706631915011,1021
652984706639589451,989
652984706647263891,329
652984706654938331,-180
652984706662612771,-14
652984706670287211,158
652984706677961651,24
652984706685636091,-2
652984706693310531,80
652984706700984971,65
652984706708659411,38
652984706716333851,63
652984706724008291,73
652984706731682731,70
652984706739357236,82
652984706747031676,92
652984706754706116,92
652984706762380556,90
652984706770054996,92
652984706777729436,95
652984706785403876,107
652984706793078316,114
652984706800752756,116
652984706808427196,129
652984706816101636,146
652984706823776076,155
652984706831450516,163
652984706839124956,182
652984706846799396,214
652984706854473836,241
652984706862148276,268
652984706869822716,287
652984706877497156,302
652984706885171596,324
652984706892846036,341
652984706900520476,346
652984706908194916,336
652984706915869356,311
652984706923543796,260
652984706931218236,197
652984706938892676,146
652984706946567116,92
652984706954241556,36
652984706961915996,0
652984706969590436,-12
652984706977264876,-24
652984706984939316,-31
652984706992613756,-29
652984707000288196,-24
652984707007962636,-26
652984707015637076,-26
652984707023311516,-24
652984707030985956,-14
652984707038660396,-4
652984707046334836,-2
652984707054009276,0
652984707061683716,7
652984707069358156,9
652984707077032596,17
652984707084707036,26
652984707092381476,24
652984707100055916,24
652984707107730356,34
652984707115404796,38
652984707123079236,34
652984707130753676,36
652984707138428116,41
652984707146102556,48
652984707153776996,53
652984707161451436,46
652984707169125876,38
652984707176800316,46
652984707184474756,48
652984707192149196,48
652984707199823636,58
652984707207498076,63
652984707215172516,56
652984707222846956,53
652984707230521396,63
652984707238195836,65
652984707245870276,56
652984707253544716,56
652984707261219156,63
652984707268893596,63
652984707276568036,63
652984707284242476,65
652984707291916916,68
652984707299561325,73
652984707307236183,70
652984707314911041,68
652984707322585899,75
652984707330260757,75
652984707337935615,75
652984707345610473,82
652984707353285331,80
652984707360960189,70
652984707368635047,70
652984707376309905,80
652984707383984763,82
652984707391659621,82
652984707399334479,85
652984707407009337,82
652984707414684195,77
652984707422359053,87
652984707430033911,99
652984707437708769,97
652984707445383627,90
652984707453058485,92
652984707460733343,95
652984707468408201,90
652984707476083059,82
652984707483757917,92
652984707491432775,102
652984707499107633,99
652984707506782491,107
652984707514457349,109
652984707522132207,87
652984707529807065,70
652984707537481923,77
652984707545156781,85
652984707552831639,82
652984707560506497,85
652984707568181355,92
652984707575856213,95
652984707583531071,85
652984707591205929,85
652984707598880787,236
652984707606555645,636
652984707614230503,1048
652984707621905361,955
652984707629580219,246
652984707637255077,-224
652984707644929935,-9
652984707652604793,155
652984707660279651,19
652984707667954509,7
652984707675629367,82
652984707683304225,60
652984707690979083,38
652984707698653941,70
652984707706328799,87
652984707714003657,73
652984707721678515,75
652984707729353373,87
652984707737028231,95
652984707744703089,95
652984707752377947,99
652984707760052805,104
652984707767727663,116
652984707775402521,129
652984707783077379,138
652984707790752237,143
652984707798427095,148
652984707806101953,160
652984707813776811,187
652984707821451669,209
652984707829126527,224
652984707836801385,246
652984707844476243,275
652984707852151101,302
652984707859841076,324
652984707867515725,336
652984707875190374,338
652984707882865023,343
652984707890539672,343
652984707898214321,314
652984707905888970,253
652984707913563619,187
652984707921238268,131
652984707928912917,77
652984707936587566,26
652984707944262215,-7
652984707951936864,-19
652984707959611513,-21
652984707967286162,-34
652984707974960811,-43
652984707982635460,-36
652984707990310109,-29
652984707997984758,-31
652984708005659407,-29
652984708013334056,-21
652984708021008705,-14
652984708028683354,-7
652984708036358003,0
652984708044032652,9
652984708051707301,17
652984708059381950,14
652984708067056599,19
652984708074731248,29
652984708082405897,31
652984708090080546,31
652984708097755195,41
652984708105429844,48
652984708113104493,43
652984708120779142,38
652984708128453791,38
652984708136128440,46
652984708143803089,48
652984708151477738,41
652984708159152387,41
652984708166827036,48
652984708174501685,53
652984708182176334,53
652984708189850983,53
652984708197525632,56
652984708205200281,56
652984708212874930,58
652984708220549579,60
652984708228224228,60
652984708235898877,58
652984708243573526,58
652984708251248175,63
652984708258922824,65
652984708266597473,65
652984708274272122,70
652984708281946771,70
652984708289621420,65
652984708297296069,68
652984708304970718,77
652984708312645367,77
652984708320320016,75
652984708327994665,80
652984708335669314,82
652984708343343963,82
652984708351018612,85
652984708358693261,85
652984708366367910,85
652984708374042559,85
652984708381717208,90
652984708389391857,92
652984708397066506,90
652984708404741155,92
652984708412415804,97
652984708420090518,95
652984708427765167,90
652984708435439816,92
652984708443114465,99
652984708450789114,99
652984708458463763,107
652984708466138412,119
652984708473813061,114
652984708481487710,109
652984708489162359,112
652984708496837008,85
652984708504511657,56
652984708512186306,60
652984708519860955,75
652984708527535604,70
652984708535210253,73
652984708542884902,85
652984708550559551,87
652984708558234200,73
652984708565908849,68
652984708573583498,212
652984708581258147,602
652984708588932796,1018
652984708596607445,960
652984708604282094,280
652984708611956743,-207
652984708619631392,-17
652984708627306041,151
652984708634980690,14
652984708642655339,0
652984708650329988,70
652984708658004637,43
652984708665679286,29
652984708673353935,60
652984708681028584,65
652984708688703233,65
652984708696377882,77
652984708704052531,80
652984708711727180,80
652984708719401829,90
652984708727076478,95
652984708734751127,97
652984708742425776,99
652984708750100425,107
652984708757775074,119
652984708765449723,136
652984708773124372,143
652984708780799021,148
652984708788473670,160
652984708796148319,180
652984708803822968,204
652984708811497617,229
652984708819172266,251
652984708826846915,270
652984708834521564,290
652984708842196213,302
652984708849870862,309
652984708857545511,314
652984708865220160,309
652984708872894809,285
652984708880569458,236
652984708888244107,177
652984708895918756,121
652984708903593405,73
652984708911268054,36
652984708918942703,9
652984708926617352,-9
652984708934292001,-19
652984708941966650,-19
652984708949641299,-14
652984708957315948,-14
652984708964990597,-14
652984708972665246,-14
652984708980324916,-17
652984708987999774,-17
652984708995674632,-9
652984709003349490,-2
652984709011024348,4
652984709018699206,4
652984709026374064,2
652984709034048922,4
652984709041723780,14
652984709049398638,21
652984709057073496,24
652984709064748354,26
652984709072423212,31
652984709080098070,38
652984709087772928,36
652984709095447786,31
652984709103122644,36
652984709110797502,43
652984709118472360,41
652984709126147218,36
652984709133822076,41
652984709141496934,46
652984709149171792,51
652984709156846650,51
652984709164521508,51
652984709172196366,51
652984709179871224,53
652984709187546082,58
652984709195220940,60
652984709202895798,60
652984709210570656,63
652984709218245514,63
652984709225920372,63
652984709233595230,58
652984709241270088,63
652984709248944946,65
652984709256619804,68
652984709264294662,70
652984709271969520,70
652984709279644378,70
652984709287319236,73
652984709294994094,75
652984709302668952,75
652984709310343810,75
652984709318018668,80
652984709325693526,85
652984709333368384,85
652984709341043242,85
652984709348718100,85
652984709356392958,90
652984709364067816,92
652984709371742674,90
652984709379417532,87
652984709387092390,87
652984709394767248,90
652984709402442106,92
652984709410116964,95
652984709417791822,95
652984709425466680,97
652984709433141538,99
652984709440816396,99
652984709448491254,99
652984709456166112,99
652984709463840970,99
652984709471515828,109
652984709479190686,116
652984709486865544,109
652984709494540402,104
652984709502215260,97
652984709509890118,82
652984709517564976,75
652984709525239834,80
652984709532914692,85
652984709540619715,85
652984709548294155,90
652984709555968595,95
652984709563643035,90
652984709571317475,75
652984709578991915,138
652984709586666355,436
652984709594340795,887
652984709602015235,1057
652984709609689675,550
652984709617364115,-119
652984709625038555,-124
652984709632712995,141
652984709640387435,63
652984709648061875,-26
652984709655736315,48
652984709663410755,58
652984709671085195,21
652984709678759635,48
652984709686434075,63
652984709694108515,53
652984709701782955,65
652984709709457395,80
652984709717131835,75
652984709724806275,73
652984709732480715,85
652984709740155155,95
652984709747829595,99
652984709755504035,102
652984709763178475,107
652984709770852915,114
652984709778527355,126
652984709786201795,141
652984709793876235,151
652984709801550675,163
652984709809225115,180
652984709816899555,199
652984709824573995,229
652984709832248435,255
652984709839922875,272
652984709847597315,282
652984709855271755,299
652984709862946195,311
652984709870620635,307
652984709878295075,290
652984709885969515,263
652984709893643955,212
652984709901318395,148
652984709908992835,92
652984709916667275,53
652984709924341715,21
652984709932016155,-2
652984709939690595,-17
652984709947365035,-21
652984709955039475,-19
652984709962713915,-17
652984709970388355,-19
652984709978062795,-19
652984709985737235,-19
652984709993411675,-12
652984710001086115,-7
652984710008760555,-2
652984710016434995,4
652984710024109435,9
652984710031783875,12
652984710039458315,17
652984710047132755,21
652984710054807195,26
652984710062481635,31
652984710070156075,36
652984710077830515,36
652984710085504955,34
652984710093179395,38
652984710100823804,48
652984710108498662,48
652984710116173520,41
652984710123848378,41
652984710131523236,46
652984710139198094,41
652984710146872952,41
652984710154547810,43
652984710162222668,46
652984710169897526,46
652984710177572384,46
652984710185247242,41
652984710192922100,46
652984710200596958,51
652984710208271816,46
652984710215946674,43
652984710223621532,56
652984710231296390,60
652984710238971248,53
652984710246646106,56
652984710254320964,63
652984710261995822,63
652984710269670680,65
652984710277345538,68
652984710285020396,63
652984710292695254,70
652984710300370112,80
652984710308044970,70
652984710315719828,63
652984710323394686,75
652984710331069544,87
652984710338744402,77
652984710346419260,75
652984710354094118,85
652984710361768976,85
652984710369443834,85
652984710377118692,87
652984710384793550,85
652984710392468408,85
652984710400143266,92
652984710407818124,92
652984710415492982,92
652984710423167840,95
652984710430842698,97
652984710438517556,99
652984710446192414,90
652984710453867272,87
652984710461542130,109
652984710469216988,121
652984710476891846,119
652984710484566704,114
652984710492241562,95
652984710499916420,75
652984710507591278,75
652984710515266136,77
652984710522940994,77
652984710530615852,80
652984710538290710,87
652984710545965568,92
652984710553640426,87
652984710561315284,70
652984710568990142,136
6.52985E+17,433
652984710584339858,892
652984710592014716,1082
652984710599689574,597
652984710607364432,-104
652984710615039290,-151
652984710622714148,134
652984710630389006,85
652984710638063864,-19
652984710645738722,46
652984710653413580,68
652984710661118603,38
652984710668793043,56
652984710676467483,73
652984710684141923,68
652984710691816363,73
652984710699490803,77
652984710707165243,80
652984710714839683,90
652984710722514123,99
652984710730188563,102
652984710737863003,99
652984710745537443,102
652984710753211883,121
652984710760886323,131
652984710768560763,124
652984710776235203,136
652984710783909643,163
652984710791584083,175
652984710799258523,185
652984710806932963,212
652984710814607403,243
652984710822281843,265
652984710829956283,287
652984710837630723,304
652984710845305163,319
652984710852979603,331
652984710860654043,329
652984710868328483,309
652984710876002923,272
652984710883677363,219
652984710891351803,160
652984710899026243,99
652984710906700683,48
652984710914375123,14
652984710922049563,-4
652984710929724003,-9
652984710937398443,-19
652984710945072883,-26
652984710952747323,-29
652984710960421763,-26
652984710968096203,-14
652984710975770643,-7
652984710983445083,-9
652984710991119523,-7
652984710998793963,-2
652984711006468403,0
652984711014142843,7
652984711021817283,17
652984711029491723,21
652984711037166163,26
652984711044840603,31
652984711052515043,34
652984711060189483,36
652984711067863923,38
652984711075538363,43
652984711083212803,43
652984711090887243,38
652984711098561683,41
652984711106236123,48
652984711113910563,53
652984711121585003,51
652984711129259443,48
652984711136933883,51
652984711144608323,53
652984711152282763,51
652984711159957203,56
652984711167631643,60
652984711175306083,58
652984711182980523,56
652984711190654963,56
652984711198329403,58
652984711206003843,60
652984711213678283,60
652984711221322692,65
652984711228997550,63
652984711236672408,63
652984711244347266,77
652984711252022124,82
652984711259696982,73
652984711267371840,70
652984711275046698,77
652984711282721556,82
652984711290396414,77
652984711298071272,70
652984711305746130,68
652984711313420988,75
652984711321095846,82
652984711328770704,77
652984711336445562,75
652984711344120420,82
652984711351795278,90
652984711359470136,92
652984711367144994,90
652984711374819852,85
652984711382494710,82
652984711390169568,87
652984711397844426,92
652984711405519284,95
652984711413194142,97
6.52985E+17,92
652984711428543858,107
652984711436218716,124
652984711443893574,119
652984711451568432,121
652984711459243290,116
652984711466918148,92
652984711474593006,80
652984711482267864,85
652984711489942722,87
652984711497617580,80
652984711505292438,80
652984711512967296,87
652984711520642154,90
652984711528317012,73
652984711535991870,121
652984711543666728,392
652984711551341586,843
652984711559016444,1084
652984711566691302,670
652984711574366160,-53
652984711582041018,-177
652984711589715876,114
652984711597390734,102
652984711605065592,-19
652984711612740450,36
652984711620415308,68
652984711628090166,36
652984711635765024,53
652984711643439882,77
652984711651114740,68
652984711658789598,70
652984711666464456,82
652984711674139314,85
652984711681814172,92
652984711689489030,95
652984711697163888,99
652984711704838746,112
652984711712513604,116
652984711720188462,116
652984711727863320,126
652984711735538178,136
652984711743213036,148
652984711750887894,168
652984711758562752,185
652984711766237610,197
652984711773912468,219
652984711781587395,241
652984711789262253,260
652984711796937111,280
652984711804611969,302
652984711812286827,316
652984711819961685,326
652984711827636543,324
652984711835311401,304
652984711842986259,268
652984711850661117,214
652984711858335975,151
652984711866010833,92
652984711873685691,48
652984711881360549,14
652984711889035407,-12
652984711896710265,-29
652984711904385123,-31
652984711912059981,-24
652984711919734839,-24
652984711927409697,-21
652984711935084555,-14
652984711942759413,-12
652984711950434271,-9
652984711958109129,-2
652984711965783987,-2
652984711973458845,0
652984711981133703,12
652984711988808561,24
652984711996483419,21
652984712004158277,17
652984712011833135,24
652984712019507993,36
652984712027182851,34
652984712034857709,29
652984712042532567,34
652984712050207425,43
652984712057882283,46
652984712065557141,41
652984712073231999,41
652984712080906857,46
652984712088581715,43
652984712096256573,41
652984712103931431,43
652984712111606289,43
652984712119281147,48
652984712126956005,53
652984712134630863,53
652984712142305721,53
652984712149980579,56
652984712157655437,58
652984712165330295,60
652984712173005153,60
652984712180680011,60
652984712188354869,63
652984712196029727,63
652984712203704585,63
652984712211379443,68
652984712219054301,73
652984712226729159,75
652984712234404017,75
652984712242078875,73
652984712249753733,68
652984712257428591,70
652984712265103449,80
652984712272778307,80
652984712280453165,77
652984712288128023,82
652984712295802881,87
652984712303477739,85
652984712311152597,85
652984712318827455,87
652984712326502313,92
652984712334177171,95
652984712341882194,95
652984712349556634,90
652984712357231074,87
652984712364905514,92
652984712372579954,95
652984712380254394,97
652984712387928834,95
652984712395603274,97
652984712403277714,99
652984712410952154,95
652984712418626594,99
652984712426301034,114
652984712433975474,119
652984712441649914,121
652984712449324354,119
652984712456998794,97
652984712464673234,77
652984712472347674,82
652984712480022114,82
652984712487696554,80
652984712495370994,82
652984712503045434,82
652984712510719874,82
652984712518394314,75
652984712526068754,65
652984712533743194,170
652984712541417634,521
652984712549092074,965
652984712556766514,1018
652984712564440954,414
652984712572115394,-173
652984712579789834,-68
652984712587464274,148
652984712595138714,29
652984712602813154,-24
652984712610487594,58
652984712618162034,51
652984712625836474,21
652984712633510914,51
652984712641185354,63
652984712648859794,56
652984712656534234,70
652984712664208674,82
652984712671883114,77
652984712679557554,77
652984712687231994,87
652984712694906434,92
652984712702580874,95
652984712710255314,102
652984712717929754,114
652984712725604194,121
652984712733278634,129
652984712740953074,138
652984712748627514,151
652984712756301954,168
652984712763976394,185
652984712771650834,204
652984712779325274,229
652984712786999714,255
652984712794674154,275
652984712802348594,287
652984712810023034,297
652984712817697474,304
652984712825371914,304
652984712833046354,287
652984712840720794,248
652984712848395234,192
652984712856069674,136
652984712863744114,87
652984712871418554,48
652984712879092994,14
652984712886767434,-7
652984712894441874,-14
652984712902116379,-14
652984712909790819,-19
652984712917465259,-24
652984712925139699,-19
652984712932814139,-14
652984712940488579,-14
652984712948163019,-14
652984712955837459,-7
652984712963511899,2
652984712971186339,4
652984712978860779,7
652984712986535219,17
652984712994209659,21
652984713001884099,21
652984713009558539,19
652984713017232979,19
652984713024907419,24
652984713032581859,29
652984713040256299,31
652984713047930739,31
652984713055605179,29
652984713063279619,34
652984713070954059,38
652984713078628499,38
652984713086302939,34
652984713093977379,34
652984713101651819,43
652984713109326259,46
652984713117000699,43
652984713124675139,43
652984713132349579,48
652984713140024019,56
652984713147698459,53
652984713155372899,48
652984713163047339,48
652984713170721779,46
652984713178396219,51
652984713186070659,58
652984713193745099,58
652984713201419539,56
652984713209093979,65
652984713216768419,68
652984713224442859,65
652984713232117299,65
652984713239791739,70
652984713247466179,70
652984713255140619,70
652984713262815059,75
652984713270489499,77
652984713278163939,75
652984713285838379,75
652984713293512819,77
652984713301187259,85
652984713308861699,85
652984713316536139,80
652984713324210579,87
652984713331885019,90
652984713339559459,87
652984713347233899,85
652984713354908339,85
652984713362582779,87
652984713370257219,90
652984713377931659,92
652984713385606099,95
652984713393280539,95
652984713400954979,97
652984713408629419,102
652984713416303859,104
652984713423978299,102
652984713431652739,112
652984713439327179,119
652984713447001619,95
652984713454676059,77
652984713462320468,85
652984713469995326,82
652984713477670184,80
652984713485345042,97
652984713493019900,104
652984713500694758,92
652984713508369616,63
652984713516044474,70
652984713523719332,253
652984713531394190,665
652984713539069048,1048
652984713546743906,904
652984713554418764,185
652984713562093622,-229
652984713569768480,7
652984713577443338,131
652984713585118196,-12
652984713592793054,0
652984713600467912,65
652984713608142770,24
652984713615817628,19
652984713623492486,60
652984713631167344,58
652984713638842202,53
652984713646517060,73
652984713654191918,75
652984713661866776,68
652984713669541634,70
652984713677216492,80
652984713684891350,92
652984713692566208,102
652984713700241066,109
652984713707915924,119
652984713715590782,124
652984713723265640,129
652984713730940498,143
652984713738615356,163
652984713746290214,180
652984713753965072,204
652984713761639930,229
652984713769314788,246
652984713776989646,268
652984713784664504,292
652984713792339362,307
652984713800014220,321
652984713807689078,326
652984713815363936,307
652984713823038794,285
652984713830713652,251
652984713838388510,185
652984713846063368,114
652984713853738226,65
652984713861413084,26
652984713869087942,-2
652984713876762800,-19
652984713884437658,-31
652984713892112516,-29
652984713899787374,-24
652984713907462232,-34
652984713915137090,-34
652984713922811948,-21
652984713930486806,-14
652984713938161664,-12
652984713945836522,-2
652984713953511380,0
652984713961186238,0
652984713968861096,14
652984713976535954,24
652984713984210812,17
652984713991885670,19
652984713999560528,36
652984714007235386,41
652984714014910244,24
652984714022615267,17
652984714030289707,31
652984714037964147,34
652984714045638587,31
652984714053313027,34
652984714060987467,31
652984714068661907,29
652984714076336347,36
652984714084010787,38
652984714091685227,26
652984714099359667,29
652984714107034107,38
652984714114708547,41
652984714122382987,41
652984714130057427,43
652984714137731867,46
652984714145406307,46
652984714153080747,51
652984714160755187,53
652984714168429627,48
652984714176104067,43
652984714183778507,51
652984714191452947,60
652984714199127387,65
652984714206801827,63
652984714214476267,60
652984714222150707,65
652984714229825147,70
652984714237499587,70
652984714245174027,75
652984714252848467,80
652984714260522907,77
652984714268197347,75
652984714275871787,77
652984714283546227,87
652984714291220667,85
652984714298895107,85
652984714306569547,90
652984714314243987,85
652984714321918427,85
652984714329592867,92
652984714337267307,92
652984714344941747,92
652984714352616187,92
652984714360290627,97
652984714367965067,114
652984714375639507,124
652984714383313947,119
652984714390988387,121
652984714398662827,109
652984714406337267,82
652984714414011707,75
652984714421686147,87
652984714429360587,95
652984714437035027,95
652984714444709467,92
652984714452383907,92
652984714460058347,90
652984714467732787,80
652984714475407227,170
652984714483081667,497
652984714490756107,950
652984714498430547,1067
652984714506104987,494
652984714513779427,-168
652984714521453867,-126
652984714529128307,143
652984714536802747,60
652984714544477187,-17
652984714552151627,56
652984714559826067,53
652984714567500507,24
652984714575174947,60
652984714582819356,80
652984714590494214,60
