timestamp,ecg
652984562671318933,13736
652984562678993373,13695
652984562686667813,13653
652984562694342253,13595
652984562702016693,13524
652984562709691133,13454
652984562717365573,13390
652984562725040013,13349
652984562732714453,13312
652984562740388893,13234
652984562748063333,13151
652984562755737773,13105
652984562763412213,13034
652984562771086653,12917
652984562778761093,12842
652984562786435533,12796
652984562794109973,12713
652984562801784413,12622
652984562809458853,12544
652984562817133293,12469
652984562824807733,12396
652984562832482173,12313
652984562840156613,12215
652984562847831053,12130
652984562855505493,12059
652984562863179933,11981
652984562870854373,11891
652984562878528813,11789
652984562886203253,11696
652984562893877693,11623
652984562901552133,11533
652984562909226573,11426
652984562916901013,11348
652984562924575453,11265
652984562932249893,11165
652984562939924333,11080
652984562947598773,10999
652984562955273213,10911
652984562962947653,10819
652984562970622093,10729
652984562978296533,10634
652984562985970973,10526
652984562993645413,10417
652984563001319853,10329
652984563008994293,10258
652984563016668733,10161
652984563024343173,10063
652984563032017613,9990
652984563039692053,9907
652984563047366493,9793
652984563055040933,9710
652984563062715373,9800
652984563070389813,10122
652984563078064253,10419
652984563085738693,10175
652984563093413133,9366
652984563101087573,8884
652984563108762013,9047
652984563116436453,9083
652984563124110893,8849
652984563131785333,8769
652984563139459773,8750
652984563147134213,8633
652984563154808653,8523
652984563162483093,8459
652984563170157533,8382
652984563177831973,8294
652984563185506413,8211
652984563193180853,8133
652984563200855293,8062
652984563208529733,7982
652984563216204173,7887
652984563223878613,7821
652984563231553118,7784
652984563239227558,7716
652984563246901998,7621
652984563254576438,7555
652984563262250878,7506
652984563269925318,7438
652984563277599758,7365
652984563285274198,7309
652984563292948638,7253
652984563300623078,7202
652984563308297518,7160
652984563315971958,7119
652984563323646398,7058
652984563331320838,6975
652984563338995278,6902
652984563346669718,6826
652984563354344158,6736
652984563362018598,6653
652984563369693038,6571
652984563377367478,6473
652984563385041918,6341
652984563392716358,6195
652984563400390798,6078
652984563408065238,5990
652984563415739678,5912
652984563423414118,5842
652984563431088558,5776
652984563438762998,5700
652984563446437438,5644
652984563454111878,5603
652984563461786318,5530
652984563469460758,5447
652984563477135198,5398
652984563484809638,5352
652984563492484078,5293
652984563500158518,5237
652984563507832958,5181
652984563515507398,5120
652984563523181838,5064
652984563530856278,5011
652984563538530718,4959
652984563546205158,4916
652984563553879598,4860
652984563561554038,4794
652984563569228478,4735
652984563576902918,4674
652984563584577358,4613
652984563592251798,4567
652984563599926238,4521
652984563607600678,4453
652984563615275118,4382
652984563622949558,4360
652984563630623998,4348
652984563638298438,4272
652984563645972878,4199
652984563653647318,4187
652984563661321758,4145
652984563668996198,4077
652984563676670638,4041
652984563684345078,4006
652984563692019518,3967
652984563699693958,3916
652984563707368398,3846
652984563715042838,3819
652984563722717278,3809
652984563730391718,3736
652984563738066158,3665
652984563745740598,3651
652984563753415038,3597
652984563761089478,3504
652984563768763918,3492
652984563776438358,3517
652984563784112798,3465
652984563791787303,3387
652984563799461743,3368
652984563807136183,3353
652984563814810623,3287
652984563822485063,3248
652984563830159503,3244
652984563837833943,3217
652984563845508383,3175
652984563853182823,3139
652984563860857263,3117
652984563868531703,3073
652984563876206143,2985
652984563883880583,2944
652984563891555023,2973
652984563899229463,2939
652984563906903903,2849
652984563914578343,2837
652984563922252783,2880
652984563929927223,2871
652984563937601663,2790
652984563945276103,2756
652984563952950543,2949
652984563960624983,3351
652984563968299423,3592
652984563975973863,3207
652984563983648303,2447
652984563991322743,2237
652984563998997183,2510
652984564006671623,2500
652984564014346063,2369
652984564022020503,2425
652984564029694943,2403
652984564037369383,2313
652984564045043823,2332
652984564052718263,2330
652984564060392703,2261
652984564068067143,2239
652984564075741583,2256
652984564083416023,2252
652984564091090463,2205
652984564098764903,2169
652984564106439343,2193
652984564114113783,2208
652984564121788223,2144
652984564129462663,2096
652984564137137103,2108
652984564144811543,2113
652984564152485983,2125
652984564160160423,2132
652984564167834863,2105
652984564175509303,2086
652984564183183743,2071
652984564190858183,2064
652984564198532623,2108
652984564206207063,2125
652984564213881503,2081
652984564221555943,2088
652984564229230383,2105
652984564236904823,2052
652984564244579263,1986
652984564252253703,1952
652984564259928143,1920
652984564267602583,1874
652984564275277023,1789
652984564282951463,1691
652984564290625903,1608
652984564298300343,1572
652984564305974783,1589
652984564313649223,1584
652984564321323663,1525
652984564328998103,1479
652984564336672543,1489
652984564344346983,1518
652984564352021488,1506
652984564359695928,1462
652984564367370368,1433
652984564375044808,1418
652984564382719248,1420
652984564390393688,1433
652984564398068128,1433
652984564405742568,1386
652984564413417008,1355
652984564421091448,1374
652984564428765888,1367
652984564436440328,1347
652984564444114768,1352
652984564451789208,1323
652984564459463648,1284
652984564467138088,1284
652984564474812528,1272
652984564482486968,1238
652984564490161408,1233
652984564497835848,1233
652984564505510288,1213
652984564513184728,1199
652984564520859168,1189
652984564528533608,1165
652984564536208048,1135
652984564543882488,1121
652984564551556928,1128
652984564559231368,1138
652984564566905808,1135
652984564574580248,1138
652984564582254688,1116
652984564589929128,1065
652984564597603568,1050
652984564605278008,1079
652984564612952448,1087
652984564620626888,1060
652984564628301328,1043
652984564635975768,1040
652984564643650208,1043
652984564651324648,1028
652984564658999088,984
652984564666673528,967
652984564674347968,1009
652984564682022408,1026
652984564689696848,979
652984564697371288,948
652984564705045728,960
652984564712720168,970
652984564720394608,957
652984564728069048,948
652984564735743488,918
652984564743417928,896
652984564751092368,933
652984564758766808,938
652984564766441248,877
652984564774115688,879
652984564781790128,921
652984564789464568,889
652984564797139008,853
652984564804813448,848
652984564812487888,862
652984564820162328,1045
652984564827836768,1467
652984564835511208,1796
652984564843185648,1533
652984564850860088,811
652984564858534528,541
652984564866208968,811
652984564873883408,857
652984564881557848,697
652984564889232288,726
652984564896906728,775
652984564904581168,728
652984564912255673,726
652984564919930113,755
652984564927604553,748
652984564935278993,731
652984564942953433,726
652984564950627873,728
652984564958302313,738
652984564965976753,743
652984564973651193,748
652984564981325633,758
652984564989000073,748
652984564996674513,738
652984565004348953,726
652984565012023393,706
652984565019697833,701
652984565027372273,728
652984565035046713,770
652984565042721153,814
652984565050395593,826
652984565058070033,794
652984565065744473,818
652984565073418913,889
652984565081093353,860
652984565088767793,816
652984565096442233,889
652984565104116673,916
652984565111791113,826
652984565119465553,801
652984565127139993,818
652984565134814433,728
652984565142488873,619
652984565150163313,602
652984565157837753,602
652984565165512193,543
652984565173186633,477
652984565180861073,472
652984565188535513,516
652984565196209953,528
652984565203884393,499
652984565211558833,475
652984565219233273,485
652984565226907713,516
652984565234582153,519
652984565242256593,477
652984565249931033,482
652984565257605473,526
652984565265279913,514
652984565272954353,475
652984565280628793,487
652984565288303233,499
652984565295977673,463
652984565303652113,453
652984565311326553,487
652984565319000993,485
652984565326675433,465
652984565334349873,477
652984565342024313,475
652984565349698753,438
652984565357373193,407
652984565365047633,402
652984565372722073,448
652984565380396513,477
652984565388070953,428
652984565395745393,392
652984565403419833,409
652984565411094273,411
652984565418768713,421
652984565426443153,443
652984565434117593,419
652984565441792033,394
652984565449466473,409
652984565457140913,407
652984565464815353,375
652984565472489858,346
652984565480164298,333
652984565487838738,368
652984565495513178,419
652984565503187618,421
652984565510862058,382
652984565518536498,343
652984565526210938,338
652984565533885378,353
652984565541559818,409
652984565549234258,431
652984565556908698,355
652984565564583138,297
652984565572257578,311
652984565579932018,372
652984565587606458,416
652984565595280898,372
652984565602955338,309
652984565610629778,324
652984565618304218,355
652984565625978658,353
652984565633653098,511
652984565641327538,909
652984565649001978,1240
652984565656676418,1016
652984565664350858,329
652984565672025298,60
652984565679699738,343
652984565687374178,407
652984565695048618,236
652984565702723058,272
652984565710397498,389
652984565718071938,346
652984565725746378,272
652984565733420818,299
652984565741095258,341
652984565748769698,348
652984565756444138,338
652984565764118578,329
652984565771793018,326
652984565779467458,324
652984565787141898,333
652984565794816338,363
652984565802490778,387
652984565810165218,387
652984565817839658,404
652984565825514098,414
652984565833188538,402
652984565840862978,414
652984565848537418,431
652984565856211858,441
652984565863886298,463
652984565871560738,482
652984565879235178,502
652984565886909618,538
652984565894584058,563
652984565902258498,558
652984565909932938,541
652984565917607378,536
652984565925281818,565
652984565932956258,560
652984565940630698,475
652984565948305138,389
652984565955979578,353
652984565963654018,316
652984565971328458,268
652984565979002898,236
652984565986677338,243
652984565994351778,255
652984566002026218,226
652984566009700658,231
652984566017375098,282
652984566025049538,297
652984566032724043,260
652984566040398483,238
652984566048072923,243
652984566055747363,251
652984566063421803,272
652984566071096243,292
652984566078770683,268
652984566086445123,221
652984566094119563,253
652984566101794003,341
652984566109468443,316
652984566117142883,255
652984566124817323,287
652984566132491763,304
652984566140166203,265
652984566147840643,258
652984566155515083,275
652984566163189523,270
652984566170863963,263
652984566178538403,275
652984566186212843,270
652984566193887283,243
652984566201561723,241
652984566209236163,265
652984566216910603,297
652984566224585043,307
652984566232259483,275
652984566239933923,243
652984566247608363,248
652984566255282803,258
652984566262957243,255
652984566270631683,258
652984566278306123,270
652984566285980563,282
652984566293655003,280
652984566301329443,275
652984566309003883,280
652984566316678323,294
652984566324352763,285
652984566332027203,272
652984566339701643,309
652984566347376083,324
652984566355050523,287
652984566362724963,270
652984566370399403,268
652984566378073843,263
652984566385748283,270
652984566393422723,265
652984566401097163,265
652984566408771603,280
652984566416446043,272
652984566424120483,324
652984566431794923,626
652984566439469363,1077
652984566447143803,1162
652984566454818243,563
652984566462492683,-21
652984566470167123,95
652984566477841563,316
652984566485516003,177
652984566493190443,129
652984566500864883,243
652984566508539323,226
652984566516213763,173
652984566523888203,204
652984566531562643,216
652984566539237083,182
652984566546911523,194
652984566554585963,241
652984566562260403,255
652984566569934843,241
652984566577609283,221
652984566585283723,224
652984566592958228,246
652984566600632668,255
652984566608307108,248
652984566615981548,260
652984566623655988,290
652984566631330428,314
652984566639004868,329
652984566646679308,331
652984566654353748,336
652984566662028188,355
652984566669702628,385
652984566677377068,394
652984566685051508,404
652984566692725948,433
652984566700400388,450
652984566708074828,441
652984566715749268,431
652984566723423708,416
652984566731098148,382
652984566738772588,321
652984566746447028,251
652984566754121468,207
652984566761795908,173
652984566769470348,129
652984566777144788,119
652984566784819228,126
652984566792493668,121
652984566800168108,119
652984566807842548,138
652984566815516988,153
652984566823191428,141
652984566830865868,126
652984566838540308,129
652984566846214748,136
652984566853889188,126
652984566861563628,114
652984566869238068,129
652984566876912508,165
652984566884586948,180
652984566892261388,187
652984566899935828,187
652984566907610268,158
652984566915284708,136
652984566922959148,155
652984566930633588,180
652984566938308028,173
652984566945982468,160
652984566953656908,160
652984566961331348,158
652984566969005788,165
652984566976680228,187
652984566984354668,190
652984566992029108,175
652984566999703548,170
652984567007377988,170
652984567015052428,170
652984567022726868,173
652984567030401308,175
652984567038075748,182
652984567045750188,180
652984567053424628,158
652984567061099068,148
652984567068773508,170
652984567076447948,212
652984567084122388,226
652984567091796828,212
652984567099471268,197
652984567107145708,190
652984567114820148,192
652984567122494588,197
652984567130169028,185
652984567137843468,180
652984567145517908,185
652984567153192413,182
652984567160866853,170
652984567168541293,160
652984567176215733,287
652984567183890173,667
652984567191564613,1084
652984567199239053,1018
652984567206913493,336
652984567214587933,-121
652984567222262373,104
652984567229936813,275
652984567237611253,119
652984567245285693,95
652984567252960133,151
652984567260634573,90
652984567268309013,97
652984567275983453,192
652984567283657893,199
652984567291332333,160
652984567299006773,173
652984567306681213,185
652984567314355653,187
652984567322030093,202
652984567329704533,199
652984567337378973,180
652984567345053413,185
652984567352727853,199
652984567360402293,214
652984567368076733,253
652984567375751173,280
652984567383425613,263
652984567391100053,263
652984567398774493,294
652984567406448933,316
652984567414123373,333
652984567421797813,350
652984567429472253,360
652984567437146693,363
652984567444821133,375
652984567452495573,385
652984567460170013,382
652984567467844453,394
652984567475518893,392
652984567483193333,324
652984567490867773,251
652984567498542213,199
652984567506216653,155
652984567513891093,129
652984567521565533,102
652984567529239973,75
652984567536914413,65
652984567544588853,70
652984567552263293,77
652984567559937733,90
652984567567612173,97
652984567575286613,107
652984567582961053,114
652984567590635493,104
652984567598309933,99
652984567605984373,107
652984567613658813,109
652984567621333253,109
652984567629007693,126
652984567636682133,124
652984567644356573,107
652984567652031013,143
652984567659705453,199
652984567667379893,182
652984567675054333,151
652984567682728773,160
652984567690403213,163
652984567698077653,158
652984567705752093,170
652984567713426598,173
652984567721101038,170
652984567728775478,177
652984567736449918,182
652984567744124358,180
652984567751798798,187
652984567759473238,194
652984567767147678,170
652984567774822118,151
652984567782496558,163
652984567790170998,175
652984567797845438,165
652984567805519878,160
652984567813194318,175
652984567820868758,187
652984567828543198,190
652984567836217638,194
652984567843892078,182
652984567851566518,160
652984567859240958,155
652984567866915398,168
652984567874589838,180
652984567882264278,182
652984567889938718,163
652984567897613158,160
652984567905287598,173
652984567912962038,204
652984567920636478,421
652984567928310918,853
652984567935985358,1128
652984567943659798,748
652984567951334238,36
652984567959008678,-77
652984567966683118,229
652984567974357558,209
652984567982031998,70
652984567989706438,131
652984567997380878,165
652984568005055318,121
652984568012729758,134
652984568020404198,158
652984568028078638,146
652984568035753078,141
652984568043427518,155
652984568051101958,158
652984568058776398,163
652984568066450838,180
652984568074125278,190
652984568081799718,207
652984568089474158,219
652984568097148598,207
652984568104823038,202
652984568112497478,216
652984568120171918,229
652984568127846358,241
652984568135520798,265
652984568143195238,282
652984568150869678,294
652984568158544118,316
652984568166218558,348
652984568173892998,372
652984568181567438,372
652984568189241878,360
652984568196916318,370
652984568204590758,382
652984568212265198,358
652984568219939638,309
652984568227614078,258
652984568235288518,207
652984568242962958,158
652984568250637398,126
652984568258311838,109
652984568265986278,92
652984568273660783,87
652984568281335223,77
652984568289009663,63
652984568296684103,77
652984568304358543,102
652984568312032983,99
652984568319707423,99
652984568327381863,109
652984568335056303,116
652984568342730743,119
652984568350405183,121
652984568358079623,116
652984568365754063,112
652984568373428503,114
652984568381102943,126
652984568388777383,131
652984568396451823,129
652984568404126263,124
652984568411800703,126
652984568419475143,136
652984568427149583,143
652984568434824023,131
652984568442498463,124
652984568450172903,138
652984568457847343,146
652984568465521783,129
652984568473196223,119
652984568480870663,131
652984568488545103,141
652984568496219543,141
652984568503893983,136
652984568511568423,134
652984568519242863,146
652984568526917303,155
652984568534591743,141
652984568542266183,119
652984568549940623,131
652984568557615063,163
652984568565289503,175
652984568572963943,177
652984568580638383,182
652984568588312823,173
652984568595987263,155
652984568603661703,146
652984568611336143,146
652984568619010583,153
652984568626685023,163
652984568634359463,165
652984568642033903,163
652984568649708343,153
652984568657382783,173
652984568665057223,360
652984568672731663,767
652984568680406103,1084
652984568688080543,818
652984568695754983,126
652984568703429423,-114
652984568711103863,158
652984568718778303,202
652984568726452743,60
652984568734127183,102
652984568741801623,155
652984568749476063,121
652984568757150503,121
652984568764824943,136
652984568772499383,121
652984568780173823,114
652984568787848263,126
652984568795522703,138
652984568803197143,143
652984568810871583,151
652984568818546023,163
652984568826220463,175
652984568833894968,173
652984568841569408,170
652984568849243848,177
652984568856918288,180
652984568864592728,194
652984568872267168,221
652984568879941608,231
652984568887616048,236
652984568895290488,263
652984568902964928,294
652984568910639368,309
652984568918313808,329
652984568925988248,358
652984568933662688,353
652984568941337128,333
652984568949011568,333
652984568956686008,319
652984568964360448,275
652984568972034888,216
652984568979709328,160
652984568987383768,121
652984568995058208,85
652984569002732648,36
652984569010407088,12
652984569018081528,-2
652984569025755968,-26
652984569033430408,9
652984569041104848,56
652984569048779288,14
652984569056453728,-29
652984569064128168,-14
652984569071802608,-7
652984569079477048,-19
652984569087151488,-29
652984569094825928,-26
652984569102500368,-9
652984569110174808,-29
652984569117849248,-75
652984569125523688,-48
652984569133198128,14
652984569140872568,0
652984569148547008,-43
652984569156221448,-38
652984569163895888,-17
652984569171570328,2
652984569179244768,17
652984569186919208,7
652984569194593648,-7
652984569202268088,-2
652984569209942528,12
652984569217616968,29
652984569225291408,60
652984569232965848,68
652984569240640288,24
652984569248314728,29
652984569255989168,77
652984569263663608,80
652984569271338048,80
652984569279012488,102
652984569286686928,104
652984569294361368,87
652984569302035808,80
652984569309710248,75
652984569317384688,85
652984569325059128,138
652984569332733568,168
652984569340408008,153
652984569348082448,126
652984569355756888,104
652984569363431328,121
652984569371105768,155
652984569378780208,153
652984569386454648,138
652984569394129153,143
652984569401803593,158
652984569409478033,165
652984569417152473,155
652984569424826913,136
652984569432501353,214
652984569440175793,543
652984569447850233,977
652984569455524673,1050
652984569463199113,487
652984569470873553,-85
652984569478547993,12
652984569486222433,236
652984569493896873,112
652984569501571313,65
652984569509245753,192
652984569516920193,190
652984569524594633,114
652984569532269073,136
652984569539943513,173
652984569547617953,163
652984569555292393,173
652984569562966833,209
652984569570641273,192
652984569578315713,141
652984569585990153,180
652984569593664593,243
652984569601339033,216
652984569609013473,177
652984569616687913,199
652984569624362353,243
652984569632036793,270
652984569639711233,253
652984569647385673,231
652984569655060113,292
652984569662734553,375
652984569670408993,355
652984569678083433,336
652984569685757873,382
652984569693432313,392
652984569701106753,363
652984569708781193,370
652984569716455633,389
652984569724130073,385
652984569731804513,355
652984569739478953,302
652984569747153393,226
652984569754827833,165
652984569762502273,148
652984569770176713,129
652984569777851153,87
652984569785525593,77
652984569793200033,109
652984569800874473,112
652984569808548913,85
652984569816223353,85
652984569823897793,77
652984569831572233,53
652984569839246673,68
652984569846921113,82
652984569854595553,68
652984569862269993,77
652984569869944433,109
652984569877618873,129
652984569885293313,114
652984569892967753,97
652984569900642193,102
652984569908316633,107
652984569915991073,102
652984569923665513,65
652984569931339953,43
652984569939014393,134
652984569946688833,207
652984569954363338,153
652984569962037778,112
652984569969712218,116
652984569977386658,109
652984569985061098,116
652984569992735538,121
652984570000409978,99
652984570008084418,73
652984570015758858,51
652984570023433298,104
652984570031107738,192
652984570038782178,151
652984570046456618,77
652984570054131058,107
652984570061805498,126
652984570069479938,102
652984570077154378,95
652984570084828818,102
652984570092503258,116
652984570100177698,134
652984570107852138,134
652984570115526578,134
652984570123201018,143
652984570130875458,146
652984570138549898,131
652984570146224338,107
652984570153898778,102
652984570161573218,116
652984570169247658,107
652984570176922098,112
652984570184596538,158
652984570192270978,165
652984570199945418,119
652984570207619858,116
652984570215294298,260
652984570222968738,602
652984570230643178,967
652984570238317618,909
652984570245992058,287
652984570253666498,-153
652984570261340938,43
652984570269015378,207
652984570276689818,65
652984570284364258,70
652984570292038698,170
652984570299713138,131
652984570307387578,85
652984570315062018,112
652984570322736458,129
652984570330410898,129
652984570338085338,138
652984570345759778,148
652984570353434218,151
652984570361108658,158
652984570368783098,173
652984570376457538,180
652984570384131978,182
652984570391806418,182
652984570399480858,187
652984570407155298,207
652984570414829738,219
652984570422504178,229
652984570430178618,246
652984570437853058,255
652984570445527498,270
652984570453201938,299
652984570460876378,326
652984570468550818,341
652984570476225258,353
652984570483899698,358
652984570491574138,338
652984570499248578,343
652984570506923018,380
652984570514617539,346
652984570522291701,253
652984570529965863,182
652984570537640025,136
652984570545314187,119
652984570552988349,112
652984570560662511,82
652984570568336673,58
652984570576010835,48
652984570583684997,38
652984570591359159,29
652984570599033321,29
652984570606707483,36
652984570614381645,41
652984570622055807,43
652984570629729969,43
652984570637404131,56
652984570645078293,75
652984570652752455,75
652984570660426617,56
652984570668100779,53
652984570675774941,60
652984570683449103,68
652984570691123265,82
652984570698797427,90
652984570706471589,85
652984570714145751,85
652984570721819913,92
652984570729494075,95
652984570737168237,92
652984570744842399,90
652984570752516561,87
652984570760190723,90
652984570767864885,92
652984570775539047,87
652984570783213209,92
652984570790887371,104
652984570798561533,99
652984570806235695,92
652984570813909857,92
652984570821584019,97
652984570829258181,107
652984570836932343,109
652984570844606505,99
652984570852280667,95
652984570859954829,92
652984570867628991,73
652984570875303153,53
652984570882977315,99
652984570890651477,165
652984570898325639,155
652984570905999801,143
652984570913673963,168
652984570921348125,158
652984570929022287,121
652984570936696449,114
652984570944370611,126
652984570952044773,121
652984570959718935,124
652984570967393097,146
652984570975067259,143
652984570982741421,116
652984570990415583,192
652984570998089745,516
652984571005763907,950
652984571013438069,1016
652984571021112231,421
652984571028786393,-155
652984571036460555,-26
652984571044134717,209
652984571051808879,87
652984571059483041,29
652984571067157203,104
652984571074816328,92
652984571082490699,65
652984571090165070,97
652984571097839441,109
652984571105513812,92
652984571113188183,85
652984571120862554,85
652984571128536925,112
652984571136211296,146
652984571143885667,153
652984571151560038,160
652984571159234409,168
652984571166908780,160
652984571174583151,170
652984571182257522,197
652984571189931893,204
652984571197606264,207
652984571205280635,226
652984571212955006,253
652984571220629377,277
652984571228303748,290
652984571235978119,297
652984571243652490,319
652984571251326861,338
652984571259001232,350
652984571266675603,358
652984571274349974,355
652984571282024345,341
652984571289698716,316
652984571297373087,268
652984571305047458,202
652984571312721829,146
652984571320396200,104
652984571328070571,68
652984571335744942,36
652984571343419313,12
652984571351093684,17
652984571358768055,46
652984571366442426,56
652984571374116797,41
652984571381791168,43
652984571389465539,58
652984571397139910,58
652984571404814281,58
652984571412488652,68
652984571420163023,73
652984571427837394,70
652984571435511765,70
652984571443186136,75
652984571450860507,80
652984571458534878,85
652984571466209249,87
652984571473883620,87
652984571481557991,80
652984571489232362,80
652984571496906733,85
652984571504581104,82
652984571512255475,77
652984571519929846,85
652984571527604217,82
652984571535278588,77
652984571542952959,107
652984571550627330,121
652984571558301701,90
652984571565976072,80
652984571573650443,95
652984571581324814,87
652984571588999185,85
652984571596673556,95
652984571604347927,102
652984571612022298,107
652984571619696669,104
652984571627371040,97
652984571635015330,102
652984571642690119,109
652984571650364908,104
652984571658039697,107
652984571665714486,116
652984571673389275,114
652984571681064064,107
652984571688738853,99
652984571696413642,114
652984571704088431,141
652984571711763220,141
652984571719438009,136
652984571727112798,138
652984571734787587,124
652984571742462376,102
652984571750137165,99
652984571757811954,109
652984571765486743,119
652984571773161532,112
652984571780836321,114
652984571788511110,121
652984571796185899,116
652984571803860688,199
652984571811535477,492
652984571819210266,904
652984571826885055,1033
652984571834559844,516
652984571842234633,-102
652984571849909422,-46
652984571857584211,216
6.52985E+17,112
652984571872933789,12
652984571880608578,97
652984571888283367,112
652984571895958156,68
652984571903632945,95
652984571911307734,129
652984571918982523,134
652984571926657312,141
652984571934332101,131
652984571942006890,121
652984571949681679,124
652984571957356468,134
652984571965031257,148
652984571972706046,151
652984571980380835,146
652984571988055624,163
652984571995730413,185
652984572003405202,197
652984572011079991,212
652984572018754780,219
652984572026429569,233
652984572034104358,248
652984572041779147,253
652984572049453936,265
652984572057128725,287
652984572064803514,304
652984572072478303,314
652984572080153092,321
652984572087827881,326
652984572095502670,307
652984572103177459,260
652984572110852248,221
652984572118527037,207
652984572126201826,158
652984572133876615,90
652984572141551404,65
652984572149226193,51
652984572156900982,19
652984572164575771,4
652984572172250560,9
652984572179925349,24
652984572187600138,48
652984572195305046,58
652984572202979417,73
652984572210653788,77
652984572218328159,68
652984572226002530,68
652984572233676901,56
652984572241351272,41
652984572249025643,60
652984572256700014,56
652984572264374385,31
652984572272048756,58
652984572279723127,97
652984572287397498,80
652984572295071869,41
652984572302746240,36
652984572310420611,77
652984572318094982,95
652984572325769353,73
652984572333443724,77
652984572341118095,99
652984572348792466,77
652984572356466837,73
652984572364141208,109
652984572371815579,102
652984572379489950,53
652984572387164321,65
652984572394838692,95
652984572402513063,68
652984572410187434,73
652984572417861805,121
652984572425536176,126
652984572433210547,107
652984572440884918,104
652984572448559289,97
652984572456233660,65
652984572463908031,48
652984572471582402,102
652984572479256773,160
652984572486931144,155
652984572494605515,131
652984572502279886,134
652984572509954257,143
652984572517628628,148
652984572525302999,141
652984572532977370,121
652984572540651741,119
652984572548326112,134
652984572556000483,114
652984572563674854,82
652984572571349225,90
652984572579023596,116
652984572586697967,129
652984572594372338,109
652984572602046709,90
652984572609721080,112
652984572617395451,226
652984572625069822,516
652984572632744193,904
652984572640418564,928
652984572648092935,346
652984572655767306,-136
652984572663441677,7
652984572671116048,177
652984572678790419,60
652984572686464790,31
652984572694139161,107
652984572701813532,102
652984572709487903,95
652984572717162274,97
652984572724836645,75
652984572732511016,112
652984572740185387,143
652984572747859758,107
652984572755554232,90
652984572763228324,97
652984572770902416,116
652984572778576508,160
652984572786250600,153
652984572793924692,126
652984572801598784,136
652984572809272876,148
652984572816946968,175
652984572824621060,192
652984572832295152,158
652984572839969244,165
652984572847643336,233
652984572855317428,253
652984572862991520,255
652984572870665612,292
652984572878339704,294
652984572886013796,268
652984572893687888,304
652984572901361980,353
652984572909036072,329
652984572916710164,292
652984572924384256,246
652984572932058348,177
652984572939732440,138
652984572947406532,107
652984572955080624,60
652984572962754716,29
652984572970428808,24
652984572978102900,31
652984572985776992,43
652984572993451084,41
652984573001125176,34
652984573008799268,29
652984573016473360,36
652984573024147452,70
652984573031821544,85
652984573039495636,56
652984573047169728,41
652984573054843820,60
652984573062517912,82
652984573070192004,77
652984573077866096,68
652984573085540188,68
652984573093214280,68
652984573100888372,77
652984573108562464,92
652984573116236556,82
652984573123910648,68
652984573131584740,70
652984573139258832,90
652984573146932924,109
652984573154607016,112
652984573162281108,95
652984573169955200,92
652984573177629292,97
652984573185303384,90
652984573192977476,82
652984573200651568,80
652984573208325660,63
652984573215999752,68
652984573223673844,107
652984573231347936,129
652984573239022028,129
652984573246696120,131
652984573254370212,119
652984573262044304,109
652984573269718396,124
652984573277392488,121
652984573285066580,102
652984573292740672,107
652984573300414764,124
652984573308088856,109
652984573315737930,87
652984573323412370,134
652984573331086810,173
652984573338761250,129
652984573346435690,97
652984573354110130,126
652984573361784570,129
652984573369459010,109
652984573377133450,119
652984573384807890,126
652984573392482330,116
652984573400156770,221
652984573407831210,567
652984573415505650,970
652984573423180090,935
652984573430854530,292
652984573438528970,-190
652984573446203410,12
652984573453877850,214
652984573461552290,70
652984573469226730,24
652984573476901170,107
652984573484575610,107
652984573492250050,87
652984573499924490,107
652984573507598930,104
652984573515273370,73
652984573522947810,80
652984573530622250,138
652984573538296690,158
652984573545971130,121
652984573553645570,109
652984573561320010,146
652984573568994450,182
652984573576668890,182
652984573584343330,143
652984573592017770,124
652984573599692210,163
652984573607366650,194
652984573615041090,182
652984573622715530,197
652984573630389970,236
652984573638064410,253
652984573645738850,275
652984573653413290,319
652984573661087730,341
652984573668762170,341
652984573676436610,363
652984573684111050,358
652984573691785490,299
652984573699459930,253
652984573707134370,221
652984573714808810,151
652984573722483250,77
652984573730157690,56
652984573737832130,53
652984573745506570,21
652984573753181010,7
652984573760855450,21
652984573768529890,14
652984573776204330,7
652984573783878770,21
652984573791553210,36
652984573799227650,53
652984573806902090,53
652984573814576530,46
652984573822250970,56
652984573829925410,58
652984573837599850,60
652984573845274290,70
652984573852948730,60
652984573860623170,36
652984573868297610,43
652984573875972115,75
652984573883646555,92
652984573891320995,87
652984573898995435,85
652984573906669875,112
652984573914344315,124
652984573922018755,92
652984573929693195,77
652984573937367635,80
652984573945042075,73
652984573952716515,73
652984573960390955,73
652984573968065395,68
652984573975739835,70
652984573983414275,90
652984573991088715,95
652984573998763155,75
652984574006437595,70
652984574014112035,80
652984574021786475,63
652984574029460915,65
652984574037135355,134
652984574044809795,168
652984574052484235,138
652984574060158675,129
652984574067833115,126
652984574075507555,95
652984574083181995,82
652984574090856435,104
652984574098530875,109
652984574106205315,97
652984574113879755,104
652984574121554195,119
652984574129228635,129
652984574136903075,190
652984574144577515,407
652984574152251955,811
652984574159926395,1121
652984574167600835,809
652984574175275275,60
652984574182949715,-148
652984574190624155,168
652984574198298595,190
652984574205973035,48
652984574213647475,126
652984574221321915,177
652984574228996355,114
652984574236670795,121
652984574244345235,160
652984574252019675,160
652984574259694115,160
652984574267368555,158
652984574275042995,153
652984574282717435,168
652984574290391875,175
652984574298066315,175
652984574305740755,187
652984574313415195,202
652984574321089635,212
652984574328764075,224
652984574336438515,236
652984574344112955,246
652984574351787395,255
652984574359461835,277
652984574367136275,302
652984574374810715,309
652984574382485155,316
652984574390159595,346
652984574397834035,365
652984574405508475,363
652984574413182915,358
652984574420857355,355
652984574428531795,333
652984574436206300,309
652984574443880740,287
652984574451555180,216
652984574459229620,129
652984574466904060,73
652984574474578500,26
652984574482252940,-2
652984574489927380,-12
652984574497601820,-21
652984574505276260,-29
652984574512950700,-29
652984574520625140,-26
652984574528299580,-9
652984574535974020,0
652984574543648460,-14
652984574551322900,0
652984574558997340,41
652984574566671780,31
652984574574346220,9
652984574582020660,36
652984574589695100,58
652984574597369540,51
652984574605043980,53
652984574612718420,56
652984574620392860,53
652984574628067300,56
652984574635741740,63
652984574643416180,60
652984574651090620,58
652984574658765060,63
652984574666439500,63
652984574674113940,58
652984574681788380,58
652984574689462820,63
652984574697137260,65
652984574704811700,70
652984574712486140,80
652984574720160580,82
652984574727835020,60
652984574735509460,31
652984574743183900,43
652984574750858340,77
652984574758532780,80
652984574766207220,65
652984574773881660,60
652984574781556100,73
652984574789230540,80
652984574796904980,65
652984574804579420,60
652984574812253860,80
652984574819928300,90
652984574827602740,77
652984574835277180,60
652984574842951620,68
652984574850626060,92
652984574858300500,97
652984574865974940,80
652984574873649380,58
652984574881323820,129
652984574888998260,433
652984574896672700,867
652984574904347140,1004
652984574912021580,502
652984574919696020,-124
652984574927370460,-114
652984574935044900,131
652984574942719340,53
652984574950393780,-9
652984574958068220,63
652984574965742660,48
652984574973417100,-4
652984574981091540,-12
652984574988765980,-12
652984574996410389,-2
652984575004085247,12
652984575011760105,29
652984575019434963,38
652984575027109821,36
652984575034784679,46
652984575042459537,63
652984575050134395,60
652984575057809253,38
652984575065484111,36
652984575073158969,70
652984575080833827,90
652984575088508685,85
652984575096183543,99
652984575103858401,131
652984575111533259,158
652984575119208117,180
652984575126882975,219
652984575134557833,255
652984575142232691,231
652984575149907549,216
652984575157582407,255
652984575165257265,255
652984575172932123,214
652984575180606981,204
652984575188281839,163
652984575195956697,70
652984575203631555,46
652984575211306413,82
652984575218981271,56
652984575226656129,-12
652984575234330987,-17
652984575242005845,24
652984575249680703,14
652984575257355561,-7
652984575265030419,9
652984575272705277,7
652984575280380135,14
652984575288054993,77
652984575295729851,97
652984575303404709,70
652984575311079567,70
652984575318754425,90
652984575326429283,97
652984575334104141,107
652984575341778999,109
652984575349453857,104
652984575357128715,107
652984575364803573,114
652984575372478431,102
652984575380153289,90
652984575387828147,112
652984575395503005,148
652984575403177863,151
652984575410852721,119
652984575418527579,112
652984575426202437,131
652984575433877295,126
652984575441552153,102
652984575449227011,107
652984575456901869,126
652984575464576727,119
652984575472251585,102
652984575479926443,116
652984575487601301,126
652984575495276159,109
652984575502951017,116
652984575510625875,131
652984575518300733,124
652984575525975591,131
652984575533650449,151
652984575541325307,146
652984575549000165,136
652984575556710156,136
652984575564384527,126
652984575572058898,109
652984575579733269,90
652984575587407640,90
652984575595082011,124
652984575602756382,153
652984575610430753,148
652984575618105124,119
652984575625779495,107
652984575633453866,258
652984575641128237,665
652984575648802608,1060
652984575656476979,865
652984575664151350,131
652984575671825721,-173
652984575679500092,112
652984575687174463,170
652984575694848834,12
652984575702523205,63
652984575710197576,119
652984575717871947,51
652984575725546318,41
652984575733220689,80
652984575740895060,116
652984575748569431,146
652984575756243802,119
652984575763918173,99
652984575771592544,155
652984575779266915,177
652984575786941286,138
652984575794615657,143
652984575802290028,180
652984575809964399,170
652984575817638770,160
652984575825313141,197
652984575832987512,224
652984575840661883,209
652984575848336254,197
652984575856010625,229
652984575863684996,268
652984575871359367,287
652984575879033738,292
652984575886708109,302
652984575894382480,329
652984575902056851,377
652984575909731222,385
652984575917405593,341
652984575925079964,304
652984575932754335,272
652984575940428706,216
652984575948103077,151
652984575955777448,102
652984575963451819,68
652984575971126190,24
652984575978800561,2
652984575986474932,29
652984575994149303,46
652984576001823674,36
652984576009498045,38
652984576017172416,36
652984576024846787,24
652984576032521158,26
652984576040195529,38
652984576047869900,41
652984576055544271,41
652984576063218642,41
652984576070893013,43
652984576078567384,43
652984576086241755,24
652984576093916126,17
652984576101590497,63
652984576109264868,104
652984576116939254,75
652984576124613625,43
652984576132287996,53
652984576139962367,73
652984576147636738,75
652984576155311109,53
652984576162985480,41
652984576170659851,58
652984576178334222,65
652984576186008593,58
652984576193682964,53
652984576201357335,68
652984576209031706,80
652984576216706077,65
652984576224380448,58
652984576232054819,80
652984576239729190,92
652984576247403561,77
652984576255077932,70
652984576262752303,85
652984576270426674,85
652984576278101045,73
652984576285775416,75
652984576293449787,77
652984576301124158,75
652984576308798529,92
652984576316472900,107
652984576324147271,104
652984576331821642,107
652984576339496013,119
652984576347170384,124
652984576354844755,116
652984576362519126,95
652984576370193497,90
652984576377867868,102
652984576385542239,92
652984576393216610,77
652984576400890981,107
652984576408565352,138
652984576416239723,114
652984576423914094,82
652984576431588465,216
652984576439262836,592
652984576446937207,979
652984576454611578,918
652984576462285949,280
652984576469960320,-165
652984576477634691,36
652984576485309062,175
652984576492983433,4
652984576500657804,17
652984576508332175,124
652984576516006546,75
652984576523680917,38
652984576531355288,82
652984576539029659,92
652984576546704030,92
652984576554378401,116
652984576562052772,116
652984576569727143,104
652984576577401514,112
652984576585075885,121
652984576592750256,121
652984576600424627,121
652984576608098998,136
652984576615773369,141
652984576623447740,148
652984576631122111,177
652984576638796482,199
652984576646470853,202
652984576654145224,212
652984576661819595,243
652984576669493966,277
652984576677153304,294
652984576684827884,326
652984576692502464,353
652984576700177044,350
652984576707851624,346
652984576715526204,346
652984576723200784,333
652984576730875364,285
652984576738549944,209
652984576746224524,138
652984576753899104,87
652984576761573684,56
652984576769248264,29
652984576776922844,9
652984576784597424,7
652984576792272004,12
652984576799946584,0
652984576807621164,-17
652984576815295744,-14
652984576822970324,7
652984576830644904,19
652984576838319484,14
652984576845994064,17
652984576853668644,29
652984576861343224,38
652984576869017804,38
652984576876692384,38
652984576884366964,36
652984576892041544,41
652984576899716124,51
652984576907390704,51
652984576915065284,53
652984576922739864,56
652984576930414444,68
652984576938089024,87
652984576945763604,70
652984576953438184,48
652984576961112764,63
652984576968787344,75
652984576976461924,56
652984576984136504,41
652984576991811084,60
652984576999485664,87
652984577007160244,70
652984577014834824,43
652984577022509404,70
652984577030183984,90
652984577037858564,70
652984577045533144,77
652984577053207724,99
652984577060882304,92
652984577068556884,80
652984577076231464,82
652984577083906044,90
652984577091580624,87
652984577099255204,73
652984577106929784,60
652984577114604364,53
652984577122278944,60
652984577129953524,112
652984577137628104,141
652984577145302684,124
652984577152977264,119
652984577160651844,119
652984577168326424,97
652984577176001004,85
652984577183675584,90
652984577191350164,92
652984577199024744,95
652984577206699324,107
652984577214373904,109
652984577222048484,90
652984577229723064,109
652984577237407743,292
652984577245082183,687
652984577252756623,1023
652984577260431063,799
652984577268105503,87
652984577275779943,-219
652984577283454383,53
652984577291128823,151
652984577298803263,19
652984577306477703,41
652984577314152143,107
652984577321826583,80
652984577329501023,56
652984577337175463,80
652984577344849903,107
652984577352524343,109
652984577360198783,104
652984577367873223,114
652984577375547663,112
652984577383222103,107
652984577390896543,124
652984577398570983,138
652984577406245423,143
652984577413919863,160
652984577421594303,175
652984577429268743,168
652984577436943183,177
652984577444617623,214
652984577452292063,229
652984577459966503,233
652984577467640943,268
652984577475315383,297
652984577482989823,292
652984577490664263,316
652984577498338703,365
652984577506013143,370
652984577513687583,348
652984577521362023,333
652984577529036463,299
652984577536710903,248
652984577544385343,192
652984577552059783,143
652984577559734223,114
652984577567408663,65
652984577575083103,19
652984577582757543,14
652984577590431983,0
652984577598106423,-26
652984577605780863,-9
652984577613455303,21
652984577621129743,7
652984577628804183,-12
652984577636478623,7
652984577644153063,31
652984577651827503,26
652984577659501943,17
652984577667176383,34
652984577674850823,56
652984577682525263,53
652984577690199703,53
652984577697874143,60
652984577705548583,51
652984577713223023,53
652984577720897463,75
652984577728571903,63
652984577736246343,43
652984577743920783,53
652984577751595223,56
652984577759269663,51
652984577766944103,70
652984577774618543,87
652984577782292983,70
652984577789967423,65
652984577797641928,82
652984577805316368,77
652984577812990808,63
652984577820665248,70
652984577828339688,80
652984577836014128,70
652984577843688568,48
652984577851363008,56
652984577859037448,97
652984577866711888,109
652984577874386328,87
652984577882060768,90
652984577889735208,102
652984577897409648,92
652984577905084088,87
652984577912758528,97
652984577920432968,99
652984577928107408,95
652984577935781848,87
652984577943456288,65
652984577951130728,73
652984577958805168,129
652984577966479608,148
652984577974154048,126
652984577981828488,134
652984577989502928,131
652984577997177368,95
652984578004851808,87
652984578012526248,107
652984578020200688,112
652984578027875128,104
652984578035549568,104
652984578043224008,104
652984578050898448,85
652984578058572888,126
652984578066247328,416
652984578073921768,894
652984578081596208,1094
652984578089270648,606
652984578096945088,-75
652984578104619528,-107
652984578112293968,158
652984578119968408,90
652984578127642848,-4
652984578135317288,68
652984578142991728,70
652984578150666168,38
652984578158340608,77
652984578166015048,95
652984578173689488,80
652984578181363928,90
652984578189038368,109
652984578196712808,119
652984578204387248,116
652984578212061688,107
652984578219736128,119
652984578227410568,136
652984578235085008,134
652984578242759448,134
652984578250433888,151
652984578258108328,163
652984578265782768,175
652984578273457208,190
652984578281131648,202
652984578288806088,231
652984578296480528,275
652984578304154968,290
652984578311829408,292
652984578319503848,309
652984578327178288,324
652984578334852728,329
652984578342527168,321
652984578350201608,311
652984578357876113,292
652984578365550553,233
652984578373224993,160
652984578380899433,109
652984578388573873,60
652984578396248313,36
652984578403922753,46
652984578411597193,29
652984578419271633,2
652984578426946073,2
652984578434620513,9
652984578442294953,4
652984578449969393,2
652984578457643833,7
652984578465318273,17
652984578472992713,31
652984578480667153,38
652984578488341593,36
652984578496016033,36
652984578503690473,51
652984578511364913,65
652984578519039353,56
652984578526713793,46
652984578534388233,56
652984578542062673,70
652984578549737113,70
652984578557411553,70
652984578565085993,75
652984578572760433,77
652984578580434873,73
652984578588109313,70
652984578595783753,77
652984578603458193,87
652984578611132633,77
652984578618807073,53
652984578626481513,41
652984578634155953,56
652984578641830393,80
652984578649504833,80
652984578657179273,80
652984578664853713,102
652984578672528153,102
652984578680202593,80
652984578687877033,68
652984578695551473,82
652984578703225913,102
652984578710900353,87
652984578718574793,60
652984578726249233,68
652984578733923673,99
652984578741598113,114
652984578749272553,99
652984578756946993,90
652984578764621433,102
652984578772295873,107
652984578779970313,97
652984578787644753,104
652984578795319193,114
652984578802993633,102
652984578810668073,95
652984578818342513,107
652984578826016953,112
652984578833691393,104
652984578841365833,126
652984578849040273,163
652984578856714713,148
652984578864389153,102
652984578872063593,97
652984578879738033,121
652984578887412473,126
652984578895086913,112
652984578902761353,112
652984578910435793,116
652984578918110298,95
652984578925784738,99
652984578933459178,304
652984578941133618,733
652984578948808058,1069
652984578956482498,814
652984578964156938,87
652984578971831378,-177
652984578979505818,92
652984578987180258,124
652984578994854698,-2
652984579002529138,58
652984579010203578,95
652984579017878018,46
652984579025552458,65
652984579033226898,90
652984579040901338,60
652984579048575778,56
652984579056250218,92
652984579063924658,97
652984579071599098,77
652984579079273538,90
652984579086947978,119
652984579094622418,121
652984579102296858,112
652984579109971298,109
652984579117645738,114
652984579125320178,129
652984579132994618,146
652984579140669058,155
652984579148343498,182
652984579156017938,212
652984579163692378,209
652984579171366818,202
652984579179041258,251
652984579186715698,336
652984579194390138,331
652984579202064578,297
652984579209739018,329
652984579217413458,346
652984579225087898,302
652984579232762338,248
652984579240436778,199
652984579248111218,141
652984579255785658,82
652984579263460098,48
652984579271134538,34
652984579278808978,24
652984579286483418,7
652984579294157858,4
652984579301832298,12
652984579309506738,12
652984579317181178,14
652984579324855618,24
652984579332530058,29
652984579340204498,29
652984579347878938,34
652984579355553378,38
652984579363227818,34
652984579370902258,41
652984579378576698,51
652984579386251138,56
652984579393925578,56
652984579401600018,46
652984579409274458,38
652984579416948898,51
652984579424623338,60
652984579432297778,60
652984579439972218,65
652984579447646658,68
652984579455321098,65
652984579462995538,65
652984579470669978,77
652984579478344483,85
652984579486018923,70
652984579493693363,80
652984579501367803,107
652984579509042243,90
652984579516716683,63
652984579524391123,87
652984579532065563,134
652984579539740003,129
652984579547414443,104
652984579555088883,116
652984579562763323,126
652984579570437763,126
652984579578112203,131
652984579585786643,131
652984579593461083,126
652984579601135523,129
652984579608809963,124
652984579616484403,112
652984579624158843,112
652984579631833283,124
652984579639507723,121
652984579647182163,102
652984579654856603,114
652984579662531043,158
652984579670205483,158
652984579677879923,124
652984579685554363,112
652984579693228803,112
652984579700903243,114
652984579708577683,119
652984579716252123,107
652984579723926563,90
652984579731601003,112
652984579739275443,134
652984579746949883,112
652984579754624323,114
652984579762298763,134
652984579769973203,112
652984579777647643,85
652984579785322083,87
652984579792996523,90
652984579800670963,80
652984579808345403,73
652984579816019843,73
652984579823694283,65
652984579831368723,51
652984579839043163,163
652984579846717603,528
652984579854392043,960
652984579862066483,933
652984579869740923,258
652984579877415363,-255
652984579885089803,-73
652984579892764243,131
652984579900438683,26
652984579908113123,0
652984579915787563,46
652984579923462003,19
652984579931136443,9
652984579938810883,31
652984579946485323,24
652984579954159763,19
652984579961834203,48
652984579969508643,77
652984579977183083,75
652984579984857523,77
652984579992531963,97
652984580000206403,104
652984580007880843,99
652984580015555283,116
652984580023229723,143
652984580030904163,146
652984580038578668,153
652984580046253108,173
652984580053927548,190
652984580061601988,209
652984580069276428,243
652984580076950868,270
652984580084625308,294
652984580092299748,324
652984580099974188,350
652984580107648628,370
652984580115323068,389
652984580122997508,389
652984580130671948,370
652984580138346388,353
652984580146020828,314
652984580153695268,236
652984580161369708,165
652984580169044148,131
652984580176718588,104
652984580184393028,70
652984580192067468,58
652984580199741908,63
652984580207416348,53
652984580215090788,41
652984580222765228,46
652984580230439668,51
652984580238114108,36
652984580245788548,36
652984580253462988,60
652984580261137428,63
652984580268811868,43
652984580276486308,43
652984580284160748,43
652984580291835188,29
652984580299509628,31
652984580307184068,36
652984580314858508,29
652984580322532948,21
652984580330207388,7
652984580337881828,-2
652984580345556268,38
652984580353230708,73
652984580360905148,48
652984580368579588,41
652984580376254028,68
652984580383928468,53
652984580391602908,36
652984580399277348,63
652984580406951788,85
652984580414626228,70
652984580422300668,56
652984580429975108,58
652984580437649548,48
652984580445323988,53
652984580452998428,80
652984580460672868,82
652984580468347308,58
652984580476021748,65
652984580483696188,99
652984580491370628,102
652984580499045068,92
652984580506719508,92
652984580514393948,80
652984580522068388,68
652984580529742828,68
652984580537417268,70
652984580545091708,80
652984580552766148,99
652984580560440588,107
652984580568115028,97
652984580575789468,99
652984580583463908,109
652984580591138348,102
652984580598812853,99
652984580606487293,107
652984580614161733,90
652984580621836173,46
652984580629510613,29
652984580637185053,43
652984580644859493,65
652984580652533933,87
652984580660208373,90
652984580667882813,70
652984580675557253,46
652984580683231693,107
652984580690906133,409
652984580698580573,853
652984580706255013,989
652984580713929453,455
652984580721603893,-190
652984580729278333,-155
652984580736952773,99
652984580744627213,9
652984580752301653,-43
652984580759976093,60
652984580767650533,53
652984580775324973,7
652984580782999413,53
652984580790673853,80
652984580798348293,56
652984580806022733,58
652984580813697173,75
652984580821371613,68
652984580829046053,68
652984580836720493,77
652984580844394933,75
652984580852069373,70
652984580859743813,85
652984580867418253,131
652984580875092693,177
652984580882767133,173
652984580890441573,160
652984580898116013,182
652984580905790453,199
652984580913464893,207
652984580921139333,231
652984580928813773,260
652984580936488213,272
652984580944162653,285
652984580951837093,319
652984580959511533,338
652984580967185973,333
652984580974860413,326
652984580982534853,314
652984580990209293,268
652984580997883733,197
652984581005558173,131
652984581013232613,80
652984581020907053,41
652984581028581493,17
652984581036255933,14
652984581043930373,14
652984581051604813,12
652984581059279253,7
652984581066953693,9
652984581074628133,19
652984581082302573,31
652984581089977013,34
652984581097651453,34
652984581105325893,38
652984581113000333,53
652984581120674773,63
652984581128349213,58
652984581136023653,53
652984581143698093,63
652984581151372533,75
652984581159047038,75
652984581166721478,70
652984581174395918,73
652984581182070358,77
652984581189744798,82
652984581197419238,77
652984581205093678,63
652984581212768118,58
652984581220442558,75
652984581228116998,87
652984581235791438,97
652984581243465878,109
652984581251140318,97
652984581258814758,82
652984581266489198,87
652984581274163638,95
652984581281838078,104
652984581289512518,112
652984581297186958,92
652984581304861398,80
652984581312535838,102
652984581320210278,131
652984581327884718,136
652984581335559158,126
652984581343233598,121
652984581350908038,116
652984581358582478,112
652984581366256918,112
652984581373931358,107
652984581381605798,104
652984581389280238,107
652984581396954678,104
652984581404629118,102
652984581412303558,102
652984581419977998,92
652984581427652438,80
652984581435326878,77
652984581443001318,95
652984581450675758,104
652984581458350198,107
652984581466024638,112
652984581473699078,99
652984581481373518,68
652984581489047958,58
652984581496722398,65
652984581504396838,65
652984581512071278,65
652984581519745718,82
652984581527420158,99
652984581535094598,80
652984581542769038,58
652984581550443478,199
652984581558117918,594
652984581565792358,1004
652984581573466798,938
652984581581141238,285
652984581588815678,-192
652984581596490118,-17
652984581604164558,155
652984581611838998,31
652984581619513438,7
652984581627187878,73
652984581634862318,58
652984581642536758,43
652984581650211198,70
652984581657885638,75
652984581665560078,60
652984581673234518,68
652984581680908958,82
652984581688583398,80
652984581696257838,77
652984581703932278,92
652984581711606718,99
652984581719281223,97
652984581726955663,102
652984581734630103,119
652984581742304543,138
652984581749978983,158
652984581757653423,175
652984581765327863,187
652984581773002303,199
652984581780676743,212
652984581788351183,233
652984581796025623,268
652984581803700063,290
652984581811374503,299
652984581819048943,319
652984581826723383,346
652984581834397823,343
652984581842072263,314
652984581849746703,292
652984581857421143,263
652984581865095583,197
652984581872770023,116
652984581880444463,65
652984581888118903,34
652984581895793343,14
652984581903467783,0
652984581911142223,-21
652984581918816663,-36
652984581926491103,4
652984581934165543,56
652984581941839983,31
652984581949514423,-9
652984581957188863,-12
652984581964863303,-17
652984581972537743,4
652984581980212183,65
652984581987886623,75
652984581995561063,36
652984582003235503,29
652984582010909943,63
652984582018584383,80
652984582026258823,70
652984582033933263,51
652984582041607703,41
652984582049282143,46
652984582056956583,48
652984582064631023,48
652984582072305463,53
652984582079979903,48
652984582087654343,34
652984582095328783,31
652984582103003223,43
652984582110677663,29
652984582118352103,9
652984582126026543,2
652984582133700983,-7
652984582141375423,0
652984582149049863,19
652984582156724303,31
652984582164398743,36
652984582172073183,31
652984582179747623,29
652984582187422063,29
652984582195096503,19
652984582202770943,34
652984582210445383,60
652984582218119823,48
652984582225794263,29
652984582233468703,41
652984582241143143,70
652984582248817583,75
652984582256492023,63
652984582264166463,73
652984582271840903,80
652984582279520376,70
652984582287194747,56
652984582294869118,53
652984582302543489,90
652984582310217860,126
652984582317892231,116
652984582325566602,109
652984582333240973,107
652984582340915344,73
652984582348589715,73
652984582356264086,102
652984582363938457,87
652984582371612828,68
652984582379287199,99
652984582386961570,109
652984582394635941,65
652984582402310312,65
652984582409984683,236
652984582417659054,623
652984582425333425,1004
652984582433007796,884
652984582440682167,216
652984582448356538,-182
652984582456030909,31
652984582463705280,170
652984582471379651,36
652984582479054022,24
652984582486728393,92
652984582494402764,68
652984582502077135,46
652984582509751506,82
652984582517425877,116
652984582525100248,112
652984582532774619,92
652984582540448990,102
652984582548123361,129
652984582555797732,124
652984582563472103,116
652984582571146474,138
652984582578820845,158
652984582586495216,163
652984582594169587,168
652984582601843958,190
652984582609518329,202
652984582617192700,199
652984582624867071,216
652984582632541442,248
652984582640215813,272
652984582647890184,287
652984582655564555,299
652984582663238926,329
652984582670913297,355
652984582678587668,350
652984582686262039,353
652984582693936410,370
652984582701610781,358
652984582709285152,309
652984582716959523,251
652984582724633894,190
652984582732308265,136
652984582739982636,102
652984582747657007,70
652984582755331378,38
652984582763005749,34
652984582770680120,36
652984582778354491,29
652984582786028862,26
652984582793703233,24
652984582801377604,26
652984582809051975,34
652984582816726346,38
652984582824400717,51
652984582832075088,60
652984582839749474,60
652984582847423845,58
652984582855098216,63
652984582862772587,90
652984582870446958,97
652984582878121329,70
652984582885795700,65
652984582893470071,85
652984582901144442,92
652984582908818813,90
652984582916493184,85
652984582924167555,63
652984582931841926,58
652984582939516297,95
652984582947190668,104
652984582954865039,63
652984582962539410,60
652984582970213781,92
652984582977888152,82
652984582985562523,63
652984582993236894,75
652984583000911265,85
652984583008585636,80
652984583016260007,82
652984583023934378,95
652984583031608749,107
652984583039283120,107
652984583046957491,92
652984583054631862,85
652984583062306233,85
652984583069980604,90
652984583077654975,102
652984583085329346,87
652984583093003717,60
652984583100678088,68
652984583108352459,92
652984583116026830,107
652984583123701201,112
652984583131375572,92
652984583139049943,70
652984583146724314,73
652984583154398685,63
652984583162073056,46
652984583169747427,70
652984583177421798,90
652984583185096169,87
652984583192770540,109
652984583200444911,116
652984583208119282,99
652984583215793653,104
652984583223468024,102
652984583231142395,70
652984583238816766,51
652984583246491137,75
652984583254165508,109
652984583261839879,95
652984583269514250,80
652984583277188621,104
652984583284862992,87
652984583292537363,85
652984583300211734,307
652984583307886105,770
652984583315560476,1089
652984583323234847,748
652984583330909218,21
652984583338583589,-160
652984583346257960,99
652984583353932331,109
652984583361606702,9
652984583369281073,60
652984583376955444,60
652984583384629815,12
652984583392304186,60
652984583399963524,97
652984583407638104,56
652984583415312684,73
652984583422987264,119
652984583430661844,85
652984583438336424,80
652984583446011004,138
652984583453685584,136
652984583461360164,99
652984583469034744,107
652984583476709324,124
652984583484383904,129
652984583492058484,146
652984583499733064,160
652984583507407644,180
652984583515082224,202
652984583522756804,214
652984583530431384,233
652984583538105964,260
652984583545780544,285
652984583553455124,302
652984583561129704,314
652984583568804284,331
652984583576478864,350
652984583584153444,353
652984583591828024,333
652984583599502604,287
652984583607177184,233
652984583614851764,173
652984583622526344,112
652984583630200924,53
652984583637875504,2
652984583645550084,-2
652984583653224664,17
652984583660899244,12
652984583668573824,19
652984583676248404,26
652984583683922984,9
652984583691597564,17
652984583699272144,24
652984583706946724,12
652984583714621304,9
652984583722295884,34
652984583729970464,43
652984583737645044,43
652984583745319624,68
652984583752994204,80
652984583760668784,53
652984583768343364,53
652984583776017944,82
652984583783692524,73
652984583791367104,51
652984583799041684,70
652984583806716264,82
652984583814390844,82
652984583822065424,92
652984583829740004,87
652984583837414584,70
652984583845089164,70
652984583852763744,73
652984583860438324,77
652984583868112904,87
652984583875787484,60
652984583883462064,38
652984583891136644,90
652984583898811224,116
652984583906485804,73
652984583914160384,70
652984583921834964,104
652984583929509544,97
652984583937184124,90
652984583944858704,99
652984583952533284,95
652984583960217963,90
652984583967892403,90
652984583975566843,80
652984583983241283,85
652984583990915723,112
652984583998590163,112
652984584006264603,85
652984584013939043,77
652984584021613483,85
652984584029287923,87
652984584036962363,85
652984584044636803,77
652984584052311243,58
652984584059985683,41
652984584067660123,48
652984584075334563,82
652984584083009003,102
652984584090683443,90
652984584098357883,85
652984584106032323,82
652984584113706763,68
652984584121381203,82
652984584129055643,124
652984584136730083,134
652984584144404523,114
652984584152078963,80
652984584159753403,75
652984584167427843,97
652984584175102283,85
652984584182776723,68
652984584190451163,82
652984584198125603,95
652984584205800043,104
652984584213474483,92
652984584221148923,56
652984584228823363,82
652984584236497803,275
652984584244172243,684
652984584251846683,1069
652984584259521123,850
652984584267195563,92
652984584274870003,-216
652984584282544443,77
652984584290218883,170
652984584297893323,17
652984584305567763,24
652984584313242203,82
652984584320916643,53
652984584328591083,36
652984584336265523,58
652984584343939963,77
652984584351614403,82
652984584359288843,70
652984584366963283,75
652984584374637723,109
652984584382312163,131
652984584389986603,119
652984584397661043,107
652984584405335483,119
652984584413009923,129
652984584420684363,131
652984584428358803,129
652984584436033243,121
652984584443707683,146
652984584451382123,199
652984584459056563,233
652984584466731003,258
652984584474405443,272
652984584482079883,285
652984584489754323,311
652984584497428763,329
652984584505103203,333
652984584512777643,341
652984584520452148,343
652984584528126588,333
652984584535801028,309
652984584543475468,258
652984584551149908,185
652984584558824348,104
652984584566498788,58
652984584574173228,68
652984584581847668,60
652984584589522108,21
652984584597196548,7
652984584604870988,14
652984584612545428,24
652984584620219868,24
652984584627894308,9
652984584635568748,12
652984584643243188,48
652984584650917628,53
652984584658592068,21
652984584666266508,24
652984584673940948,31
652984584681615388,19
652984584689289828,38
652984584696964268,75
652984584704638708,63
652984584712313148,53
652984584719987588,68
652984584727662028,58
652984584735336468,56
652984584743010908,85
652984584750685348,70
652984584758359788,38
652984584766034228,65
652984584773708668,99
652984584781383108,85
652984584789057548,60
652984584796731988,65
652984584804406428,80
652984584812080868,85
652984584819755308,75
652984584827429748,53
652984584835104188,41
652984584842778628,65
652984584850453068,104
652984584858127508,95
652984584865801948,58
652984584873476388,58
652984584881150828,63
652984584888825268,56
652984584896499708,65
652984584904174148,70
652984584911848588,63
652984584919523028,70
652984584927197468,87
652984584934871908,95
652984584942546348,80
652984584950220788,73
652984584957895228,85
652984584965569668,97
652984584973244108,85
652984584980918548,70
652984584988592988,65
652984584996267428,73
652984585003941868,99
652984585011616308,121
652984585019290748,102
652984585026965188,80
652984585034639628,97
652984585042314068,112
652984585049988508,107
652984585057662948,104
652984585065337388,92
652984585073011828,65
652984585080686333,92
652984585088360773,158
652984585096035213,155
652984585103709653,124
652984585111384093,119
652984585119058533,102
652984585126732973,80
652984585134407413,85
652984585142081853,97
652984585149756293,95
652984585157430733,95
652984585165105173,102
652984585172779613,90
652984585180454053,60
652984585188128493,143
652984585195802933,460
652984585203477373,889
652984585211151813,1026
652984585218826253,531
652984585226500693,-102
652984585234175133,-102
652984585241849573,148
652984585249524013,80
652984585257198453,-4
652984585264872893,63
652984585272547333,68
652984585280221773,34
652984585287896213,73
652984585295570653,107
652984585303245093,92
652984585310919533,97
652984585318593973,116
652984585326268413,107
652984585333942853,99
652984585341617293,134
652984585349291733,165
652984585356966173,146
652984585364640613,136
652984585372315053,175
652984585379989493,199
652984585387663933,185
652984585395338373,192
652984585403012813,229
652984585410687253,243
652984585418361693,260
652984585426036133,297
652984585433710573,324
652984585441385013,355
652984585449059453,397
652984585456733893,411
652984585464408333,411
652984585472082773,424
652984585479757213,433
652984585487431653,414
652984585495106093,368
652984585502780533,307
652984585510454973,231
652984585518129413,168
652984585525803853,160
652984585533478293,163
652984585541152733,121
652984585548827173,80
652984585556501613,82
652984585564176053,82
652984585571850493,65
652984585579524933,60
652984585587199373,68
652984585594873813,65
652984585602548253,63
652984585610222693,70
652984585617897133,73
652984585625571573,73
652984585633246013,82
652984585640920518,85
652984585648594958,80
652984585656269398,80
652984585663943838,87
652984585671618278,87
652984585679292718,82
652984585686967158,65
652984585694641598,56
652984585702316038,60
652984585709990478,60
652984585717664918,58
652984585725339358,53
652984585733013798,41
652984585740688238,38
652984585748362678,38
652984585756037118,26
652984585763711558,19
652984585771385998,34
652984585779060438,41
652984585786734878,34
652984585794409318,31
652984585802083758,41
652984585809758198,46
652984585817432638,46
652984585825107078,46
652984585832781518,48
652984585840455958,53
652984585848130398,51
652984585855804838,31
652984585863479278,21
652984585871153718,41
652984585878828158,60
652984585886502598,58
652984585894177038,43
652984585901851478,41
652984585909525918,51
652984585917200358,41
652984585924874798,36
652984585932549238,65
652984585940223678,70
652984585947898118,41
652984585955572558,46
652984585963246998,65
652984585970921438,60
652984585978595878,51
652984585986270318,53
652984585993944758,51
652984586001619198,63
652984586009293638,82
652984586016968078,92
652984586024642518,92
652984586032316958,99
652984586039991398,97
652984586047665838,80
652984586055340278,75
652984586063014718,77
652984586070689158,75
652984586078363598,73
652984586086038038,75
652984586093712478,77
652984586101386918,75
652984586109061358,63
652984586116735798,99
652984586124410238,333
652984586132084678,770
652984586139759118,1050
652984586147433558,709
652984586155107998,-9
652984586162782438,-202
652984586170456878,87
652984586178131318,109
652984586185805758,-17
652984586193480198,38
652984586201124607,80
652984586208799465,31
652984586216474323,31
652984586224149181,58
652984586231824039,65
652984586239498897,68
652984586247173755,73
652984586254848613,75
652984586262523471,82
652984586270198329,95
652984586277873187,92
652984586285548045,95
652984586293222903,109
652984586300897761,119
652984586308572619,124
652984586316247477,136
652984586323922335,148
652984586331597193,158
652984586339272051,177
652984586346946909,209
652984586354621767,231
652984586362296625,246
652984586369971483,270
652984586377646341,297
652984586385321199,311
652984586392996057,319
652984586400670915,331
652984586408345773,338
652984586416020631,326
652984586423695489,282
652984586431370347,219
652984586439045205,168
652984586446720063,131
652984586454394921,87
652984586462069779,38
652984586469744637,9
652984586477419495,2
652984586485094353,0
652984586492769211,0
652984586500444069,0
652984586508118927,-2
652984586515793785,4
652984586523468643,19
652984586531143501,21
652984586538818359,9
652984586546493217,12
652984586554168075,34
652984586561842933,43
652984586569517791,36
652984586577192649,38
652984586584867507,38
652984586592542365,31
652984586600217223,31
652984586607892081,38
652984586615566939,38
652984586623241797,41
652984586630916655,43
652984586638591513,41
652984586646266371,41
652984586653941229,43
652984586661616087,43
652984586669290945,46
652984586676965803,46
652984586684640661,38
652984586692315519,29
652984586699990377,24
652984586707665235,34
652984586715340093,48
652984586723014951,51
652984586730689809,48
652984586738364667,53
652984586746039525,53
652984586753714383,56
652984586761419406,56
652984586769093846,58
652984586776768286,65
652984586784442726,65
652984586792117166,60
652984586799791606,63
652984586807466046,70
652984586815140486,75
652984586822814926,73
652984586830489366,70
652984586838163806,70
652984586845838246,60
652984586853512686,65
652984586861187126,73
652984586868861566,73
652984586876536006,70
652984586884210446,73
652984586891884886,75
652984586899559326,80
652984586907233766,82
652984586914908206,87
652984586922582646,92
652984586930257086,92
652984586937931526,87
652984586945605966,87
652984586953280406,92
652984586960954846,95
652984586968629286,97
652984586976303726,99
652984586983978166,109
652984586991652606,124
652984586999327046,131
652984587007001486,126
652984587014675926,107
652984587022350366,92
652984587030024806,99
652984587037699246,104
652984587045373686,97
652984587053048126,97
652984587060722566,104
652984587068397006,109
652984587076071446,99
652984587083745886,95
652984587091420326,236
652984587099094766,619
652984587106769206,1021
652984587114443646,950
652984587122118086,282
652984587129792526,-187
652984587137466966,0
652984587145141406,163
652984587152815846,31
652984587160490286,17
652984587168164726,90
652984587175839166,65
652984587183513606,51
652984587191188046,73
652984587198862486,70
652984587206536926,70
652984587214211366,87
652984587221885806,92
652984587229560246,92
652984587237234686,95
652984587244909126,102
652984587252583566,112
652984587260258006,124
652984587267932446,124
652984587275606886,134
652984587283281326,146
652984587290955766,155
652984587298630206,165
652984587306304646,187
652984587313979086,209
652984587321653591,224
652984587329328031,238
652984587337002471,260
652984587344676911,282
652984587352351351,302
652984587360025791,321
652984587367700231,329
652984587375374671,333
652984587383049111,329
652984587390723551,304
652984587398397991,258
652984587406072431,199
652984587413746871,136
652984587421421311,82
652984587429095751,43
652984587436770191,19
652984587444444631,7
652984587452119071,0
652984587459793511,-9
652984587467467951,-17
652984587475142391,-17
652984587482816831,-9
652984587490491271,-2
652984587498165711,2
652984587505840151,0
652984587513514591,2
652984587521189031,12
652984587528863471,21
652984587536537911,21
652984587544212351,24
652984587551886791,31
652984587559561231,38
652984587567235671,41
652984587574910111,38
652984587582584551,36
652984587590258991,38
652984587597933431,46
652984587605607871,48
652984587613282311,43
652984587620956751,38
652984587628631191,38
652984587636305631,46
652984587643980071,51
652984587651654511,51
652984587659328951,51
652984587667003391,56
652984587674677831,56
652984587682352271,51
652984587690026711,60
652984587697701151,65
652984587705375591,48
652984587713050031,46
652984587720724471,60
652984587728398911,63
652984587736073351,58
652984587743747791,60
652984587751422231,65
652984587759096671,68
652984587766771111,68
652984587774445551,68
652984587782119991,70
652984587789794431,77
652984587797468871,80
652984587805143311,80
652984587812817751,77
652984587820492191,73
652984587828166631,73
652984587835841071,80
652984587843515511,85
652984587851189951,87
652984587858864391,85
652984587866538831,82
652984587874213271,82
652984587881857680,90
652984587889532538,99
652984587897207396,95
652984587904882254,90
652984587912557112,90
652984587920231970,97
652984587927906828,92
652984587935581686,80
652984587943256544,87
652984587950931402,85
652984587958606260,82
652984587966281118,102
652984587973955976,97
652984587981630834,77
652984587989305692,95
652984587996980550,134
652984588004655408,148
652984588012330266,126
652984588020005124,102
652984588027679982,95
652984588035354840,90
652984588043029698,90
652984588050704556,95
652984588058379414,73
652984588066054272,43
652984588073729130,53
652984588081403988,51
652984588089078846,53
652984588096753704,258
652984588104428562,682
652984588112103420,999
652984588119778278,753
652984588127453136,46
652984588135127994,-268
652984588142802852,-21
652984588150477710,77
652984588158152568,-36
652984588165827426,-43
652984588173502284,-14
652984588181177142,-26
6.52985E+17,-12
652984588196526858,-4
652984588204201716,-36
652984588211876574,-36
652984588219551432,12
652984588227226290,48
652984588234901148,46
652984588242576006,24
652984588250250864,12
652984588257925722,34
652984588265600580,63
652984588273275438,70
652984588280950296,77
652984588288625154,95
652984588296300012,107
652984588303974870,124
652984588311649728,131
652984588319324586,141
652984588326999444,173
652984588334674302,202
652984588342349160,221
652984588350024018,255
652984588357698876,290
652984588365373734,297
652984588373048592,314
652984588380723450,331
652984588388398308,307
652984588396073166,270
652984588403748024,224
652984588411422882,146
652984588419097740,87
652984588426772598,92
652984588434447456,90
652984588442152479,26
652984588449826919,-2
652984588457501359,29
652984588465175799,21
652984588472850239,-2
652984588480524679,4
652984588488199119,4
652984588495873559,9
652984588503547999,24
652984588511222439,24
652984588518896879,21
652984588526571319,14
652984588534245759,17
652984588541920199,53
652984588549594639,56
652984588557269079,19
652984588564943519,56
652984588572617959,112
652984588580292399,87
652984588587966839,63
652984588595641279,75
652984588603315719,80
652984588610990159,75
652984588618664599,75
652984588626339039,92
652984588634013479,82
652984588641687919,46
652984588649362359,65
652984588657036799,126
652984588664711239,126
652984588672385679,92
652984588680060119,99
652984588687734559,109
652984588695408999,92
652984588703083439,90
652984588710757879,99
652984588718432319,90
652984588726106759,75
652984588733781199,65
652984588741455639,63
652984588749130079,99
652984588756804519,141
652984588764478959,119
652984588772153399,75
652984588779827839,73
652984588787502279,77
652984588795176719,82
652984588802851159,116
652984588810525599,146
652984588818200039,134
652984588825874479,116
652984588833548919,119
652984588841223359,112
652984588848897799,102
652984588856572239,107
652984588864246679,114
652984588871921119,109
652984588879595559,102
652984588887269999,97
652984588894944439,107
652984588902618879,126
652984588910293319,126
652984588917967759,112
652984588925642199,114
652984588933316639,121
652984588940991079,114
652984588948665519,107
652984588956339959,107
652984588964014399,114
652984588971688839,119
652984588979363279,119
652984588987037719,134
652984588994712159,153
652984589002386664,146
652984589010061104,151
652984589017735544,170
652984589025409984,141
652984589033084424,102
652984589040758864,114
652984589048433304,131
652984589056107744,119
652984589063782184,121
652984589071456624,138
652984589079131064,126
652984589086805504,97
652984589094479944,163
652984589102154384,455
652984589109828824,887
652984589117503264,1062
652984589125177704,592
652984589132852144,-73
652984589140526584,-107
652984589148201024,153
652984589155875464,70
652984589163549904,-43
652984589171224344,51
652984589178898784,104
652984589186573224,58
652984589194247664,65
652984589201922104,121
652984589209596544,126
652984589217270984,92
652984589224945424,90
652984589232619864,104
652984589240294304,107
652984589247968744,109
652984589255643184,112
652984589263317624,121
652984589270992064,134
652984589278666504,143
652984589286340944,146
652984589294015384,158
652984589301689824,165
652984589309364264,175
652984589317038704,194
652984589324713144,209
652984589332387584,226
652984589340062024,253
652984589347736464,280
652984589355410904,297
652984589363085344,311
652984589370759784,324
652984589378434224,324
652984589386108664,314
652984589393783104,302
652984589401457544,270
652984589409131984,224
652984589416806424,190
652984589424480864,143
652984589432155304,77
652984589439829744,38
652984589447504184,24
652984589455178624,-2
652984589462853064,-19
652984589470527504,-7
652984589478201944,7
652984589485876384,0
652984589493550824,-9
652984589501225264,2
652984589508899704,19
652984589516574144,24
652984589524248584,14
652984589531923024,0
652984589539597464,-2
652984589547271904,26
652984589554946344,60
652984589562620849,63
652984589570295289,53
652984589577969729,56
652984589585644169,68
652984589593318609,68
652984589600993049,51
652984589608667489,46
652984589616341929,53
652984589624016369,53
652984589631690809,46
652984589639365249,51
652984589647039689,58
652984589654714129,65
652984589662388569,68
652984589670063009,60
652984589677737449,63
652984589685411889,65
652984589693086329,60
652984589700760769,60
652984589708435209,60
652984589716109649,63
652984589723784089,70
652984589731458529,65
652984589739132969,56
652984589746807409,53
652984589754481849,46
652984589762156289,46
652984589769830729,75
652984589777505169,104
652984589785179609,87
652984589792854049,63
652984589800528489,77
652984589808202929,95
652984589815877369,90
652984589823551809,82
652984589831226249,77
652984589838900689,85
652984589846575129,90
652984589854249569,80
652984589861924009,87
652984589869598449,95
652984589877272889,90
652984589884947329,92
652984589892621769,99
652984589900296209,92
652984589907970649,77
652984589915645089,60
652984589923319529,65
652984589930993969,109
652984589938668409,143
652984589946342849,129
652984589954017289,129
652984589961691729,143
652984589969366169,138
652984589977040609,131
652984589984715049,114
652984589992389489,92
652984590000063929,99
652984590007738369,104
652984590015412809,99
652984590023087249,102
652984590030761689,107
652984590038436129,104
652984590046110569,90
652984590053785009,104
652984590061459449,290
652984590069133889,697
652984590076808329,1062
652984590084482769,877
652984590092157209,143
652984590099831649,-231
652984590107506089,29
652984590115180529,163
652984590122855034,31
652984590130529474,38
652984590138203914,99
652984590145878354,70
652984590153552794,63
652984590161227234,95
652984590168901674,90
652984590176576114,77
652984590184250554,95
652984590191924994,104
652984590199599434,97
652984590207273874,95
652984590214948314,104
652984590222622754,116
652984590230297194,112
652984590237971634,92
652984590245646074,92
652984590253320514,119
652984590260994954,163
652984590268669394,192
652984590276343834,197
652984590284018274,194
652984590291692714,216
652984590299367154,243
652984590307041594,263
652984590314716034,282
652984590322390474,299
652984590330064914,309
652984590337739354,326
652984590345413794,336
652984590353088234,321
652984590360762674,294
652984590368437114,251
652984590376111554,180
652984590383785994,114
652984590391460434,70
652984590399134874,34
652984590406809314,4
652984590414483754,-7
652984590422158194,-19
652984590429832634,-36
652984590437507074,-29
652984590445181514,4
652984590452855954,19
652984590460530394,2
652984590468204834,-2
652984590475879274,17
652984590483553714,21
652984590491228154,21
652984590498902594,36
652984590506577034,46
652984590514251474,41
652984590521925914,41
652984590529600354,48
652984590537274794,56
652984590544949234,56
652984590552623674,51
652984590560298114,56
652984590567972554,58
652984590575646994,60
652984590583321434,63
652984590590995874,53
652984590598670314,41
652984590606344754,24
652984590614019194,31
652984590621693634,75
652984590629368074,80
652984590637042514,60
652984590644716954,90
652984590652391394,107
652984590660065834,80
652984590667740274,77
652984590675414714,92
652984590683089219,80
652984590690763659,73
652984590698438099,87
652984590706112539,87
652984590713786979,82
652984590721461419,92
652984590729135859,87
652984590736810299,73
652984590744484739,77
652984590752159179,87
652984590759833619,80
652984590767508059,80
652984590775182499,85
652984590782856939,80
652984590790531379,70
652984590798205819,68
652984590805880259,65
652984590813554699,65
652984590821229139,87
652984590828903579,109
652984590836578019,102
652984590844252459,90
652984590851926899,90
652984590859601339,92
652984590867275779,95
652984590874950219,92
652984590882624659,90
652984590890299099,99
652984590897973539,126
652984590905647979,136
652984590913322419,126
652984590920996859,124
652984590928671299,114
652984590936345739,97
652984590944020179,95
652984590951694619,99
652984590959369059,102
652984590967043499,107
652984590974717939,107
652984590982392379,107
652984590990066819,87
652984590997741259,99
652984591005415699,297
652984591013090139,711
652984591020764579,1057
652984591028439019,850
652984591036113459,141
652984591043787899,-177
652984591051462339,75
652984591059136779,141
652984591066811219,2
652984591074485659,36
652984591082160099,92
652984591089834539,58
652984591097508979,56
652984591105183419,80
652984591112857859,73
652984591120532299,73
652984591128206739,95
652984591135881179,99
652984591143555619,92
652984591151230059,99
652984591158904499,112
652984591166578939,119
652984591174253379,124
652984591181927819,124
652984591189602259,129
652984591197276699,146
652984591204951139,160
652984591212625579,160
652984591220300019,163
652984591227974459,182
652984591235648899,226
652984591243318364,251
652984591250992874,251
652984591258667384,272
652984591266341894,316
652984591274016404,321
652984591281690914,302
652984591289365424,304
652984591297039934,302
652984591304714444,272
652984591312388954,221
652984591320063464,163
652984591327737974,104
652984591335412484,53
652984591343086994,17
652984591350761504,-2
652984591358436014,-7
652984591366110524,-19
652984591373785034,-24
652984591381459544,-19
652984591389134054,-17
652984591396808564,-12
652984591404483074,-4
652984591412157584,-2
652984591419832094,2
652984591427506604,9
652984591435181114,19
652984591442855624,24
652984591450530134,29
652984591458204644,36
652984591465879154,41
652984591473553664,41
652984591481228174,43
652984591488902684,46
652984591496577194,36
652984591504251704,36
652984591511926214,53
652984591519600724,58
652984591527275234,58
652984591534949744,77
652984591542624254,82
652984591550298764,60
652984591557973274,60
652984591565647784,70
652984591573322294,58
652984591580996804,51
652984591588671314,68
652984591596345824,73
652984591604020334,60
652984591611694844,53
652984591619369354,46
652984591627043864,48
652984591634718374,75
652984591642392884,85
652984591650067394,75
652984591657741904,90
652984591665416414,109
652984591673090924,102
652984591680765434,97
652984591688439944,92
652984591696114454,90
652984591703788964,90
652984591711463474,92
652984591719137984,95
652984591726812494,99
652984591734487004,99
652984591742161514,92
652984591749836024,95
652984591757510534,92
652984591765185044,85
652984591772859554,87
652984591780534064,92
652984591788208574,87
652984591795883084,90
652984591803537544,95
652984591811212333,95
652984591818887122,95
652984591826561911,99
652984591834236700,99
652984591841911489,95
652984591849586278,82
652984591857261067,87
652984591864935856,112
652984591872610645,121
652984591880285434,116
652984591887960223,116
652984591895635012,107
652984591903309801,87
652984591910984590,87
652984591918659379,95
652984591926334168,87
652984591934008957,77
652984591941683746,92
652984591949358535,107
652984591957033324,75
652984591964708113,107
652984591972382902,353
652984591980057691,762
652984591987732480,1050
652984591995407269,789
652984592003082058,104
652984592010756847,-173
652984592018431636,53
652984592026106425,116
652984592033781214,17
652984592041456003,36
652984592049130792,53
652984592056805581,29
652984592064480370,51
652984592072155159,85
652984592079829948,92
652984592087504737,70
652984592095179526,48
652984592102854315,80
652984592110529104,109
652984592118203893,87
652984592125878682,70
652984592133553471,82
652984592141228260,112
652984592148903049,126
652984592156577838,116
652984592164252627,131
652984592171927416,163
652984592179602205,155
652984592187276994,143
652984592194951783,173
652984592202626572,212
652984592210301361,231
652984592217976150,233
652984592225650939,251
652984592233325728,290
652984592241000517,304
652984592248675306,309
652984592256350095,321
652984592264024884,290
652984592271699673,241
652984592279374462,209
652984592287049251,155
652984592294724040,87
652984592302398829,34
652984592310073618,-12
652984592317748407,-38
652984592325423196,0
652984592333097985,19
652984592340772774,-46
652984592348447563,-92
652984592356122352,-38
652984592363822292,34
652984592371496732,9
652984592379171172,-31
652984592386845612,-7
652984592394520052,4
652984592402194492,-12
652984592409868932,-12
652984592417543372,24
652984592425217812,65
652984592432892252,53
652984592440566692,7
652984592448241132,12
652984592455915572,60
652984592463590012,85
652984592471264452,56
652984592478938892,21
652984592486613332,36
652984592494287772,73
652984592501962212,73
652984592509636652,68
652984592517311092,87
652984592524985532,73
652984592532659972,36
652984592540334412,43
652984592548008852,56
652984592555683292,63
652984592563357732,102
652984592571032172,107
652984592578706612,41
652984592586381052,24
652984592594055492,68
652984592601729932,104
652984592609404372,114
652984592617078812,85
652984592624753252,53
652984592632427692,68
652984592640102132,95
652984592647776572,90
652984592655451012,70
652984592663125452,63
652984592670799892,70
652984592678474332,73
652984592686148772,75
652984592693823212,85
652984592701497652,87
652984592709172092,87
652984592716846532,82
652984592724520972,73
652984592732195412,95
652984592739869852,107
652984592747544292,75
652984592755218732,65
652984592762893172,90
652984592770567612,63
652984592778242052,38
652984592785916492,107
652984592793590932,151
652984592801265372,75
652984592808939812,53
652984592816614252,107
652984592824288692,95
652984592831963132,87
652984592839637572,134
652984592847312012,119
652984592854986452,95
652984592862660892,116
652984592870335332,104
652984592878009772,58
652984592885684212,65
652984592893358652,102
652984592901033092,99
652984592908707532,92
652984592916381972,114
652984592924056477,124
652984592931730917,114
652984592939405357,202
652984592947079797,511
652984592954754237,926
652984592962428677,1028
652984592970103117,455
652984592977777557,-197
652984592985451997,-119
652984592993126437,173
652984593000800877,70
652984593008475317,-26
652984593016149757,73
652984593023824197,85
652984593031498637,24
652984593039173077,43
652984593046847517,87
652984593054521957,107
652984593062196397,107
652984593069870837,87
652984593077545277,70
652984593085219717,65
652984593092894157,82
652984593100568597,141
652984593108243037,168
652984593115917477,114
652984593123591917,82
652984593131266357,141
652984593138940797,185
652984593146615237,165
652984593154289677,182
652984593161964117,233
652984593169638557,248
652984593177312997,246
652984593184987437,260
652984593192661877,307
652984593200336317,341
652984593208010757,331
652984593215685197,331
652984593223359637,331
652984593231034077,336
652984593238708517,360
652984593246382957,314
652984593254057397,209
652984593261731837,146
652984593269406277,95
652984593277080717,31
652984593284755157,9
652984593292429597,-4
652984593300104037,-38
652984593307778477,-48
652984593315452917,-36
652984593323127357,-26
652984593330801797,-34
652984593338476237,-14
652984593346150677,14
652984593353825117,-24
652984593361499557,-48
652984593369173997,4
652984593376848437,38
652984593384522877,14
652984593392197317,0
652984593399871757,21
652984593407546197,43
652984593415220637,36
652984593422895077,21
652984593430569517,46
652984593438243957,70
652984593445918397,43
652984593453592837,38
652984593461267277,68
652984593468941717,34
652984593476616157,2
652984593484290662,38
652984593491965102,36
652984593499639542,29
652984593507313982,95
652984593514988422,85
652984593522662862,24
652984593530337302,56
652984593538011742,85
652984593545686182,48
652984593553360622,46
652984593561035062,56
652984593568709502,17
652984593576383942,4
652984593584058382,53
652984593591732822,73
652984593599407262,51
652984593607081702,73
652984593614756142,109
652984593622430582,85
652984593630105022,36
652984593637779462,46
652984593645453902,92
652984593653128342,92
652984593660802782,65
652984593668477222,70
652984593676151662,80
652984593683826102,80
652984593691500542,82
652984593699174982,85
652984593706849422,82
652984593714523862,97
652984593722198302,116
652984593729872742,104
652984593737547182,77
652984593745221622,87
652984593752896062,114
652984593760570502,109
652984593768244942,99
652984593775919382,107
652984593783593822,87
652984593791268262,53
652984593798942702,85
652984593806617142,124
652984593814291582,82
652984593821966022,70
652984593829640462,107
652984593837314902,102
652984593844989342,82
652984593852663782,148
652984593860338222,431
652984593868012662,877
652984593875687102,1069
652984593883361542,584
652984593891035982,-119
652984593898710422,-165
652984593906384862,141
652984593914059302,112
652984593921733742,-9
652984593929408182,36
652984593937082622,70
652984593944757062,56
652984593952431502,68
652984593960105942,70
652984593967780382,85
652984593975454822,121
652984593983129262,99
652984593990803702,65
652984593998478142,90
652984594006152582,126
652984594013827022,136
652984594021501462,121
652984594029175902,109
652984594036850342,97
652984594044524847,112
652984594052199287,177
652984594059873727,204
652984594067548167,177
652984594075222607,187
652984594082897047,236
652984594090571487,268
652984594098245927,268
652984594105920367,265
652984594113594807,292
652984594121269247,355
652984594128943687,380
652984594136618127,348
652984594144292567,346
652984594151967007,353
652984594159641447,292
652984594167315887,207
652984594174990327,153
652984594182664767,104
652984594190339207,24
652984594198013647,0
652984594205688087,43
652984594213362527,21
652984594221036967,-21
652984594228711407,-14
652984594236385847,-29
652984594244060287,-41
652984594251734727,-14
652984594259409167,-17
652984594267083607,-34
652984594274758047,-12
652984594282432487,7
652984594290106927,0
652984594297781367,-4
652984594305455807,-2
652984594313130247,-2
652984594320804687,17
652984594328479127,48
652984594336153567,31
652984594343828007,7
652984594351502447,41
652984594359176887,43
652984594366851327,36
652984594374525767,63
652984594382200207,38
652984594389874647,9
652984594397549087,38
652984594405223527,41
652984594412897967,38
652984594420572407,58
652984594428246847,48
652984594435921287,41
652984594443595727,51
652984594451270167,31
652984594458944607,34
652984594466619047,63
652984594474293487,41
652984594481967927,31
652984594489642367,82
652984594497316807,77
652984594504991247,29
652984594512665687,53
652984594520340127,97
652984594528014567,80
652984594535689007,46
652984594543363447,38
652984594551037887,70
652984594558712327,107
652984594566386767,99
652984594574061207,73
652984594581735647,70
652984594589410087,77
652984594597084527,80
652984594604759032,87
652984594612433472,82
652984594620107912,75
652984594627782352,82
652984594635456792,75
652984594643131232,73
652984594650805672,95
652984594658480112,87
652984594666154552,80
652984594673828992,95
652984594681503432,102
652984594689177872,116
652984594696852312,134
652984594704526752,107
652984594712201192,68
652984594719875632,77
652984594727550072,90
652984594735224512,80
652984594742898952,80
652984594750573392,87
652984594758247832,99
652984594765922272,97
652984594773596712,70
652984594781271152,136
652984594788945592,428
652984594796620032,884
652984594804294472,1077
652984594811968912,553
652984594819643352,-153
652984594827317792,-151
652984594834992232,151
652984594842666672,85
652984594850341112,-17
652984594858015552,63
652984594865689992,73
652984594873364432,21
652984594881038872,43
652984594888713312,80
652984594896387752,73
652984594904062192,58
652984594911736632,80
652984594919411072,112
652984594927085512,90
652984594934759952,80
652984594942434392,119
652984594950108832,129
652984594957783272,119
652984594965457712,131
652984594973132152,124
652984594980806592,129
652984594988481032,163
652984594996155472,170
652984595003829912,182
652984595011504352,224
652984595019178792,216
652984595026853232,231
652984595034527672,319
652984595042202112,338
652984595049876552,287
652984595057550992,316
652984595065225432,372
652984595072899872,348
652984595080574312,314
652984595088248752,290
652984595095923192,231
652984595103597632,165
652984595111272072,104
652984595118946512,46
652984595126620952,21
652984595134295392,7
652984595141969832,-9
652984595149644272,-2
652984595157318712,-12
652984595164993217,-26
652984595172667657,14
652984595180342097,34
652984595188016537,-14
652984595195690977,-34
652984595203365417,-4
652984595211039857,-9
652984595218714297,-19
652984595226388737,9
652984595234063177,-2
652984595241737617,-4
652984595249412057,60
652984595257086497,65
652984595264760937,9
652984595272435377,21
652984595280109817,58
652984595287784257,36
652984595295458697,9
652984595303133137,26
652984595310807577,38
652984595318482017,26
652984595326156457,14
652984595333830897,17
652984595341505337,19
652984595349179777,24
652984595356854217,41
652984595364528657,51
652984595372203097,56
652984595379877537,65
652984595387551977,41
652984595395226417,31
652984595402900857,60
652984595410575297,73
652984595418249737,48
652984595425924177,31
652984595433598617,31
652984595441273057,36
652984595448947497,68
652984595456621937,95
652984595464296377,82
652984595471970817,68
652984595479645257,60
652984595487319697,65
652984595494994137,80
652984595502668577,80
652984595510343017,80
652984595518017457,92
652984595525691897,85
652984595533366337,58
652984595541040777,51
652984595548715217,85
652984595556389657,87
652984595564064097,68
652984595571738537,90
652984595579412977,114
652984595587087417,119
652984595594761857,116
652984595602436297,92
652984595610110737,73
652984595617785177,102
652984595625459617,121
652984595633134057,112
652984595640808497,121
652984595648482937,131
652984595656157377,109
652984595663831817,99
652984595671506257,104
652984595679180697,92
652984595686855137,92
652984595694529577,107
652984595702204017,92
652984595709878457,77
652984595717552897,92
652984595725227402,99
652984595732901842,109
652984595740576282,280
652984595748250722,716
652984595755925162,1087
652984595763599602,833
652984595771274042,87
652984595778948482,-214
652984595786622922,48
652984595794297362,112
652984595801971802,-36
652984595809646242,-12
652984595817320682,53
652984595824995122,51
652984595832669562,70
652984595840344002,70
652984595848018442,46
652984595855692882,60
652984595863367322,87
652984595871041762,90
652984595878716202,75
652984595886390642,73
652984595894065082,104
652984595901739522,129
652984595909413962,102
652984595917088402,87
652984595924762842,119
652984595932437282,146
652984595940111722,158
652984595947786162,168
652984595955460602,173
652984595963135042,192
652984595970809482,238
652984595978483922,260
652984595986158362,246
652984595993832802,263
652984596001507242,329
652984596009181682,353
652984596016856122,326
652984596024530562,348
652984596032205002,368
652984596039879442,314
652984596047553882,251
652984596055228322,199
652984596062902762,143
652984596070577202,90
652984596078251642,46
652984596085926082,7
652984596093600522,-31
652984596101274962,-36
652984596108949402,2
652984596116623842,17
652984596124298282,-4
652984596131972722,-14
652984596139647162,-17
652984596147321602,-2
652984596154996042,26
652984596162670482,36
652984596170344922,21
652984596178019362,12
652984596185693802,19
652984596193368242,19
652984596201042682,19
652984596208717122,26
652984596216391562,21
652984596224066002,21
652984596231740442,34
652984596239414882,43
652984596247089322,63
652984596254763762,75
652984596262438202,46
652984596270112642,26
652984596277787082,46
652984596285461587,68
652984596293136027,63
652984596300810467,41
652984596308484907,31
652984596316159347,38
652984596323833787,48
652984596331508227,36
652984596339182667,7
652984596346857107,12
652984596354531547,48
652984596362205987,53
652984596369880427,60
652984596377554867,87
652984596385229307,68
652984596392903747,38
652984596400578187,60
652984596408252627,82
652984596415927067,48
652984596423601507,24
652984596431275947,77
652984596438950387,119
652984596446624827,92
652984596454299267,70
652984596461973707,80
652984596469648147,75
652984596477322587,56
652984596484997027,53
652984596492671467,68
652984596500345907,87
652984596508020347,116
652984596515694787,121
652984596523369227,95
652984596531043667,90
652984596538718107,92
652984596546392547,68
652984596554066987,51
652984596561741427,58
652984596569415867,99
652984596577090307,160
652984596584764747,148
652984596592439187,80
652984596600113627,75
652984596607788067,121
652984596615462507,148
652984596623136947,153
652984596630811387,143
652984596638485827,109
652984596646160267,82
652984596653834707,92
652984596661509147,97
652984596669183587,73
652984596676858027,53
652984596684532467,90
652984596692206907,151
652984596699881347,129
652984596707555787,119
652984596715230227,346
652984596722904667,775
652984596730579107,1082
652984596738253547,799
652984596745927987,48
652984596753602427,-229
652984596761276867,87
652984596768951307,185
652984596776625747,19
652984596784300187,24
652984596791974627,73
652984596799649067,36
652984596807323507,43
652984596814997947,63
652984596822672387,58
652984596830346827,73
652984596838021267,82
652984596845680724,87
652984596853355373,99
652984596861030022,99
652984596868704671,114
652984596876379320,146
652984596884053969,143
652984596891728618,116
652984596899403267,116
652984596907077916,126
652984596914752565,158
652984596922427214,209
652984596930101863,229
652984596937776512,212
652984596945451161,224
652984596953125810,258
652984596960800459,282
652984596968475108,321
652984596976149757,341
652984596983824406,326
652984596991499055,326
652984596999173704,341
652984597006848353,338
652984597014523002,331
652984597022197651,297
652984597029872300,194
652984597037546949,114
652984597045221598,95
652984597052896247,60
652984597060570896,21
652984597068245545,2
652984597075920194,-14
652984597083594843,-21
652984597091269492,-19
652984597098944141,-31
652984597106618790,-58
652984597114293439,-43
652984597121968088,21
652984597129642737,63
652984597137317386,38
652984597144992035,-2
652984597152666684,-21
652984597160341333,9
652984597168015982,58
652984597175690631,48
652984597183365280,-14
652984597191039929,-19
652984597198714578,51
652984597206389227,77
652984597214063876,24
652984597221738525,29
652984597229413174,70
652984597237087823,41
652984597244762472,51
652984597252437121,104
652984597260111770,73
652984597267786419,24
652984597275461068,34
652984597283135717,46
652984597290810366,60
652984597298485015,70
652984597306159664,36
652984597313834313,2
652984597321508962,31
652984597329183611,80
652984597336858260,73
652984597344532909,43
652984597352207558,48
652984597359882207,77
652984597367556856,85
652984597375231505,70
652984597382906154,65
652984597390580803,77
652984597398255452,75
652984597405930166,46
652984597413604815,56
652984597421279464,102
652984597428954113,97
652984597436628762,65
652984597444303411,77
652984597451978060,112
652984597459652709,114
652984597467327358,87
652984597475002007,77
652984597482676656,65
652984597490351305,51
652984597498025954,77
652984597505700603,116
652984597513375252,119
652984597521049901,104
652984597528724550,85
652984597536399199,82
652984597544073848,126
652984597551748497,136
652984597559423146,107
652984597567097795,102
652984597574772444,92
652984597582447093,87
652984597590121742,114
652984597597796391,124
652984597605471040,99
652984597613145689,87
652984597620820338,82
652984597628494987,85
652984597636169636,82
652984597643844285,112
652984597651518934,333
652984597659193583,745
652984597666868232,1072
652984597674542881,877
652984597682217530,151
652984597689892179,-229
652984597697566828,46
652984597705241477,177
652984597712916126,24
652984597720590775,24
652984597728265424,68
652984597735940073,29
652984597743614722,48
652984597751289371,97
652984597758964020,77
652984597766638669,80
652984597774313318,116
652984597781987967,121
652984597789662616,109
652984597797337265,104
652984597805011914,107
652984597812686563,102
652984597820361212,92
652984597828035861,116
652984597835710510,146
652984597843385159,138
652984597851059808,163
652984597858734457,204
652984597866409106,207
652984597874083755,214
652984597881758404,246
652984597889433053,268
652984597897107702,265
652984597904782351,275
6.52985E+17,311
652984597920131649,336
652984597927806298,350
652984597935480947,380
652984597943155596,382
652984597950830245,324
652984597958504894,253
652984597966194660,192
652984597973869100,107
652984597981543540,46
652984597989217980,43
652984597996892420,46
652984598004566860,26
652984598012241300,9
652984598019915740,-19
652984598027590180,-29
652984598035264620,9
652984598042939060,4
652984598050613500,-43
652984598058287940,-26
652984598065962380,0
652984598073636820,-29
652984598081311260,-19
652984598088985700,36
652984598096660140,31
652984598104334580,26
652984598112009020,60
652984598119683460,43
652984598127357900,21
652984598135032340,43
652984598142706780,51
652984598150381220,41
652984598158055660,43
652984598165730100,43
652984598173404540,36
652984598181078980,24
652984598188753420,0
652984598196427860,17
652984598204102300,77
652984598211776740,82
652984598219451180,41
652984598227125620,31
652984598234800060,53
652984598242474500,58
652984598250148940,31
652984598257823380,24
652984598265497820,73
652984598273172260,99
652984598280846700,73
652984598288521140,63
652984598296195580,70
652984598303870020,63
652984598311544460,63
652984598319218900,65
652984598326893340,58
652984598334567780,60
652984598342242220,70
652984598349916660,68
652984598357591100,60
652984598365265540,68
652984598372939980,68
652984598380614420,75
652984598388288860,85
652984598395963300,75
652984598403637740,77
652984598411312180,92
652984598418986620,92
652984598426661060,77
652984598434335500,70
652984598442009940,73
652984598449684380,80
652984598457358820,92
652984598465033260,95
652984598472707700,85
652984598480382140,65
652984598488056580,70
652984598495731020,109
652984598503405460,138
652984598511079900,124
652984598518754340,102
652984598526428845,107
652984598534103285,124
652984598541777725,114
652984598549452165,80
652984598557126605,80
652984598564801045,104
652984598572475485,95
652984598580149925,82
652984598587824365,104
652984598595498805,109
652984598603173245,70
652984598610847685,136
652984598618522125,453
652984598626196565,889
652984598633871005,1055
652984598641545445,594
652984598649219885,-77
652984598656894325,-134
652984598664568765,141
652984598672243205,90
652984598679917645,-17
652984598687592085,60
652984598695266525,90
652984598702940965,53
652984598710615405,65
652984598718289845,85
652984598725964285,82
652984598733638725,85
652984598741313165,102
652984598748987605,112
652984598756662045,109
652984598764336485,114
652984598772010925,126
652984598779685365,131
652984598787359805,138
652984598795034245,146
652984598802708685,151
652984598810383125,158
652984598818057565,168
652984598825732005,182
652984598833406445,194
652984598841080885,212
652984598848755325,236
652984598856429765,263
652984598864104205,285
652984598871778645,314
652984598879453085,333
652984598887127525,331
652984598894801965,326
652984598902476405,338
652984598910150845,338
652984598917825285,297
652984598925499725,246
652984598933174165,194
652984598940848605,134
652984598948523045,85
652984598956197485,58
652984598963871925,38
652984598971546365,21
652984598979220805,9
652984598986895245,7
652984598994569685,9
652984599002244125,14
652984599009918565,36
652984599017593005,43
652984599025267445,31
652984599032941885,34
652984599040616325,51
652984599048290765,51
652984599055965205,41
652984599063639645,38
652984599071314085,48
652984599078988525,60
652984599086637902,58
652984599094312691,53
652984599101987480,56
652984599109662269,63
652984599117337058,68
652984599125011847,56
652984599132686636,41
652984599140361425,43
652984599148036214,48
652984599155711003,38
652984599163385792,31
652984599171060581,36
652984599178735370,46
652984599186410159,41
652984599194084948,34
652984599201759737,41
652984599209434526,46
652984599217109315,48
652984599224784104,48
652984599232458893,53
652984599240133682,51
652984599247808471,38
652984599255483260,41
652984599263158049,60
652984599270832838,53
652984599278507627,24
652984599286182416,29
652984599293857205,51
652984599301531994,53
652984599309206783,51
652984599316881572,58
652984599324556361,56
652984599332231150,51
652984599339905939,48
652984599347580728,48
652984599355255517,56
652984599362930306,56
652984599370605095,58
652984599378279884,73
652984599385954673,82
652984599393629462,65
652984599401304251,53
652984599408979040,60
652984599416653829,63
652984599424328618,51
652984599432003407,53
652984599439678196,70
652984599447352985,82
652984599455027774,82
652984599462702563,77
652984599470377352,73
652984599478052141,87
652984599485726930,95
652984599493401719,90
652984599501076508,99
652984599508751297,107
652984599516426086,82
652984599524100875,63
652984599531775664,73
652984599539450453,85
652984599547125242,80
652984599554800031,77
652984599562474820,82
652984599570149609,80
652984599577824398,73
652984599585499187,143
652984599593173976,424
652984599600848765,833
652984599608523554,977
652984599616198343,504
652984599623873132,-116
652984599631547921,-131
652984599639222710,114
652984599646917606,48
652984599654592116,-43
652984599662266626,29
652984599669941136,51
652984599677615646,26
652984599685290156,51
652984599692964666,58
652984599700639176,46
652984599708313686,63
652984599715988196,73
652984599723662706,58
652984599731337216,70
652984599739011726,82
652984599746686236,82
652984599754360746,107
652984599762035256,124
652984599769709766,121
652984599777384276,121
652984599785058786,134
652984599792733296,146
652984599800407806,155
652984599808082316,182
652984599815756826,214
652984599823431336,236
652984599831105846,251
652984599838780356,253
652984599846454866,260
652984599854129376,290
652984599861803886,319
652984599869478396,329
652984599877152906,326
652984599884827416,302
652984599892501926,248
652984599900176436,185
652984599907850946,141
652984599915525456,95
652984599923199966,31
652984599930874476,-7
652984599938548986,-17
652984599946223496,-24
652984599953898006,-38
652984599961572516,-38
652984599969247026,-31
652984599976921536,-34
652984599984596046,-38
652984599992270556,-34
652984599999945066,-12
652984600007619576,-14
652984600015294086,-19
652984600022968596,4
652984600030643106,12
652984600038317616,4
652984600045992126,14
652984600053666636,17
652984600061341146,24
652984600069015656,38
652984600076690166,31
652984600084364676,21
652984600092039186,38
652984600099713696,43
652984600107388206,24
652984600115062716,26
652984600122737226,46
652984600130411736,41
652984600138086246,19
652984600145760756,24
652984600153435266,43
652984600161109776,46
652984600168784286,38
652984600176458796,36
652984600184133306,53
652984600191807816,65
652984600199482326,56
652984600207161918,43
652984600214836358,56
652984600222510798,60
652984600230185238,48
652984600237859678,51
652984600245534118,60
652984600253208558,63
652984600260882998,56
652984600268557438,58
652984600276231878,80
652984600283906318,73
652984600291580758,51
652984600299255198,68
652984600306929638,80
652984600314604078,68
652984600322278518,65
652984600329952958,68
652984600337627398,70
652984600345301838,70
652984600352976278,56
652984600360650718,53
652984600368325158,75
652984600375999598,77
652984600383674038,65
652984600391348478,75
652984600399022918,90
652984600406697358,90
652984600414371798,92
652984600422046238,104
652984600429720678,95
652984600437395118,68
652984600445069558,60
652984600452743998,73
652984600460418438,77
652984600468092878,85
652984600475767318,87
652984600483441758,87
652984600491116198,87
652984600498790638,82
652984600506465078,214
652984600514139518,589
652984600521813958,979
652984600529488398,926
652984600537162838,292
652984600544837278,-204
652984600552511718,-43
652984600560186158,153
652984600567860598,34
652984600575535038,-14
652984600583209478,63
652984600590883918,68
652984600598558358,53
652984600606232798,77
652984600613907238,77
652984600621581678,63
652984600629256118,70
652984600636930558,85
652984600644604998,95
652984600652279438,104
652984600659953878,114
652984600667628318,119
652984600675302758,126
652984600682977198,124
652984600690651638,131
652984600698326078,146
652984600706000518,160
652984600713674958,177
652984600721349398,199
652984600729023838,224
652984600736698278,236
652984600744372718,260
652984600752047158,297
652984600759721598,302
652984600767386023,294
652984600775060603,336
652984600782735183,368
652984600790409763,350
652984600798084343,336
652984600805758923,329
652984600813433503,282
652984600821108083,207
652984600828782663,146
652984600836457243,102
652984600844131823,56
652984600851806403,14
652984600859480983,-9
652984600867155563,-17
652984600874830143,-29
652984600882504723,-34
652984600890179303,-31
652984600897853883,-34
652984600905528463,-31
652984600913203043,-21
652984600920877623,-19
652984600928552203,-4
652984600936226783,12
652984600943901363,4
652984600951575943,2
652984600959250523,21
652984600966925103,31
652984600974599683,36
652984600982274263,46
652984600989948843,43
652984600997623423,36
652984601005298003,43
652984601012972583,48
652984601020647163,48
652984601028321743,51
652984601035996323,51
652984601043670903,53
652984601051345483,56
652984601059020063,53
652984601066694643,56
652984601074369223,56
652984601082043803,51
652984601089718383,53
652984601097392963,51
652984601105067543,43
652984601112742123,48
652984601120416703,58
652984601128091283,58
652984601135765863,56
652984601143440443,58
652984601151115023,65
652984601158789603,68
652984601166464183,51
652984601174138763,46
652984601181813343,63
652984601189487923,75
652984601197162503,68
652984601204837083,63
652984601212511663,70
652984601220186243,77
652984601227860823,82
652984601235535403,85
652984601243209983,85
652984601250884563,85
652984601258559143,90
652984601266233723,92
652984601273908303,85
652984601281582883,80
652984601289257463,90
652984601296932043,107
652984601304606623,119
652984601312281203,126
652984601319955783,124
652984601327620370,99
652984601335295089,77
652984601342969808,82
652984601350644527,92
652984601358319246,85
652984601365993965,80
652984601373668684,82
652984601381343403,80
652984601389018122,63
652984601396692841,77
652984601404367560,258
652984601412042279,643
652984601419716998,996
652984601427391717,845
652984601435066436,160
652984601442741155,-216
652984601450415874,19
652984601458090593,129
652984601465765312,-14
652984601473440031,-2
652984601481114750,73
652984601488789469,48
652984601496464188,38
652984601504138907,68
652984601511813626,73
652984601519488345,68
652984601527163064,75
652984601534837783,80
652984601542512502,90
652984601550187221,95
652984601557861940,97
652984601565536659,112
652984601573211378,124
652984601580886097,124
652984601588560816,134
652984601596235535,146
652984601603910254,151
652984601611584973,153
652984601619259692,165
652984601626934411,192
652984601634609130,221
652984601642283849,241
652984601649958568,265
652984601657633287,297
652984601665308006,319
652984601672982725,331
652984601680657444,341
652984601688332163,336
652984601696006882,326
652984601703681601,309
652984601711356320,260
652984601719031039,190
652984601726705758,136
652984601734380477,102
652984601742055196,58
652984601749729915,24
652984601757404634,17
652984601765079353,14
652984601772754072,2
652984601780428791,-7
652984601788103510,-2
652984601795778229,4
652984601803452948,9
652984601811127667,17
652984601818802386,26
652984601826477105,19
652984601834151824,12
652984601841826543,21
652984601849501262,26
652984601857175981,21
652984601864850700,26
652984601872525419,29
652984601880200138,21
652984601887894991,31
652984601895569431,41
652984601903243871,26
652984601910918311,26
652984601918592751,48
652984601926267191,43
652984601933941631,26
652984601941616071,26
652984601949290511,36
652984601956964951,41
652984601964639391,41
652984601972313831,29
652984601979988271,31
652984601987662711,48
652984601995337151,48
652984602003011591,38
652984602010686031,46
652984602018360471,58
652984602026034911,60
652984602033709351,58
652984602041383791,63
652984602049058231,68
652984602056732671,63
652984602064407111,65
652984602072081551,70
652984602079755991,73
652984602087430431,73
652984602095104871,75
652984602102779311,70
652984602110453751,68
652984602118128191,73
652984602125802631,80
652984602133477071,77
652984602141151511,75
652984602148825951,85
652984602156500391,87
652984602164174831,80
652984602171849271,90
652984602179523711,107
652984602187198151,102
652984602194872591,92
652984602202547031,95
652984602210221471,97
652984602217895911,104
652984602225570351,119
652984602233244791,124
652984602240919231,121
652984602248593671,119
652984602256268111,107
652984602263942551,99
652984602271616991,97
652984602279291431,97
652984602286965871,92
652984602294640311,97
652984602302314751,107
652984602309989191,102
652984602317663631,97
652984602325338071,204
652984602333012511,521
652984602340686951,918
652984602348361391,987
652984602356035831,431
652984602363710271,-158
652984602371384711,-87
652984602379059151,146
652984602386733591,48
652984602394408031,-9
652984602402082471,77
652984602409756911,73
652984602417431351,26
652984602425105791,53
652984602432780231,82
652984602440454671,73
652984602448104048,75
652984602455778837,97
652984602463453626,102
652984602471128415,92
652984602478803204,99
652984602486477993,112
652984602494152782,109
652984602501827571,112
652984602509502360,121
652984602517177149,136
652984602524851938,153
652984602532526727,163
652984602540201516,175
652984602547876305,197
652984602555551094,214
652984602563225883,229
652984602570900672,260
652984602578575461,290
652984602586250250,307
652984602593925039,324
652984602601599828,329
652984602609274617,329
652984602616949406,333
652984602624624195,324
652984602632298984,275
652984602639973773,212
652984602647648562,168
652984602655323351,124
652984602662998140,73
652984602670672929,43
652984602678347718,26
652984602686022507,9
652984602693697296,7
652984602701372085,19
652984602709046874,17
652984602716721663,7
652984602724396452,19
652984602732071241,31
652984602739746030,31
652984602747420819,31
652984602755095608,41
652984602762770397,51
652984602770445186,46
652984602778119975,41
652984602785794764,56
652984602793469553,63
652984602801144342,41
652984602808819131,36
652984602816493920,56
652984602824168709,63
652984602831843498,56
652984602839518287,56
652984602847193076,56
652984602854867865,56
652984602862542654,51
652984602870217443,38
652984602877892232,36
652984602885567021,46
652984602893241810,48
652984602900916599,43
652984602908591388,46
652984602916266177,51
652984602923940966,53
652984602931615755,56
652984602939290544,60
652984602946965333,65
652984602954640122,63
652984602962314911,65
652984602969989700,70
652984602977664489,73
652984602985339278,73
652984602993014067,75
652984603000688856,82
652984603008393760,87
652984603016068131,87
652984603023742502,73
652984603031416873,68
652984603039091244,85
652984603046765615,90
652984603054439986,63
652984603062114357,41
652984603069788728,43
652984603077463099,82
652984603085137470,121
652984603092811841,104
652984603100486212,85
652984603108160583,109
652984603115834954,109
652984603123509325,85
652984603131183696,85
652984603138858067,99
652984603146532438,112
652984603154206809,107
652984603161881180,92
652984603169555551,92
652984603177229922,112
652984603184904293,124
652984603192578664,80
652984603200253035,31
652984603207927406,48
652984603215601777,82
652984603223276148,75
652984603230950519,51
652984603238624890,41
652984603246299261,51
652984603253973632,58
652984603261648003,36
652984603269322374,82
652984603276996745,368
652984603284671116,804
652984603292345487,960
652984603300019858,485
652984603307694229,-126
652984603315368600,-124
652984603323042971,104
652984603330717342,17
652984603338391713,-56
652984603346066084,26
652984603353740455,26
652984603361414826,-9
652984603369089197,4
652984603376763568,17
652984603384437939,26
652984603392112310,41
652984603399786681,46
652984603407461052,60
652984603415135423,77
652984603422809794,75
652984603430484165,75
652984603438158536,92
652984603445832907,114
652984603453507278,131
652984603461181649,138
652984603468856020,141
652984603476530391,165
652984603484204762,194
