timestamp,Green1 Count,Green2 Count
0,153273,83869
1,107270,107046
2,119594,97958
3,127612,89489
4,144408,101223
5,149442,104731
6,154209,108069
7,158230,110853
8,162603,114230
9,159912,114227
10,161522,114688
11,163485,115549
12,163266,115647
13,163186,115695
14,162697,116112
15,163477,117181
16,164842,118571
17,165348,119301
18,164416,118389
19,163165,117519
20,161743,116728
21,159316,115475
22,157938,114771
23,157733,113592
24,157603,111422
25,156985,109196
26,155923,107393
27,155277,106465
28,155859,106505
29,156832,106704
30,157770,107022
31,158360,107419
32,159010,107871
33,159588,108203
34,159937,108399
35,160216,108660
36,160339,108842
37,160284,108855
38,160371,108943
39,160403,108919
40,160453,108835
41,160378,108708
42,160235,108611
43,160302,108638
44,160260,108539
45,160024,108264
46,159764,108145
47,159589,107994
48,159346,107794
49,159225,107690
50,159024,107517
51,158773,107320
52,158527,107116
53,158342,106983
54,158154,106874
55,157984,106742
56,157937,106664
57,157808,106579
58,157706,106505
59,157639,106534
60,157561,106529
61,157449,106456
62,157447,106466
63,157372,106444
64,157294,106451
65,157270,106463
66,157255,106497
67,157117,106438
68,156990,106407
69,156936,106483
70,156969,106544
71,156969,106605
72,156981,106659
73,157054,106779
74,157120,106982
75,156996,106866
76,156792,106785
77,156755,106733
78,156685,106656
79,156733,106757
80,156799,106847
81,156807,106866
82,156860,106899
83,156855,106915
84,156822,106884
85,156729,106840
86,156763,106836
87,156686,106792
88,156615,106682
89,156555,106717
90,156464,106655
91,156496,106661
92,156366,106566
93,156339,106528
94,156312,106423
95,156089,106201
96,155939,106109
97,155910,106070
98,155760,105947
99,155736,105935
100,155669,105895
101,155527,105783
102,155437,105733
103,155363,105683
104,155364,105644
105,155315,105615
106,155343,105580
107,155280,105584
108,155317,105585
109,155246,105596
110,155293,105595
111,155308,105524
112,155129,105361
113,154974,105256
114,154892,105258
115,154750,105147
116,154558,105039
117,154540,104980
118,154355,104797
119,153727,104434
120,152810,104066
121,151875,103923
122,151103,103803
123,150240,103543
124,149728,103250
125,149138,102901
126,148674,102579
127,148429,102425
128,148600,102583
129,148982,102675
130,149127,102659
131,149323,102754
132,149474,102893
133,149585,103009
134,149718,103165
135,149973,103320
136,150133,103412
137,150332,103522
138,150486,103607
139,150583,103688
140,150641,103749
141,150587,103784
142,150552,103812
143,150579,103881
144,150631,103953
145,150691,104038
146,150743,104103
147,150683,104068
148,150511,103952
149,150419,103960
150,150448,103966
151,150503,104001
152,150625,104097
153,150580,104108
154,150509,104058
155,150372,104021
156,150255,103964
157,150184,103828
158,150168,103690
159,150172,103574
160,150092,103492
161,149960,103421
162,149639,103318
163,149445,103268
164,149227,103170
165,149079,103052
166,148952,102852
167,148807,102730
168,148672,102652
169,148622,102622
170,148631,102629
171,148567,102565
172,148516,102483
173,148433,102490
174,148442,102470
175,148433,102485
176,148456,102443
177,148440,102422
178,148442,102424
179,148534,102457
180,148642,102570
181,148720,102654
182,148729,102723
183,148786,102720
184,148674,102615
185,148611,102589
186,148565,102590
187,148512,102608
188,148417,102651
189,148355,102638
190,148257,102610
191,148149,102564
192,148112,102546
193,148111,102546
194,148141,102566
195,148128,102563
196,148086,102580
197,148047,102622
198,148038,102668
199,148044,102729
200,148085,102775
201,148033,102682
202,147922,102590
203,147873,102609
204,147950,102600
205,147911,102613
206,147921,102663
207,147850,102675
208,147851,102679
209,147839,102736
210,147871,102748
211,147797,102754
212,147844,102801
213,147852,102798
214,147844,102731
215,147835,102776
216,147850,102799
217,147782,102802
218,147805,102776
219,147748,102679
220,147603,102554
221,147527,102512
222,147507,102513
223,147419,102492
224,147429,102516
225,147385,102512
226,147358,102488
227,147298,102451
228,147218,102437
229,147188,102412
230,147149,102415
231,147194,102424
232,147172,102466
233,147215,102523
234,147193,102545
235,147218,102577
236,147221,102577
237,147181,102459
238,147055,102381
239,147097,102393
240,147070,102389
241,147040,102396
242,147136,102476
243,147105,102476
244,147115,102470
245,147118,102483
246,147060,102441
247,147000,102439
248,147080,102456
249,147096,102459
250,147114,102469
251,147181,102560
252,147229,102622
253,147181,102656
254,147233,102702
255,147303,102746
256,147221,102692
257,147291,102773
258,147308,102825
259,147373,102906
260,147309,102917
261,147247,102885
262,147254,102943
263,147235,102955
264,147121,102898
265,147100,102863
266,147081,102865
267,147048,102861
268,147140,102919
269,147127,102956
270,147126,102981
271,147148,103018
272,147097,103009
273,147158,102968
274,147009,102843
275,146962,102800
276,146882,102765
277,146825,102729
278,146823,102770
279,146703,102707
280,146606,102633
281,146499,102580
282,146446,102533
283,146388,102508
284,146350,102458
285,146313,102455
286,146322,102422
287,146258,102401
288,146251,102419
289,146192,102413
290,146203,102398
291,146162,102278
292,146104,102129
293,146044,102046
294,146040,101997
295,145948,101952
296,145931,101936
297,145837,101888
298,145791,101858
299,145761,101825
300,145737,101791
301,145787,101770
302,145766,101780
303,145798,101792
304,145817,101845
305,145798,101832
306,145722,101842
307,145764,101864
308,145696,101804
309,145594,101653
310,145489,101609
311,145518,101636
312,145403,101604
313,145429,101682
314,145411,101693
315,145377,101670
316,145330,101654
317,145379,101687
318,145362,101714
319,145331,101722
320,145356,101752
321,145431,101816
322,145468,101847
323,145480,101911
324,145551,101986
325,145602,102023
326,145610,101955
327,145479,101863
328,145579,101930
329,145605,101932
330,145584,101927
331,145589,101992
332,145636,102013
333,145637,102022
334,145621,102018
335,145594,102030
336,145590,102011
337,145608,102041
338,145639,102048
339,145603,102070
340,145695,102141
341,145672,102169
342,145736,102206
343,145749,102205
344,145675,102102
345,145576,102072
346,145573,102070
347,145518,102046
348,145506,102063
349,145409,102058
350,145428,102069
351,145391,102085
352,145347,102116
353,145313,102115
354,145299,102119
355,145321,102145
356,145238,102113
357,145250,102125
358,145232,102150
359,145233,102167
360,145202,102173
361,145216,102112
362,145135,101976
363,144971,101878
364,144911,101863
365,144813,101847
366,144790,101834
367,144747,101833
368,144785,101826
369,144729,101789
370,144698,101768
371,144682,101737
372,144669,101698
373,144655,101686
374,144652,101698
375,144648,101701
376,144591,101650
377,144618,101647
378,144596,101610
379,144615,101521
380,144512,101352
381,144530,101310
382,144535,101288
383,144506,101217
384,144522,101230
385,144471,101162
386,144358,101073
387,144343,101094
388,144387,101118
389,144351,101176
390,144394,101289
391,144415,101419
392,144351,101436
393,144320,101481
394,144348,101530
395,144331,101584
396,144424,101647
397,144437,101604
398,144293,101533
399,144265,101539
400,144236,101582
401,144179,101565
402,144114,101562
403,144077,101578
404,143976,101551
405,143992,101573
406,144015,101608
407,143964,101641
408,143960,101678
409,143989,101721
410,144095,101787
411,144128,101817
412,144214,101848
413,144223,101873
414,144264,101844
415,144189,101734
416,144180,101695
417,144129,101664
418,144169,101651
419,144166,101684
420,144117,101669
421,144064,101662
422,144099,101659
423,144039,101629
424,144034,101616
425,144066,101665
426,144102,101675
427,144082,101679
428,144173,101733
429,144245,101835
430,144247,101847
431,144333,101849
432,144410,101839
433,144384,101726
434,144404,101753
435,144472,101785
436,144451,101782
437,144533,101858
438,144594,101891
439,144636,101910
440,144602,101899
441,144597,101894
442,144613,101908
443,144663,101921
444,144621,101940
445,144659,101969
446,144659,102021
447,144745,102024
448,144749,101963
449,144851,101951
450,144840,101881
451,144775,101735
452,144645,101702
453,144655,101693
454,144579,101688
455,144575,101698
456,144499,101681
457,144452,101624
458,144348,101576
459,144255,101528
460,144168,101477
461,144114,101446
462,144117,101415
463,144116,101407
464,144130,101447
465,144122,101424
466,144074,101436
467,144097,101434
468,144015,101341
469,143878,101186
470,143860,101156
471,143793,101108
472,143774,101076
473,143768,101097
474,143744,101067
475,143662,100996
476,143652,100973
477,143659,100981
478,143644,100929
479,143728,100974
480,143758,100988
481,143758,100993
482,143787,101032
483,143832,101061
484,143803,101104
485,143825,101097
486,143790,101011
487,143684,100923
488,143637,100901
489,143546,100880
490,143525,100915
491,143465,100927
492,143402,100915
493,143313,100890
494,143220,100849
495,143111,100770
496,143084,100759
497,143114,100755
498,143064,100718
499,143153,100796
500,143128,100829
501,143055,100820
502,143096,100881
503,143069,100823
504,142975,100731
505,142922,100718
506,142970,100735
507,142919,100757
508,142984,100810
509,142999,100848
510,143010,100864
511,143019,100882
512,143026,100910
513,143115,100952
514,143132,100993
515,143239,101033
516,143286,101075
517,143362,101129
518,143360,101158
519,143445,101251
520,143470,101244
521,143452,101158
522,143391,101087
523,143426,101107
524,143381,101071
525,143339,101094
526,143426,101159
527,143374,101158
528,143420,101188
529,143395,101208
530,143402,101213
531,143379,101198
532,143397,101214
533,143424,101223
534,143410,101259
535,143530,101337
536,143494,101381
537,143509,101424
538,143569,101440
539,143501,101337
540,143453,101277
541,143449,101298
542,143462,101280
543,143435,101324
544,143530,101360
545,143445,101310
546,143466,101305
547,143453,101316
548,143439,101313
549,143439,101337
550,143487,101365
551,143387,101318
552,143372,101310
553,143397,101350
554,143443,101361
555,143459,101346
556,143491,101287
557,143414,101145
558,143353,101099
559,143371,101091
560,143348,101061
561,143343,101064
562,143270,101045
563,143235,100996
564,143193,100953
565,143163,100932
566,143126,100915
567,143063,100889
568,143048,100883
569,143039,100915
570,143111,100952
571,143092,100993
572,143141,101071
573,143149,101097
574,143134,101016
575,143035,100944
576,142996,100963
577,142916,100983
578,142913,100990
579,142956,101056
580,143066,101080
581,143059,101073
582,143052,101074
583,143028,101135
584,143117,101282
585,143268,101395
586,143406,101445
587,143483,101484
588,143565,101516
589,143494,101515
590,143534,101512
591,143548,101438
592,143377,101291
593,143330,101257
594,143283,101266
595,143282,101244
596,143255,101274
597,143226,101249
598,143005,101165
599,142880,101106
600,142827,101104
601,142865,101085
602,142834,101080
603,142891,101122
604,142896,101171
605,142949,101216
606,142927,101235
607,142973,101245
608,143028,101235
609,142988,101114
610,142935,101051
611,143014,101079
612,142942,100995
613,142829,100958
614,142809,100936
615,142714,100891
616,142677,100859
617,142646,100828
618,142581,100776
619,142518,100746
620,142459,100702
621,142391,100684
622,142445,100692
623,142401,100701
624,142411,100694
625,142442,100642
626,142371,100497
627,142201,100393
628,142151,100347
629,142059,100297
630,142078,100316
631,142013,100310
632,142020,100274
633,142019,100266
634,142038,100240
635,142003,100199
636,142034,100174
637,142070,100161
638,142086,100166
639,142198,100234
640,142280,100357
641,142361,100433
642,142380,100458
643,142372,100402
644,142276,100385
645,142297,100417
646,142226,100431
647,142229,100466
648,142252,100507
649,142254,100518
650,142253,100521
651,142201,100551
652,142207,100540
653,142165,100553
654,142185,100560
655,142218,100634
656,142292,100724
657,142324,100760
658,142372,100793
659,142425,100778
660,142324,100693
661,142366,100695
662,142421,100743
663,142460,100750
664,142437,100798
665,142540,100858
666,142593,100875
667,142631,100923
668,142712,101013
669,142790,101046
670,142784,101124
671,142846,101160
672,142839,101163
673,142826,101197
674,142836,101256
675,142807,101251
676,142832,101219
677,142673,101118
678,142595,101074
679,142465,101049
680,142411,101025
681,142366,101058
682,142374,101089
683,142421,101094
684,142365,101128
685,142336,101135
686,142237,101140
687,142224,101165
688,142254,101213
689,142280,101268
690,142337,101326
691,142352,101374
692,142389,101390
693,142336,101357
694,142354,101272
695,142260,101220
696,142272,101245
697,142233,101246
698,142202,101250
699,142192,101250
700,142184,101201
701,142079,101138
702,142116,101142
703,142061,101130
704,142060,101147
705,141950,101019
706,141753,100809
707,141741,100858
708,141957,101109
709,142124,101321
710,142280,101401
711,142352,101349
712,142324,101230
713,142372,101193
714,142393,101165
715,142386,101144
716,142411,101186
717,142395,101163
718,142355,101135
719,142396,101144
720,142346,101125
721,142382,101120
722,142363,101103
723,142343,101056
724,142290,101032
725,142327,101008
726,142319,101046
727,142284,101042
728,142296,101010
729,142241,100944
730,142160,100906
731,142129,100936
732,142139,100953
733,142102,100968
734,142052,100955
735,142004,100973
736,142012,100981
737,141907,100976
738,141908,101024
739,141883,101035
740,141890,101043
741,141903,101085
742,142024,101179
743,142015,101203
744,142001,101202
745,142042,101164
746,141936,101049
747,141862,101009
748,141855,101055
749,141876,101072
750,141849,101092
751,141893,101123
752,141851,101118
753,141858,101127
754,141875,101154
755,141948,101195
756,141957,101215
757,142004,101264
758,142097,101345
759,142105,101382
760,142202,101467
761,142269,101526
762,142320,101484
763,142293,101424
764,142453,101519
765,142596,101623
766,142799,101700
767,143033,101816
768,143196,101853
769,143281,101854
770,143572,101984
771,143686,101993
772,144070,102084
773,144508,102208
774,144687,102022
775,144699,101810
776,144898,101644
777,145025,101537
778,145247,101449
779,145457,101279
780,145491,101065
781,145461,100893
782,145302,100734
783,145134,100585
784,144854,100408
785,144744,100342
786,144635,100303
787,144579,100295
788,144527,100318
789,144495,100407
790,144389,100452
791,144227,100445
792,144056,100387
793,143973,100354
794,143924,100265
795,143900,100238
796,144003,100226
797,143827,100065
798,143491,99778
799,143291,99610
800,143176,99586
801,143168,99656
802,143167,99799
803,143247,99945
804,143278,100156
805,143441,100472
806,143498,100839
807,143579,101116
808,143201,101237
809,141771,101137
810,141270,100885
811,140901,100533
812,139818,100012
813,138908,99630
814,137979,99521
815,137592,100016
816,137848,100909
817,138244,101308
818,138468,101394
819,138981,101851
820,139879,102558
821,140689,102829
822,141320,103204
823,142455,103931
824,143771,104770
825,145606,105940
826,147829,107332
827,150194,109014
828,152471,110486
829,154234,111550
830,155393,112191
831,155833,112677
832,156237,113028
833,156574,113277
834,156749,113418
835,156659,113383
836,156517,113333
837,156532,113324
838,156532,113359
839,156629,113418
840,156761,113531
841,156870,113622
842,156894,113812
843,156811,114013
844,156380,113931
845,155749,113626
846,155278,113387
847,154949,113222
848,154853,113199
849,155071,113335
850,155216,113438
851,155335,113501
852,155439,113519
853,155354,113430
854,155317,113351
855,155207,113267
856,155045,113200
857,154791,113074
858,154468,112898
859,154307,112819
860,154249,112815
861,154325,112838
862,154313,112794
863,154106,112485
864,153730,112170
865,153513,111955
866,153360,111831
867,153361,111728
868,153328,111691
869,153332,111577
870,153233,111439
871,153176,111299
872,152993,111079
873,152824,110867
874,152707,110725
875,152606,110647
876,152624,110676
877,152690,110776
878,152799,110903
879,152775,110939
880,152688,110791
881,152488,110662
882,152456,110659
883,152462,110694
884,152419,110644
885,152271,110568
886,152212,110523
887,152231,110524
888,152304,110602
889,152408,110721
890,152463,110778
891,152475,110805
892,152499,110851
893,152627,110934
894,152705,111044
895,152806,111119
896,152780,111100
897,152578,110844
898,152304,110678
899,152176,110629
900,152072,110603
901,152068,110630
902,152042,110635
903,151931,110597
904,151844,110538
905,151700,110491
906,151633,110473
907,151480,110396
908,151459,110398
909,151479,110428
910,151548,110497
911,151675,110598
912,151718,110674
913,151767,110712
914,151716,110626
915,151531,110468
916,151361,110414
917,151280,110379
918,151130,110329
919,151187,110410
920,151215,110433
921,151225,110424
922,151285,110458
923,151308,110502
924,151344,110506
925,151273,110499
926,151219,110453
927,151167,110430
928,151334,110525
929,151447,110606
930,151585,110689
931,151656,110697
932,151586,110544
933,151511,110458
934,151498,110471
935,151490,110427
936,151487,110453
937,151614,110519
938,151588,110520
939,151622,110513
940,151555,110475
941,151435,110378
942,151421,110314
943,151439,110345
944,151506,110361
945,151558,110392
946,151736,110504
947,151776,110585
948,151782,110590
949,151638,110442
950,151443,110306
951,151348,110276
952,151298,110249
953,151191,110234
954,151229,110273
955,151220,110287
956,151218,110252
957,151211,110316
958,151216,110342
959,151162,110314
960,151177,110367
961,151335,110460
962,151509,110596
963,151839,110787
964,152073,110934
965,152150,110915
966,151976,110752
967,151871,110660
968,151817,110671
969,151783,110653
970,151721,110608
971,151583,110535
972,151433,110461
973,151318,110438
974,151402,110493
975,151424,110551
976,151543,110636
977,151575,110693
978,151664,110751
979,151726,110839
980,151770,110883
981,151708,110886
982,151716,110853
983,151623,110756
984,151512,110686
985,151483,110675
986,151384,110633
987,151326,110610
988,151295,110629
989,151307,110651
990,151279,110656
991,151246,110658
992,151154,110615
993,151032,110543
994,150965,110531
995,151026,110588
996,151048,110641
997,151145,110696
998,151156,110729
999,151104,110626
1000,150987,110506
1001,150990,110487
1002,150980,110502
1003,150934,110495
1004,150952,110522
1005,150904,110546
1006,150990,110577
1007,151039,110606
1008,150997,110564
1009,150986,110524
1010,150911,110453
1011,150901,110409
1012,150946,110425
1013,151152,110551
1014,151201,110602
1015,151184,110495
1016,151046,110288
1017,150808,110083
1018,150659,109928
1019,150489,109820
1020,150485,109788
1021,150427,109783
1022,150466,109751
1023,150622,109874
1024,150732,109945
1025,150700,109917
1026,150688,109877
1027,150659,109885
1028,150755,109953
1029,150791,110059
1030,150853,110150
1031,150786,110119
1032,150598,109906
1033,150387,109767
1034,150417,109818
1035,150424,109830
1036,150560,109936
1037,150702,110078
1038,150939,110241
1039,151397,110570
1040,151776,110874
1041,151963,111046
1042,152089,111212
1043,152283,111330
1044,152478,111476
1045,152819,111662
1046,152822,111660
1047,152705,111514
1048,152529,111364
1049,152478,111318
1050,152566,111414
1051,152643,111440
1052,152598,111413
1053,152577,111414
1054,152589,111395
1055,152616,111448
1056,152746,111546
1057,152707,111551
1058,152641,111454
1059,152527,111400
1060,152494,111368
1061,152423,111360
1062,152389,111311
1063,152295,111199
1064,152076,111007
1065,151899,110866
1066,151822,110846
1067,151738,110809
1068,151650,110786
1069,151667,110785
1070,151606,110769
1071,151625,110768
1072,151677,110799
1073,151697,110789
1074,151689,110816
1075,151687,110807
1076,151628,110803
1077,151668,110824
1078,151668,110869
1079,151717,110832
1080,151585,110663
1081,151362,110476
1082,151413,110502
1083,151357,110466
1084,151369,110462
1085,151413,110498
1086,151337,110423
1087,151257,110392
1088,151273,110395
1089,151170,110355
1090,151108,110301
1091,151055,110230
1092,150982,110153
1093,151047,110153
1094,151037,110160
1095,151093,110171
1096,151084,110086
1097,151032,109920
1098,150968,109831
1099,150923,109772
1100,150796,109667
1101,150744,109655
1102,150804,109690
1103,150815,109738
1104,150982,109857
1105,151020,109945
1106,151046,109974
1107,150962,109959
1108,151015,110007
1109,151037,110067
1110,151148,110154
1111,151260,110302
1112,151361,110414
1113,151384,110389
1114,151201,110251
1115,151086,110169
1116,150900,110097
1117,150825,110062
1118,150895,110140
1119,150952,110177
1120,150977,110159
1121,150983,110166
1122,150922,110127
1123,150802,110037
1124,150827,110055
1125,150782,110031
1126,150818,110037
1127,150894,110141
1128,150951,110202
1129,150989,110243
1130,150979,110195
1131,150902,110061
1132,150813,110013
1133,150877,110045
1134,150850,110064
1135,150925,110139
1136,150940,110176
1137,150986,110194
1138,150991,110233
1139,151013,110267
1140,151002,110277
1141,150991,110281
1142,151000,110313
1143,151051,110354
1144,151052,110403
1145,151129,110474
1146,151065,110485
1147,151094,110529
1148,151058,110475
1149,150936,110315
1150,150804,110249
1151,150809,110241
1152,150771,110232
1153,150780,110265
1154,150756,110284
1155,150702,110240
1156,150620,110227
1157,150595,110192
1158,150495,110137
1159,150517,110120
1160,150552,110146
1161,150621,110178
1162,150651,110216
1163,150738,110289
1164,150737,110317
1165,150743,110340
1166,150801,110356
1167,150748,110253
1168,150713,110139
1169,150710,110161
1170,150772,110192
1171,150754,110185
1172,150747,110218
1173,150725,110209
1174,150759,110226
1175,150811,110288
1176,150861,110326
1177,150779,110344
1178,150830,110383
1179,150833,110433
1180,150896,110501
1181,150921,110599
1182,151035,110712
1183,151039,110803
1184,151098,110862
1185,151016,110799
1186,150891,110638
1187,150789,110596
1188,150754,110627
1189,150749,110619
1190,150677,110628
1191,150667,110623
1192,150575,110589
1193,150586,110583
1194,150526,110556
1195,150479,110528
1196,150455,110497
1197,150401,110457
1198,150452,110478
1199,150462,110522
1200,150572,110592
1201,150587,110645
1202,150615,110680
1203,150609,110653
1204,150584,110546
1205,150499,110470
1206,150537,110503
1207,150517,110523
1208,150527,110555
1209,150525,110587
1210,150454,110577
1211,150410,110550
1212,150392,110553
1213,150371,110551
1214,150369,110568
1215,150383,110589
1216,150371,110604
1217,150402,110631
1218,150425,110696
1219,150453,110718
1220,150347,110688
1221,150382,110668
1222,150329,110565
1223,150237,110427
1224,150257,110438
1225,150238,110439
1226,150188,110389
1227,150131,110380
1228,150100,110361
1229,150048,110331
1230,150087,110321
1231,150045,110295
1232,150110,110304
1233,150180,110349
1234,150362,110419
1235,150376,110435
1236,150451,110466
1237,150431,110479
1238,150469,110510
1239,150478,110493
1240,150386,110327
1241,150363,110254
1242,150404,110288
1243,150386,110273
1244,150461,110348
1245,150504,110400
1246,150429,110402
1247,150490,110423
1248,150482,110495
1249,150473,110528
1250,150442,110543
1251,150501,110592
1252,150454,110594
1253,150506,110648
1254,150555,110740
1255,150601,110827
1256,150697,110923
1257,150683,110854
1258,150487,110728
1259,150418,110668
1260,150313,110630
1261,150231,110602
1262,150205,110597
1263,150166,110580
1264,150157,110557
1265,150113,110541
1266,150074,110492
1267,149953,110423
1268,149897,110350
1269,149827,110303
1270,149933,110349
1271,149994,110412
1272,150011,110439
1273,150019,110427
1274,149875,110260
1275,149685,110065
1276,149593,110004
1277,149532,109981
1278,149493,109974
1279,149529,110028
1280,149515,110040
1281,149515,110023
1282,149475,110041
1283,149491,110048
1284,149453,110043
1285,149449,110050
1286,149489,110096
1287,149580,110168
1288,149654,110231
1289,149671,110302
1290,149720,110324
1291,149673,110207
1292,149584,110082
1293,149535,110083
1294,149530,110067
1295,149485,110036
1296,149556,110081
1297,149497,110047
1298,149441,109990
1299,149439,109978
1300,149419,109985
1301,149446,109940
1302,149462,109977
1303,149550,110010
1304,149640,110086
1305,149763,110147
1306,149791,110206
1307,149869,110219
1308,149774,110073
1309,149701,109900
1310,149656,109835
1311,149641,109783
1312,149590,109747
1313,149620,109721
1314,149478,109593
1315,149322,109475
1316,149295,109421
1317,149205,109412
1318,149216,109407
1319,149266,109486
1320,149432,109609
1321,149555,109751
1322,149748,109912
1323,149787,110017
1324,149836,110040
1325,149737,109968
1326,149660,109928
1327,149696,110042
1328,149862,110156
1329,150013,110291
1330,150186,110382
1331,150228,110404
1332,150295,110419
1333,150307,110427
1334,150322,110436
1335,150303,110414
1336,150253,110387
1337,150266,110366
1338,150358,110453
1339,150493,110519
1340,150494,110590
1341,150590,110591
1342,150471,110457
1343,150383,110352
1344,150388,110380
1345,150412,110383
1346,150347,110369
1347,150384,110408
1348,150376,110424
1349,150390,110398
1350,150326,110411
1351,150308,110378
1352,150200,110345
1353,150223,110374
1354,150211,110365
1355,150239,110406
1356,150235,110438
1357,150170,110411
1358,150079,110300
1359,149899,110103
1360,149761,109945
1361,149676,109920
1362,149652,109865
1363,149558,109846
1364,149497,109796
1365,149393,109741
1366,149287,109651
1367,149234,109593
1368,149105,109492
1369,149002,109389
1370,148959,109359
1371,149036,109366
1372,149096,109424
1373,149197,109436
1374,149208,109496
1375,149190,109404
1376,149040,109224
1377,148990,109147
1378,149056,109178
1379,149078,109184
1380,149191,109260
1381,149250,109304
1382,149246,109266
1383,149230,109251
1384,149267,109235
1385,149204,109194
1386,149258,109169
1387,149260,109173
1388,149378,109220
1389,149478,109289
1390,149582,109429
1391,149572,109490
1392,149540,109384
1393,149448,109308
1394,149415,109302
1395,149378,109305
1396,149288,109316
1397,149292,109344
1398,149209,109342
1399,149212,109344
1400,149252,109413
1401,149254,109447
1402,149119,109422
1403,149156,109450
1404,149148,109479
1405,149173,109496
1406,149155,109534
1407,149205,109580
1408,149221,109586
1409,149181,109464
1410,149010,109344
1411,149035,109350
1412,149074,109352
1413,149141,109382
1414,149119,109405
1415,149116,109450
1416,149164,109431
1417,149268,109529
1418,149364,109587
1419,149396,109634
1420,149497,109695
1421,149523,109751
1422,149674,109880
1423,149767,109990
1424,149828,110046
1425,149828,110050
1426,149758,109922
1427,149565,109741
1428,149532,109729
1429,149469,109699
1430,149350,109640
1431,149306,109684
1432,149257,109641
1433,149149,109577
1434,149105,109541
1435,148981,109476
1436,148868,109375
1437,148799,109336
1438,148722,109290
1439,148715,109259
1440,148744,109300
1441,148759,109325
1442,148665,109290
1443,148637,109181
1444,148435,108992
1445,148395,108916
1446,148381,108908
1447,148390,108878
1448,148393,108896
1449,148477,108926
1450,148459,108922
1451,148515,108943
1452,148529,108964
1453,148562,108954
1454,148522,108934
1455,148582,108923
1456,148539,108892
1457,148664,108948
1458,148710,108997
1459,148858,109092
1460,148962,109141
1461,148935,109040
1462,148908,108969
1463,148848,108992
1464,148826,108997
1465,148760,109027
1466,148807,109089
1467,148789,109116
1468,148807,109117
1469,148796,109148
1470,148683,109096
1471,148654,109069
1472,148620,109088
1473,148658,109107
1474,148630,109161
1475,148658,109240
1476,148705,109321
1477,148761,109376
1478,148737,109275
1479,148525,109104
1480,148513,109085
1481,148482,109112
1482,148577,109183
1483,148655,109282
1484,148655,109304
1485,148642,109327
1486,148653,109359
1487,148703,109400
1488,148698,109420
1489,148827,109504
1490,148867,109575
1491,149047,109689
1492,149233,109872
1493,149384,110005
1494,149354,110001
1495,149348,109899
1496,149187,109731
1497,149023,109627
1498,149048,109656
1499,149047,109685
1500,149121,109750
1501,149189,109829
1502,149241,109864
1503,149212,109869
1504,149242,109905
1505,149160,109894
1506,149120,109890
1507,149033,109861
1508,149025,109831
1509,149060,109885
1510,149148,109931
1511,149113,109927
1512,149050,109885
1513,148984,109729
1514,148718,109499
1515,148614,109388
1516,148505,109354
1517,148455,109294
1518,148403,109297
1519,148462,109309
1520,148436,109264
1521,148556,109305
1522,148589,109324
1523,148684,109325
1524,148719,109339
1525,148801,109370
1526,148851,109405
1527,148971,109486
1528,149028,109546
1529,149100,109593
1530,149170,109619
1531,149167,109500
1532,149109,109424
1533,149175,109412
1534,149166,109401
1535,149165,109396
1536,149182,109415
1537,149130,109388
1538,149145,109403
1539,149121,109444
1540,149065,109430
1541,149002,109429
1542,149045,109450
1543,149066,109468
1544,149120,109539
1545,149131,109554
1546,149082,109632
1547,149057,109645
1548,148960,109520
1549,148811,109396
1550,148780,109406
1551,148756,109425
1552,148721,109426
1553,148717,109454
1554,148661,109450
1555,148658,109441
1556,148664,109456
1557,148680,109506
1558,148685,109509
1559,148752,109557
1560,148838,109622
1561,148957,109721
1562,149079,109830
1563,149174,109900
1564,149208,109962
1565,149278,109910
1566,149186,109790
1567,149175,109752
1568,149170,109754
1569,149160,109746
1570,149157,109755
1571,149127,109762
1572,149128,109745
1573,149082,109742
1574,149061,109752
1575,149008,109725
1576,148979,109732
1577,149022,109743
1578,148990,109748
1579,149069,109811
1580,149080,109855
1581,149076,109865
1582,149023,109845
1583,148970,109698
1584,148823,109581
1585,148813,109563
1586,148740,109497
1587,148617,109422
1588,148565,109399
1589,148451,109339
1590,148392,109266
1591,148359,109244
1592,148304,109172
1593,148246,109115
1594,148278,109084
1595,148285,109072
1596,148375,109082
1597,148445,109135
1598,148470,109139
1599,148497,109162
1600,148525,109130
1601,148429,108955
1602,148333,108821
1603,148352,108806
1604,148317,108766
1605,148328,108733
1606,148335,108739
1607,148332,108699
1608,148389,108702
1609,148476,108748
1610,148484,108758
1611,148523,108755
1612,148551,108773
1613,148578,108784
1614,148578,108830
1615,148664,108918
1616,148662,108987
1617,148764,109077
1618,148729,109018
1619,148599,108873
1620,148540,108838
1621,148450,108805
1622,148409,108797
1623,148394,108826
1624,148410,108842
1625,148342,108830
1626,148358,108835
1627,148267,108830
1628,148210,108777
1629,148100,108751
1630,148142,108747
1631,148146,108793
1632,148266,108879
1633,148320,108958
1634,148364,109013
1635,148389,108997
1636,148311,108856
1637,148195,108749
1638,148228,108784
1639,148184,108787
1640,148153,108796
1641,148229,108863
1642,148180,108851
1643,148245,108858
1644,148241,108881
1645,148258,108861
1646,148281,108874
1647,148318,108893
1648,148360,108918
1649,148427,108967
1650,148478,109044
1651,148550,109109
1652,148551,109128
1653,148574,109097
1654,148514,108951
1655,148409,108869
1656,148445,108882
1657,148339,108828
1658,148333,108832
1659,148319,108845
1660,148263,108802
1661,148263,108788
1662,148225,108810
1663,148236,108798
1664,148197,108792
1665,148261,108827
1666,148269,108856
1667,148253,108884
1668,148319,108945
1669,148290,108981
1670,148274,108972
1671,148206,108879
1672,148078,108663
1673,147968,108572
1674,147953,108541
1675,147865,108487
1676,147863,108489
1677,147747,108427
1678,147626,108338
1679,147628,108321
1680,147604,108304
1681,147597,108256
1682,147615,108269
1683,147692,108269
1684,147726,108314
1685,147823,108375
1686,147901,108445
1687,147955,108505
1688,148011,108547
1689,147986,108497
1690,147931,108349
1691,147871,108301
1692,147871,108279
1693,147834,108271
1694,147889,108308
1695,147841,108310
1696,147853,108294
1697,147856,108325
1698,147787,108269
1699,147710,108235
1700,147722,108242
1701,147715,108267
1702,147774,108331
1703,147807,108415
1704,147875,108489
1705,147825,108552
1706,147908,108610
1707,147835,108532
1708,147725,108394
1709,147647,108403
1710,147630,108422
1711,147564,108424
1712,147550,108449
1713,147522,108459
1714,147471,108420
1715,147456,108424
1716,147408,108421
1717,147391,108397
1718,147364,108400
1719,147414,108406
1720,147426,108455
1721,147563,108532
1722,147641,108621
1723,147687,108665
1724,147736,108692
1725,147761,108612
1726,147621,108468
1727,147577,108459
1728,147603,108473
1729,147541,108465
1730,147540,108490
1731,147465,108466
1732,147425,108428
1733,147435,108439
1734,147342,108394
1735,147283,108380
1736,147285,108366
1737,147287,108413
1738,147310,108428
1739,147322,108487
1740,147386,108546
1741,147370,108568
1742,147395,108582
1743,147422,108552
1744,147293,108368
1745,147140,108269
1746,147116,108242
1747,146995,108170
1748,146970,108160
1749,146907,108159
1750,146864,108107
1751,146848,108100
1752,146983,108164
1753,147029,108203
1754,147153,108249
1755,147249,108326
1756,147385,108406
1757,147499,108473
1758,147561,108553
1759,147677,108610
1760,147769,108737
1761,148004,108851
1762,148042,108800
1763,148031,108684
1764,148153,108770
1765,148253,108818
1766,148247,108799
1767,148261,108837
1768,148216,108788
1769,148123,108725
1770,148266,108821
1771,148264,108826
1772,148267,108826
1773,148250,108868
1774,148306,108914
1775,148328,108998
1776,148391,109066
1777,148384,109143
1778,148348,109180
1779,148266,109162
1780,148182,109072
1781,147949,108894
1782,147823,108820
1783,147749,108815
1784,147671,108750
1785,147572,108762
1786,147535,108737
1787,147396,108673
1788,147396,108666
1789,147324,108661
1790,147315,108652
1791,147237,108628
1792,147244,108588
1793,147240,108610
1794,147310,108668
1795,147412,108755
1796,147436,108800
1797,147533,108847
1798,147573,108813
1799,147498,108646
1800,147434,108590
1801,147443,108589
1802,147400,108577
1803,147438,108569
1804,147399,108566
1805,147334,108500
1806,147269,108455
1807,147242,108443
1808,147226,108434
1809,147200,108423
1810,147235,108443
1811,147207,108467
1812,147265,108499
1813,147237,108519
1814,147296,108547
1815,147264,108545
1816,147335,108572
1817,147346,108502
1818,147181,108338
1819,147147,108297
1820,147110,108317
1821,147106,108285
1822,147054,108299
1823,147072,108326
1824,146946,108227
1825,146963,108212
1826,146915,108202
1827,146857,108140
1828,146830,108136
1829,146915,108167
1830,146976,108187
1831,147029,108219
1832,147122,108303
1833,147287,108372
1834,147373,108415
1835,147449,108478
1836,147578,108434
1837,147471,108261
1838,147473,108229
1839,147490,108214
1840,147469,108152
1841,147444,108150
1842,147404,108113
1843,147385,108058
1844,147425,108085
1845,147517,108105
1846,147507,108093
1847,147605,108140
1848,147659,108170
1849,147655,108183
1850,147728,108243
1851,147769,108312
1852,147761,108376
1853,147796,108485
1854,147931,108586
1855,147852,108501
1856,147773,108442
1857,147715,108458
1858,147640,108433
1859,147492,108405
1860,147607,109011
1861,147532,109113
1862,147560,109069
1863,147501,108818
1864,147430,108712
1865,147399,108672
1866,147307,108595
1867,147309,108570
1868,147252,108554
1869,147305,108597
1870,147368,108664
1871,147383,108678
1872,147424,108712
1873,147428,108634
1874,147323,108480
1875,147251,108437
1876,147279,108454
1877,147202,108403
1878,147184,108391
1879,147168,108401
1880,147116,108328
1881,147135,108312
1882,147118,108328
1883,147076,108286
1884,147033,108262
1885,147052,108268
1886,147059,108255
1887,147050,108255
1888,147075,108298
1889,147066,108325
1890,147099,108341
1891,147089,108333
1892,147052,108194
1893,146891,108085
1894,146912,108091
1895,146884,108081
1896,146836,108066
1897,146832,108113
1898,146813,108082
1899,146744,108068
1900,146716,108061
1901,146624,108024
1902,146571,107985
1903,146546,107966
1904,146588,107960
1905,146617,107972
1906,146675,108009
1907,146698,108032
1908,146706,108043
1909,146767,108072
1910,146858,108066
1911,146864,107948
1912,146827,107875
1913,146878,107905
1914,146869,107897
1915,146917,107911
1916,146937,107926
1917,146929,107894
1918,146941,107893
1919,147037,107930
1920,147052,107955
1921,147159,107978
1922,147209,108018
1923,147293,108041
1924,147316,108083
1925,147387,108145
1926,147443,108211
1927,147460,108298
1928,147547,108340
1929,147485,108273
1930,147418,108207
1931,147407,108231
1932,147318,108237
1933,147287,108232
1934,147232,108255
1935,147130,108221
1936,147107,108233
1937,147141,108281
1938,147142,108304
1939,147107,108303
1940,147075,108283
1941,147030,108263
1942,147010,108262
1943,147073,108320
1944,147087,108364
1945,147091,108371
1946,147057,108348
1947,146958,108145
1948,146791,108033
1949,146765,108001
1950,146687,107959
1951,146660,107926
1952,146656,107947
1953,146594,107903
1954,146603,107878
1955,146556,107867
1956,146615,107873
1957,146572,107856
1958,146622,107870
1959,146654,107906
1960,146728,107980
1961,146821,108063
1962,146740,108063
1963,146754,108059
1964,146671,107955
1965,146499,107734
1966,146390,107640
1967,146378,107609
1968,146277,107536
1969,146237,107507
1970,146228,107490
1971,146139,107410
1972,146130,107375
1973,146122,107379
1974,146147,107359
1975,146213,107401
1976,146365,107453
1977,146424,107499
1978,146531,107568
1979,146637,107636
1980,146680,107687
1981,146742,107695
1982,146725,107590
1983,146721,107512
1984,146756,107550
1985,146814,107536
1986,146793,107556
1987,146803,107543
1988,146750,107497
1989,146795,107501
1990,146876,107541
1991,146878,107542
1992,146959,107588
1993,146935,107607
1994,146960,107611
1995,146978,107683
1996,147063,107769
1997,147026,107845
1998,147053,107847
1999,146949,107761
2000,146817,107619
2001,146707,107571
2002,146609,107535
2003,146588,107514
2004,146545,107528
2005,146471,107462
2006,146390,107429
2007,146402,107432
2008,146357,107385
2009,146314,107342
2010,146291,107302
2011,146268,107251
2012,146271,107253
2013,146328,107297
2014,146309,107307
2015,146241,107238
2016,146201,107094
2017,146007,106897
2018,145941,106818
2019,145857,106767
2020,145825,106723
2021,145803,106713
2022,145728,106676
2023,145677,106582
2024,145621,106597
2025,145598,106551
2026,145524,106534
2027,145514,106506
2028,145486,106493
2029,145541,106491
2030,145530,106516
2031,145524,106506
2032,145511,106499
2033,145551,106427
2034,145420,106271
2035,145378,106152
2036,145390,106179
2037,145430,106163
2038,145440,106186
2039,145576,106241
2040,145555,106231
2041,145633,106242
2042,145741,106314
2043,145775,106319
2044,145847,106337
2045,145897,106370
2046,145994,106379
2047,146034,106431
2048,146197,106490
2049,146271,106568
2050,146341,106595
2051,146336,106517
2052,146246,106339
2053,146212,106271
2054,146196,106235
2055,146115,106150
2056,146100,106151
2057,146107,106134
2058,146100,106111
2059,146179,106132
2060,146149,106153
2061,146142,106128
2062,146120,106130
2063,146172,106140
2064,146220,106219
2065,146356,106351
2066,146336,106414
2067,146360,106494
2068,146347,106484
2069,146191,106323
2070,146041,106239
2071,146041,106236
2072,145954,106221
2073,145988,106229
2074,145932,106233
2075,145847,106166
2076,145821,106135
2077,145785,106093
2078,145790,106067
2079,145738,106019
2080,145749,105992
2081,145715,105962
2082,145779,106015
2083,145774,106044
2084,145823,106049
2085,145738,105989
2086,145647,105795
2087,145445,105635
2088,145434,105606
2089,145366,105584
2090,145334,105570
2091,145300,105599
2092,145243,105563
2093,145137,105504
2094,145088,105486
2095,145017,105434
2096,144999,105409
2097,144988,105412
2098,145007,105409
2099,144995,105394
2100,145074,105478
2101,145086,105488
2102,145088,105510
2103,145087,105467
2104,144973,105283
2105,144892,105184
2106,144901,105197
2107,144830,105147
2108,144808,105177
2109,144850,105218
2110,144798,105218
2111,144895,105231
2112,144991,105306
2113,145054,105307
2114,145109,105329
2115,145211,105368
2116,145317,105416
2117,145389,105478
2118,145541,105576
2119,145567,105628
2120,145697,105713
2121,145789,105756
2122,145780,105610
2123,145785,105561
2124,145886,105573
2125,145890,105572
2126,145942,105596
2127,146031,105670
2128,146009,105641
2129,145996,105636
2130,146042,105683
2131,145995,105654
2132,145924,105639
2133,145956,105653
2134,145892,105647
2135,145936,105709
2136,145950,105760
2137,145923,105801
2138,145888,105864
2139,145827,105800
2140,145634,105654
2141,145579,105575
2142,145499,105583
2143,145463,105579
2144,145448,105611
2145,145475,105668
2146,145422,105634
2147,145369,105622
2148,145408,105654
2149,145347,105626
2150,145377,105662
2151,145422,105709
2152,145493,105738
2153,145631,105850
2154,145840,105994
2155,145845,106062
2156,145928,106117
2157,145916,106087
2158,145861,105958
2159,145783,105911
2160,145816,105930
2161,145720,105882
2162,145673,105854
2163,145691,105878
2164,145619,105821
2165,145593,105793
2166,145615,105806
2167,145571,105757
2168,145506,105740
2169,145602,105760
2170,145596,105767
2171,145614,105809
2172,145639,105843
2173,145622,105864
2174,145595,105832
2175,145620,105831
2176,145450,105671
2177,145389,105588
2178,145385,105608
2179,145324,105558
2180,145099,105504
2181,145107,105541
2182,145075,105487
2183,145068,105425
2184,145123,105428
2185,145070,105369
2186,145065,105349
2187,145066,105358
2188,145171,105389
2189,145247,105443
2190,145351,105521
2191,145480,105595
2192,145533,105649
2193,145661,105697
2194,145661,105624
2195,145616,105517
2196,145652,105545
2197,145730,105585
2198,145735,105575
2199,145814,105658
2200,145843,105645
2201,145850,105640
2202,146015,105706
2203,146033,105722
2204,146085,105720
2205,146123,105725
2206,146160,105739
2207,146193,105752
2208,146252,105805
2209,146241,105837
2210,146188,105891
2211,146185,105933
2212,146104,105854
2213,145943,105750
2214,145947,105776
2215,145935,105778
2216,145889,105760
2217,145846,105750
2218,145719,105689
2219,145695,105636
2220,145675,105662
2221,145728,105670
2222,145768,105693
2223,145984,105779
2224,146049,105789
2225,146058,105774
2226,146019,105779
2227,145929,105738
2228,145842,105702
2229,145819,105640
2230,145721,105478
2231,145676,105372
2232,145683,105335
2233,145674,105325
2234,145665,105325
2235,145625,105332
2236,145585,105297
2237,145567,105281
2238,145592,105295
2239,145561,105296
2240,145560,105291
2241,145579,105334
2242,145599,105327
2243,145559,105331
2244,145642,105399
2245,145618,105394
2246,145553,105363
2247,145565,105359
2248,145476,105243
2249,145300,105080
2250,145219,105045
2251,145208,105028
2252,145127,105001
2253,145141,105031
2254,145106,105027
2255,145142,105020
2256,145119,105002
2257,145058,104960
2258,145028,104919
2259,144986,104906
2260,145030,104885
2261,145088,104936
2262,145265,105040
2263,145379,105150
2264,145525,105235
2265,145606,105283
2266,145644,105215
2267,145540,105079
2268,145578,105088
2269,145642,105116
2270,145642,105123
2271,145728,105174
2272,145675,105148
2273,145746,105121
2274,145778,105154
2275,145780,105141
2276,145734,105103
2277,145757,105096
2278,145751,105092
2279,145782,105105
2280,145800,105145
2281,145751,105182
2282,145845,105265
2283,145819,105285
2284,145708,105154
2285,145565,105055
2286,145518,105013
2287,145358,104952
2288,145276,104921
2289,145185,104911
2290,145121,104896
2291,145140,104909
2292,145229,104994
2293,145187,104976
2294,145167,104980
2295,145250,105027
2296,145248,105066
2297,145353,105119
2298,145439,105223
2299,145505,105277
2300,145556,105350
2301,145563,105301
2302,145454,105165
2303,145360,105105
2304,145359,105094
2305,145302,105081
2306,145361,105132
2307,145331,105123
2308,145302,105082
2309,145319,105093
2310,145342,105108
2311,145359,105114
2312,145355,105109
2313,145440,105164
2314,145468,105207
2315,145554,105298
2316,145568,105374
2317,145632,105439
2318,145677,105503
2319,145679,105429
2320,145517,105298
2321,145573,105331
2322,145504,105284
2323,145501,105255
2324,145463,105284
2325,145497,105292
2326,145432,105265
2327,145370,105225
2328,145297,105194
2329,145269,105186
2330,145254,105152
2331,145287,105160
2332,145450,105220
2333,145458,105274
2334,145519,105328
2335,145523,105362
2336,145557,105363
2337,145509,105238
2338,145476,105111
2339,145501,105105
2340,145514,105100
2341,145561,105096
2342,145531,105092
2343,145506,105030
2344,145401,104949
2345,145412,104934
2346,145393,104935
2347,145451,104937
2348,145497,104963
2349,145555,104980
2350,145572,104989
2351,145631,105031
2352,145653,105058
2353,145676,105098
2354,145723,105099
2355,145586,104939
2356,145449,104793
2357,145412,104777
2358,145417,104792
2359,145299,104765
2360,145282,104793
2361,145208,104786
2362,145277,104836
2363,145350,104921
2364,145392,104990
2365,145454,105014
2366,145438,105007
2367,145456,105021
2368,145495,105088
2369,145542,105176
2370,145560,105252
2371,145626,105307
2372,145550,105196
2373,145369,105020
2374,145297,104979
2375,145319,104990
2376,145281,104983
2377,145339,105029
2378,145350,105072
2379,145373,105041
2380,145406,105070
2381,145435,105076
2382,145405,105066
2383,145425,105064
2384,145405,105077
2385,145513,105128
2386,145579,105221
2387,145608,105250
2388,145483,105191
2389,145218,104888
2390,145056,104715
2391,144971,104631
2392,144933,104616
2393,144933,104605
2394,144879,104602
2395,144875,104626
2396,144738,104566
2397,144714,104523
2398,144642,104519
2399,144569,104469
2400,144484,104424
2401,144499,104416
2402,144478,104403
2403,144496,104409
2404,144446,104411
2405,144469,104428
2406,144397,104357
2407,144290,104192
2408,144072,104002
2409,144034,103969
2410,143963,103926
2411,143902,103872
2412,143903,103884
2413,143835,103843
2414,143863,103822
2415,143866,103850
2416,143919,103864
2417,143914,103863
2418,144022,103901
2419,144061,103929
2420,144154,103974
2421,144251,104034
2422,144330,104093
2423,144363,104130
2424,144400,104135
2425,144309,103986
2426,144189,103869
2427,144232,103876
2428,144233,103881
2429,144317,103928
2430,144346,103979
2431,144304,103967
2432,144296,103981
2433,144347,104023
2434,144260,104023
2435,144262,104030
2436,144282,104063
2437,144293,104084
2438,144316,104131
2439,144331,104198
2440,144320,104219
2441,144300,104279
2442,144357,104285
2443,144176,104146
2444,144089,104090
2445,144030,104131
2446,144032,104115
2447,143979,104155
2448,144023,104210
2449,143940,104177
2450,143932,104161
2451,143913,104188
2452,143909,104191
2453,143910,104189
2454,143924,104190
2455,143894,104177
2456,143931,104199
2457,143935,104242
2458,144009,104286
2459,144101,104386
2460,144146,104372
2461,144014,104224
2462,143916,104126
2463,143830,104079
2464,143752,104008
2465,143663,103990
2466,143707,104051
2467,143648,104053
2468,143607,104035
2469,143606,104053
2470,143511,103982
2471,143386,103901
2472,143362,103940
2473,143376,103921
2474,143375,103956
2475,143434,104006
2476,143409,103999
2477,143352,103976
2478,143400,103997
2479,143369,103943
2480,143307,103813
2481,143235,103752
2482,143267,103779
2483,143288,103781
2484,143357,103847
2485,143414,103921
2486,143479,103952
2487,143562,103996
2488,143678,104043
2489,143735,104063
2490,143828,104099
2491,143890,104129
2492,143968,104172
2493,144062,104239
2494,144147,104289
2495,144224,104349
2496,144354,104423
2497,144497,104530
2498,144507,104484
2499,144498,104421
2500,144511,104435
2501,144508,104450
2502,144523,104504
2503,144533,104546
2504,144452,104548
2505,144504,104569
2506,144522,104607
2507,144496,104617
2508,144398,104581
2509,144308,104536
2510,144277,104529
2511,144222,104524
2512,144251,104555
2513,144211,104604
2514,144220,104649
2515,144161,104651
2516,144141,104552
2517,143925,104401
2518,143864,104366
2519,143812,104350
2520,143776,104352
2521,143818,104384
2522,143793,104374
2523,143729,104341
2524,143733,104354
2525,143689,104334
2526,143661,104333
2527,143702,104363
2528,143731,104395
2529,143782,104433
2530,143842,104513
2531,143904,104553
2532,143856,104569
2533,143902,104577
2534,143841,104486
2535,143689,104341
2536,143704,104365
2537,143711,104386
2538,143649,104365
2539,143664,104402
2540,143650,104403
2541,143583,104381
2542,143534,104366
2543,143513,104370
2544,143489,104403
2545,143558,104490
2546,143693,104606
2547,143704,104663
2548,143708,104667
2549,143629,104691
2550,143592,104689
2551,143551,104672
2552,143524,104608
2553,143332,104447
2554,143255,104394
2555,143211,104391
2556,143115,104324
2557,143034,104287
2558,143015,104284
2559,142955,104252
2560,142914,104217
2561,142851,104193
2562,142781,104141
2563,142747,104106
2564,142759,104074
2565,142781,104054
2566,142821,104079
2567,142885,104127
2568,142922,104172
2569,142973,104238
2570,142977,104144
2571,142779,103960
2572,142735,103919
2573,142688,103914
2574,142655,103928
2575,142740,103988
2576,142695,104006
2577,142736,103999
2578,142789,104055
2579,142825,104077
2580,142829,104089
2581,142874,104106
2582,142918,104149
2583,142911,104162
2584,142938,104267
2585,142933,104349
2586,142971,104439
2587,142939,104469
2588,142881,104365
2589,142690,104261
2590,142630,104242
2591,142557,104242
2592,142538,104271
2593,142512,104308
2594,142454,104312
2595,142424,104343
2596,142344,104324
2597,142295,104349
2598,142265,104356
2599,142311,104388
2600,142313,104418
2601,142367,104474
2602,142413,104569
2603,142516,104651
2604,142524,104694
2605,142507,104624
2606,142353,104491
2607,142337,104501
2608,142260,104450
2609,142225,104478
2610,142198,104513
2611,142216,104528
2612,142169,104507
2613,142174,104519
2614,142190,104555
2615,142199,104567
2616,142243,104595
2617,142281,104640
2618,142378,104700
2619,142454,104799
2620,142516,104853
2621,142476,104861
2622,142501,104815
2623,142332,104662
2624,142301,104617
2625,142234,104621
2626,142238,104613
2627,142159,104618
2628,142171,104624
2629,142074,104588
2630,142034,104546
2631,141923,104496
2632,141907,104463
2633,141881,104445
2634,141900,104439
2635,141925,104430
2636,141979,104467
2637,142022,104475
2638,142016,104491
2639,142089,104482
2640,142009,104355
2641,141926,104232
2642,141948,104256
2643,141955,104236
2644,141928,104213
2645,141944,104248
2646,141965,104221
2647,141918,104206
2648,142021,104246
2649,142005,104246
2650,142035,104234
2651,142082,104246
2652,142128,104288
2653,142192,104346
2654,142245,104398
2655,142329,104473
2656,142368,104576
2657,142400,104535
2658,142312,104427
2659,142293,104441
2660,142242,104475
2661,142233,104510
2662,142202,104554
2663,142169,104578
2664,142162,104576
2665,142221,104631
2666,142169,104667
2667,142116,104640
2668,142046,104617
2669,142113,104651
2670,142089,104625
2671,142207,104705
2672,142212,104761
2673,142241,104797
2674,142225,104793
2675,142101,104639
2676,141952,104539
2677,141939,104532
2678,141850,104490
2679,141850,104474
2680,141869,104496
2681,141861,104473
2682,141833,104482
2683,141836,104458
2684,141739,104412
2685,141682,104366
2686,141686,104351
2687,141651,104335
2688,141730,104373
2689,141741,104447
2690,141820,104527
2691,141852,104579
2692,141867,104527
2693,141731,104349
2694,141614,104277
2695,141588,104257
2696,141475,104224
2697,141477,104277
2698,141414,104289
2699,141368,104228
2700,141345,104226
2701,141329,104238
2702,141312,104206
2703,141258,104188
2704,141354,104212
2705,141322,104211
2706,141398,104240
2707,141437,104324
2708,141466,104313
2709,141496,104348
2710,141493,104257
2711,141389,104088
2712,141331,104036
2713,141416,104043
2714,141405,104042
2715,141489,104081
2716,141503,104117
2717,141514,104088
2718,141551,104114
2719,141649,104155
2720,141690,104174
2721,141869,104241
2722,141998,104312
2723,142158,104388
2724,142258,104471
2725,142382,104565
2726,142452,104642
2727,142474,104695
2728,142524,104658
2729,142437,104546
2730,142493,104554
2731,142502,104611
2732,142519,104660
2733,142557,104754
2734,142540,104794
2735,142565,104802
2736,142601,104871
2737,142554,104875
2738,142475,104862
2739,142433,104852
2740,142398,104864
2741,142470,104903
2742,142530,105008
2743,142581,105048
2744,142550,105114
2745,142586,105095
2746,142476,104970
2747,142391,104850
2748,142390,104867
2749,142361,104861
2750,142388,104871
2751,142411,104919
2752,142440,104901
2753,142374,104862
2754,142374,104847
2755,142315,104812
2756,142360,104798
2757,142301,104755
2758,142251,104698
2759,142184,104688
2760,142213,104711
2761,142207,104750
2762,142256,104776
2763,142186,104696
2764,142078,104524
2765,141945,104409
2766,141889,104387
2767,141859,104333
2768,141790,104318
2769,141759,104334
2770,141718,104287
2771,141712,104276
2772,141686,104277
2773,141632,104249
2774,141652,104253
2775,141663,104258
2776,141620,104244
2777,141685,104289
2778,141694,104340
2779,141720,104354
2780,141701,104365
2781,141676,104258
2782,141565,104141
2783,141546,104131
2784,141523,104080
2785,141416,104027
2786,141490,104104
2787,141501,104166
2788,141633,104241
2789,141736,104336
2790,141851,104387
2791,141864,104390
2792,141953,104404
2793,141985,104430
2794,142088,104508
2795,142121,104554
2796,142191,104620
2797,142214,104642
2798,142151,104492
2799,142072,104327
2800,142091,104284
2801,142090,104258
2802,142098,104238
2803,142190,104292
2804,142171,104298
2805,142265,104302
2806,142345,104353
2807,142380,104381
2808,142416,104407
2809,142546,104521
2810,142540,104586
2811,142590,104646
2812,142630,104730
2813,142666,104815
2814,142710,104882
2815,142627,104787
2816,142445,104629
2817,142313,104565
2818,142236,104541
2819,142117,104532
2820,142158,104622
2821,142060,104600
2822,142027,104574
2823,142001,104596
2824,141971,104551
2825,141884,104523
2826,141885,104490
2827,141943,104544
2828,142171,104703
2829,142265,104791
2830,142317,104829
2831,142192,104749
2832,141934,104466
2833,141689,104098
2834,141406,103763
2835,141347,103598
2836,141237,103393
2837,141396,103390
2838,141630,103479
2839,141705,103475
2840,141565,103397
2841,141457,103301
2842,141352,103263
2843,141360,103244
2844,141254,103171
2845,141284,103207
2846,141366,103273
2847,141465,103361
2848,141512,103417
2849,141553,103434
2850,141510,103319
2851,141419,103276
2852,141446,103308
2853,141373,103320
2854,141345,103340
2855,141263,103346
2856,141260,103316
2857,141213,103326
2858,141183,103306
2859,141066,103211
2860,140957,103159
2861,140882,103098
2862,140736,103010
2863,140724,102995
2864,140761,103055
2865,140775,103055
2866,140747,103077
2867,140790,103025
2868,140727,102906
2869,140707,102830
2870,140711,102863
2871,140708,102835
2872,140696,102865
2873,140749,102906
2874,140721,102879
2875,140736,102855
2876,140797,102893
2877,140845,102888
2878,140848,102879
2879,140975,102930
2880,141061,102990
2881,141158,103029
2882,141198,103082
2883,141281,103135
2884,141232,103144
2885,141299,103169
2886,141281,103076
2887,141261,103022
2888,141285,103065
2889,141350,103133
2890,141318,103182
2891,141280,103234
2892,141277,103237
2893,141261,103252
2894,141235,103253
2895,141117,103236
2896,141129,103244
2897,141158,103291
2898,141233,103353
2899,141266,103415
2900,141330,103479
2901,141233,103475
2902,141191,103475
2903,141175,103468
2904,141135,103344
2905,141060,103285
2906,141114,103373
2907,141095,103398
2908,141158,103468
2909,141175,103517
2910,141172,103539
2911,141159,103563
2912,141271,103645
2913,141316,103711
2914,141474,103788
2915,141561,103844
2916,141705,103865
2917,141683,103867
2918,141740,103894
2919,141747,103949
2920,141784,103981
2921,141819,104013
2922,141832,103881
2923,141649,103732
2924,141546,103656
2925,141389,103615
2926,141273,103558
2927,141221,103555
2928,141245,103556
2929,141254,103565
2930,141349,103597
2931,141316,103586
2932,141314,103614
2933,141303,103597
2934,141307,103614
2935,141296,103623
2936,141239,103639
2937,141267,103672
2938,141217,103677
2939,141264,103679
2940,141235,103595
2941,141128,103408
2942,140985,103292
2943,140961,103267
2944,140896,103252
2945,140926,103286
2946,140913,103317
2947,140893,103316
2948,140881,103323
2949,140965,103358
2950,140993,103372
2951,141076,103397
2952,141157,103458
2953,141242,103509
2954,141302,103550
2955,141357,103611
2956,141335,103602
2957,141330,103635
2958,141355,103599
2959,141318,103472
2960,141343,103389
2961,141428,103426
2962,141523,103468
2963,141579,103523
2964,141724,103621
2965,141736,103643
2966,141805,103647
2967,141853,103714
2968,141899,103730
2969,141861,103715
2970,141914,103771
2971,141902,103758
2972,141886,103808
2973,142002,103917
2974,141960,103969
2975,141931,103957
2976,141923,103966
2977,141832,103811
2978,141614,103645
2979,141529,103600
2980,141376,103527
2981,141265,103492
2982,141253,103501
2983,141194,103487
2984,141193,103465
2985,141143,103472
2986,141118,103455
2987,141076,103454
2988,141114,103488
2989,141139,103515
2990,141139,103582
2991,141269,103696
2992,141312,103789
2993,141418,103880
2994,141474,103890
2995,141402,103772
2996,141347,103669
2997,141357,103748
2998,141386,103763
2999,141310,103773
3000,141393,103837
3001,141345,103823
3002,141380,103833
3003,141387,103856
3004,141367,103843
3005,141378,103844
3006,141425,103865
3007,141500,103913
3008,141605,104024
3009,141800,104169
3010,141869,104281
3011,142022,104366
3012,142113,104439
3013,142138,104321
3014,142115,104174
3015,142343,104370
3016,142442,104447
3017,142550,104251
3018,142505,103945
3019,142521,103653
3020,142651,103560
3021,142622,103541
3022,142914,103642
3023,143378,103839
3024,143811,103910
3025,144043,104035
3026,144119,104099
3027,144118,104101
3028,144159,104131
3029,144254,104151
3030,144106,104079
3031,143907,103870
3032,143684,103737
3033,143671,103796
3034,143874,103975
3035,144116,104138
3036,143990,104239
3037,143991,104265
3038,143951,104313
3039,144354,104428
3040,144569,104031
3041,144548,103706
3042,144421,103593
3043,144397,103730
3044,144648,103941
3045,144950,104222
3046,145272,104465
3047,145217,104483
3048,145099,104456